18	12	13	16	02	27	-0.793796065234	-0.0670753402808	-0.579814133456	-0.86962890625	-0.05224609375	0.23779296875	49.8125	20.875	-23.4375
18	12	13	16	02	27	-0.790127804769	-0.0700654039762	-0.582800124188	-0.89501953125	-0.0810546875	0.25	30.8125	23.875	-20.625
18	12	13	16	02	27	-0.786376009833	-0.0708006963215	-0.58666921814	-0.96533203125	-0.1015625	0.2802734375	13.0	27.4375	-19.25
18	12	13	16	02	27	-0.782302701805	-0.0699421825767	-0.591579036402	-1.103515625	-0.10791015625	0.33642578125	-1.0	34.125	-19.125
18	12	13	16	02	27	-0.777413256607	-0.0684157843191	-0.597737905103	-1.26611328125	-0.12548828125	0.40771484375	-7.375	44.75	-20.9375
18	12	13	16	02	27	-0.771211905795	-0.0679906665919	-0.605019280005	-1.4345703125	-0.1650390625	0.45654296875	0.4375	57.0	-22.75
18	12	13	16	02	27	-0.76324079047	-0.0709835297334	-0.613339200594	-1.60546875	-0.255859375	0.4814453125	23.0	71.6875	-17.6875
18	12	13	16	02	27	-0.753326963651	-0.0792204811487	-0.622594859937	-1.8017578125	-0.322265625	0.47998046875	51.875	87.625	-6.1875
18	12	13	16	02	27	-0.741200762592	-0.0949083651046	-0.632559675848	-1.63134765625	-0.294921875	0.322265625	88.0625	101.0	8.25
18	12	13	16	02	27	-0.7298888599	-0.108760092678	-0.641208492525	-1.3359375	-0.31005859375	0.173828125	81.8125	87.625	14.5625
18	12	13	16	02	27	-0.721759807579	-0.116265215072	-0.648888066479	-1.09814453125	-0.18017578125	0.13623046875	29.6875	70.0	15.1875
18	12	13	16	02	27	-0.716821747595	-0.115594754359	-0.656583087324	-0.97216796875	-0.06884765625	0.11279296875	-34.3125	54.1875	11.9375
18	12	13	16	02	27	-0.714474689798	-0.106139713443	-0.664548131088	-0.9638671875	-0.06787109375	0.13818359375	-95.4375	42.125	6.8125
18	12	13	16	02	27	-0.713411361456	-0.0923424920765	-0.671787052403	-0.96923828125	-0.14013671875	0.18115234375	-120.0625	29.4375	2.5
18	12	13	16	02	27	-0.713722323463	-0.0792821359824	-0.675881735081	-0.94091796875	-0.23095703125	0.2197265625	-99.875	18.4375	0.75
18	12	13	16	02	27	-0.714269786451	-0.0714697017803	-0.677222724982	-0.86865234375	-0.30029296875	0.2216796875	-50.3125	8.9375	1.125
18	12	13	16	02	27	-0.714979763549	-0.0703078691941	-0.675919836219	-0.7841796875	-0.33154296875	0.2119140625	6.75	0.1875	1.3125
18	12	13	16	02	27	-0.716093751868	-0.0748257853737	-0.67239451669	-0.71484375	-0.26025390625	0.2041015625	49.875	-7.5	1.1875
18	12	13	16	02	27	-0.71763375642	-0.0816020013892	-0.667891324758	-0.66357421875	-0.1396484375	0.18115234375	61.375	-13.25	1.375
18	12	13	16	02	27	-0.720176591109	-0.0863601590185	-0.663294846794	-0.6259765625	-0.05224609375	0.185546875	39.25	-17.4375	2.5
18	12	13	16	02	27	-0.723861179576	-0.0869732024364	-0.659104289902	-0.611328125	-0.04541015625	0.21923828125	5.0	-20.9375	5.0
18	12	13	16	02	27	-0.728471679559	-0.0839793089036	-0.655233910166	-0.61962890625	-0.0654296875	0.2548828125	-23.625	-23.125	7.375
18	12	13	16	02	27	-0.733625378396	-0.0783062695908	-0.651657085285	-0.6357421875	-0.0869140625	0.2666015625	-43.9375	-25.3125	9.3125
18	12	13	16	02	27	-0.738994154968	-0.0712261462543	-0.648237274522	-0.64892578125	-0.099609375	0.26806640625	-56.0625	-26.625	11.25
18	12	13	16	02	27	-0.744188066226	-0.0637805732146	-0.644946714985	-0.673828125	-0.11328125	0.27294921875	-58.625	-26.5	12.0625
18	12	13	16	02	27	-0.748916043517	-0.0568812446058	-0.641805974544	-0.716796875	-0.12744140625	0.2822265625	-54.6875	-23.6875	12.25
18	12	13	16	02	27	-0.752884889124	-0.05169370145	-0.638939032445	-0.787109375	-0.12060546875	0.296875	-42.8125	-19.1875	11.75
18	12	13	16	02	27	-0.755930795916	-0.0491910400055	-0.636309904588	-0.8642578125	-0.1142578125	0.27490234375	-22.4375	-16.0625	9.75
18	12	13	16	02	27	-0.758380202335	-0.0491915695382	-0.63357032677	-0.92724609375	-0.1064453125	0.2314453125	-1.625	-17.375	6.3125
18	12	13	16	02	27	-0.760657628992	-0.050596579831	-0.63059573319	-0.97216796875	-0.10009765625	0.18994140625	9.75	-20.875	4.9375
18	12	13	16	02	27	-0.762976540782	-0.0522444539564	-0.627482746642	-1.0205078125	-0.099609375	0.17041015625	12.0	-23.8125	5.0625
18	12	13	16	02	28	-0.765259511927	-0.0535846440284	-0.624584563766	-1.15380859375	-0.1015625	0.185546875	7.6875	-24.625	6.25
18	12	13	16	02	28	-0.767338240671	-0.0547444843619	-0.622085316723	-1.3037109375	-0.09326171875	0.19482421875	4.3125	-24.1875	6.875
18	12	13	16	02	28	-0.769306279328	-0.0559051607984	-0.619717251907	-1.34375	-0.10888671875	0.1591796875	4.625	-26.75	8.0
18	12	13	16	02	28	-0.771795577412	-0.0560262802518	-0.61696042164	-1.3134765625	-0.12255859375	0.1318359375	-2.25	-33.0	10.375
18	12	13	16	02	28	-0.774799799603	-0.054196315246	-0.614163874234	-1.357421875	-0.11572265625	0.1279296875	-18.25	-37.875	11.875
18	12	13	16	02	28	-0.778115504721	-0.0497422649892	-0.611555208825	-1.61376953125	-0.078125	0.236328125	-37.8125	-37.5	7.3125
18	12	13	16	02	28	-0.780448950333	-0.0460200601041	-0.610040451911	-1.64111328125	0.0400390625	0.271484375	-37.4375	-27.0	0.5
18	12	13	16	02	28	-0.781532551342	-0.0432726730888	-0.609479426607	-1.4775390625	-0.0224609375	0.14794921875	-23.125	-24.0	-2.75
18	12	13	16	02	28	-0.783778251409	-0.0383893879564	-0.607394577014	-1.330078125	-0.13623046875	0.14111328125	-27.5625	-35.0625	-3.875
18	12	13	16	02	28	-0.786168756361	-0.034972028367	-0.604839094444	-1.27734375	-0.1494140625	0.15185546875	-18.1875	-35.625	-0.25
18	12	13	16	02	28	-0.787847275201	-0.0357030487251	-0.60243554524	-1.26611328125	-0.14208984375	0.12109375	9.6875	-32.5	1.75
18	12	13	16	02	28	-0.789769840684	-0.0397326249061	-0.599102067709	-1.19189453125	-0.10546875	0.1484375	30.6875	-32.875	3.3125
18	12	13	16	02	28	-0.792138016045	-0.0452859548428	-0.595064770509	-1.05859375	-0.0234375	0.1787109375	34.8125	-32.375	6.375
18	12	13	16	02	28	-0.79469592376	-0.0490696200525	-0.591276715259	-0.91357421875	0.0205078125	0.17822265625	19.25	-30.3125	8.0625
18	12	13	16	02	28	-0.797418012789	-0.0491329123839	-0.588069081762	-0.78076171875	0.0078125	0.18310546875	-6.875	-27.75	8.8125
18	12	13	16	02	28	-0.800333168151	-0.0457751754833	-0.585311910514	-0.68603515625	-0.0224609375	0.1943359375	-29.5	-25.8125	10.0
18	12	13	16	02	28	-0.803323759085	-0.0403431852876	-0.582748461612	-0.6259765625	-0.0400390625	0.19580078125	-42.8125	-25.0625	9.9375
18	12	13	16	02	28	-0.806206755036	-0.0336911294405	-0.580378532337	-0.6015625	-0.03369140625	0.19775390625	-50.625	-24.0	7.4375
18	12	13	16	02	28	-0.80882041338	-0.0260004147374	-0.578234575639	-0.58837890625	-0.02734375	0.2080078125	-55.125	-22.3125	3.0
18	12	13	16	02	28	-0.811124497958	-0.0178825792251	-0.576209660288	-0.5859375	-0.03076171875	0.21435546875	-54.375	-20.5	-3.1875
18	12	13	16	02	28	-0.812867395062	-0.010314181978	-0.574481626978	-0.60302734375	-0.0390625	0.23046875	-45.6875	-17.1875	-10.0625
18	12	13	16	02	28	-0.813843471883	-0.00494348115655	-0.573260722265	-0.63916015625	-0.05029296875	0.23388671875	-26.5625	-11.9375	-15.75
18	12	13	16	02	28	-0.81424092176	-0.00305164875856	-0.57218414223	-0.66650390625	-0.08056640625	0.24267578125	2.0	-7.5	-20.4375
18	12	13	16	02	28	-0.814066706351	-0.00530992678457	-0.571213848009	-0.673828125	-0.10302734375	0.2421875	34.0	-3.6875	-22.8125
18	12	13	16	02	28	-0.813444109984	-0.0116572497754	-0.570228715455	-0.703125	-0.08837890625	0.2578125	60.625	0.8125	-22.6875
18	12	13	16	02	28	-0.811985894221	-0.0210564592232	-0.569867129761	-0.7529296875	-0.04296875	0.27783203125	76.875	8.0625	-21.5
18	12	13	16	02	28	-0.809294766709	-0.0317370496749	-0.570839664633	-0.8505859375	-0.00146484375	0.2744140625	81.25	17.0	-21.3125
18	12	13	16	02	28	-0.805619377877	-0.0418067631701	-0.573027298401	-0.93896484375	0.02001953125	0.28955078125	74.5	25.0625	-23.125
18	12	13	16	02	28	-0.800977378559	-0.0499847967876	-0.576747655241	-1.0068359375	0.01171875	0.30419921875	60.375	33.8125	-23.25
18	12	13	16	02	28	-0.795127254793	-0.0562716709333	-0.582369071633	-1.1220703125	-0.05078125	0.31005859375	47.25	44.5	-22.0625
18	12	13	16	02	28	-0.788130332971	-0.0620714434006	-0.589404059901	-1.2919921875	-0.1318359375	0.314453125	44.8125	52.625	-19.4375
18	12	13	16	02	28	-0.780328167509	-0.0695184812509	-0.59679693562	-1.42236328125	-0.1708984375	0.31591796875	54.9375	57.375	-16.5625
18	12	13	16	02	28	-0.771647712017	-0.0790995360891	-0.604720836088	-1.49365234375	-0.16943359375	0.29736328125	63.9375	64.9375	-9.625
18	12	13	16	02	28	-0.762309947178	-0.0894752908377	-0.613204806989	-1.45849609375	-0.17724609375	0.22216796875	64.125	69.0625	-2.3125
18	12	13	16	02	28	-0.75357172615	-0.09740831578	-0.621557824501	-1.53466796875	-0.203125	0.2197265625	45.375	65.9375	1.625
18	12	13	16	02	28	-0.745520452166	-0.103512295282	-0.629923584675	-1.50439453125	-0.1669921875	0.21484375	25.8125	65.9375	6.4375
18	12	13	16	02	28	-0.738055676039	-0.107537757478	-0.638391000692	-1.41259765625	-0.19091796875	0.16748046875	9.0	63.75	11.75
18	12	13	16	02	28	-0.732339955932	-0.108029145929	-0.645977672605	-1.29345703125	-0.2080078125	0.1689453125	-15.6875	54.625	14.0625
18	12	13	16	02	28	-0.728464784803	-0.106071698725	-0.652115132843	-1.1357421875	-0.2216796875	0.16650390625	-30.375	42.8125	15.25
18	12	13	16	02	28	-0.725951015304	-0.10272200763	-0.656920361335	-1.0029296875	-0.216796875	0.16455078125	-36.875	32.5625	13.625
18	12	13	16	02	28	-0.724697713229	-0.0983230601324	-0.660369652782	-0.890625	-0.19482421875	0.16943359375	-40.5625	22.9375	10.6875
18	12	13	16	02	28	-0.724109587577	-0.0928329975307	-0.662892298607	-0.82470703125	-0.201171875	0.1845703125	-40.8125	16.4375	3.9375
18	12	13	16	02	28	-0.724158084713	-0.0877046074786	-0.663918385631	-0.7939453125	-0.2109375	0.22265625	-28.0	9.875	-4.125
18	12	13	16	02	28	-0.72465045818	-0.0849585983144	-0.663372848476	-0.76708984375	-0.18896484375	0.2529296875	-5.8125	4.1875	-8.0
18	12	13	16	02	28	-0.725321722391	-0.0842872179925	-0.662030017063	-0.724609375	-0.1435546875	0.2490234375	8.0	1.75	-8.0625
18	12	13	16	02	28	-0.72617013436	-0.0843475479648	-0.660193506755	-0.69091796875	-0.13916015625	0.25634765625	13.9375	-0.5	-8.0625
18	12	13	16	02	28	-0.726925462689	-0.0842891741371	-0.658383288499	-0.6533203125	-0.1591796875	0.2294921875	14.875	-1.8125	-8.0625
18	12	13	16	02	28	-0.727794686516	-0.0834293783201	-0.656693570391	-0.63916015625	-0.1787109375	0.2080078125	9.0	-3.8125	-7.25
18	12	13	16	02	28	-0.729173966398	-0.0823959868283	-0.654651373867	-0.6220703125	-0.169921875	0.21826171875	5.5625	-6.6875	-4.625
18	12	13	16	02	29	-0.730976213579	-0.0817213951726	-0.652367433159	-0.63671875	-0.130859375	0.23046875	2.9375	-7.75	-1.1875
18	12	13	16	02	29	-0.73303280109	-0.0803156411818	-0.650642135744	-0.703125	-0.06787109375	0.2421875	-11.875	-5.9375	2.5625
18	12	13	16	02	29	-0.735068449436	-0.0768391877981	-0.649989952383	-0.79052734375	-0.0361328125	0.255859375	-33.25	-2.375	3.8125
18	12	13	16	02	29	-0.736923914499	-0.0711045519621	-0.650011569439	-0.82958984375	-0.09423828125	0.2548828125	-46.6875	-1.0625	3.125
18	12	13	16	02	29	-0.738742253639	-0.0642066135846	-0.650122478995	-0.85546875	-0.16064453125	0.27490234375	-51.5	-0.625	3.5625
18	12	13	16	02	29	-0.740223690957	-0.0585318700221	-0.65025916915	-0.93359375	-0.17578125	0.30126953125	-44.6875	2.875	5.875
18	12	13	16	02	29	-0.740912692319	-0.0555379365741	-0.650648287711	-1.04443359375	-0.15673828125	0.2890625	-28.125	6.625	7.0625
18	12	13	16	02	29	-0.741195566234	-0.0550525692311	-0.650804374403	-1.09716796875	-0.13671875	0.22265625	-9.625	3.9375	6.1875
18	12	13	16	02	29	-0.74190751763	-0.055539309069	-0.650054044939	-1.06689453125	-0.12646484375	0.17041015625	0.8125	-4.6875	4.375
18	12	13	16	02	29	-0.743393605988	-0.055479867639	-0.648546835569	-1.0458984375	-0.1318359375	0.150390625	-2.25	-12.6875	5.25
18	12	13	16	02	29	-0.745602642561	-0.0545041879345	-0.646665029301	-1.0634765625	-0.11328125	0.16845703125	-12.4375	-16.5	8.5625
18	12	13	16	02	29	-0.74801972992	-0.0529155602024	-0.644935091878	-1.15380859375	-0.07763671875	0.177734375	-21.3125	-17.375	10.125
18	12	13	16	02	29	-0.750788843548	-0.0505367988341	-0.642757280823	-1.244140625	-0.10107421875	0.1689453125	-23.375	-23.6875	7.6875
18	12	13	16	02	29	-0.754362189143	-0.0473002181704	-0.639621014742	-1.26904296875	-0.1015625	0.181640625	-26.125	-31.5	5.25
18	12	13	16	02	29	-0.758226720495	-0.0440666257907	-0.636036436793	-1.23095703125	-0.1279296875	0.15869140625	-24.6875	-36.8125	6.875
18	12	13	16	02	29	-0.762483578445	-0.0406478878767	-0.63187324803	-1.2275390625	-0.15869140625	0.1787109375	-23.75	-40.3125	8.25
18	12	13	16	02	29	-0.766868155223	-0.0379009251408	-0.627470871775	-1.29052734375	-0.1103515625	0.2197265625	-22.875	-40.5	8.3125
18	12	13	16	02	29	-0.770884439595	-0.0355201285603	-0.623433184266	-1.3974609375	-0.0634765625	0.24462890625	-22.75	-38.1875	5.6875
18	12	13	16	02	29	-0.774422310678	-0.0330177689398	-0.619891828321	-1.47509765625	-0.015625	0.279296875	-23.5625	-34.1875	0.75
18	12	13	16	02	29	-0.777001378621	-0.0308823107048	-0.617280020688	-1.3828125	-0.04345703125	0.240234375	-18.5625	-28.4375	-0.4375
18	12	13	16	02	29	-0.779325837549	-0.0286243102679	-0.614781827992	-1.2548828125	-0.11279296875	0.197265625	-14.125	-28.8125	0.5625
18	12	13	16	02	29	-0.781869405659	-0.0273419322251	-0.611836764635	-1.11328125	-0.125	0.1748046875	-7.8125	-30.5625	3.5
18	12	13	16	02	29	-0.784540722456	-0.027160465341	-0.608577527898	-1.00830078125	-0.10009765625	0.15283203125	-1.3125	-31.8125	5.375
18	12	13	16	02	29	-0.787512232059	-0.0267936038033	-0.60502276652	-0.921875	-0.060546875	0.125	-4.4375	-35.3125	5.625
18	12	13	16	02	29	-0.791125019634	-0.0252681498325	-0.600759417394	-0.8388671875	-0.05810546875	0.12158203125	-11.75	-40.5625	5.8125
18	12	13	16	02	29	-0.795268293018	-0.0225824457726	-0.59587140021	-0.74560546875	-0.0703125	0.11962890625	-18.375	-44.9375	5.875
18	12	13	16	02	29	-0.799939936954	-0.0192249240971	-0.590174654028	-0.67138671875	-0.095703125	0.134765625	-19.9375	-48.8125	5.8125
18	12	13	16	02	29	-0.80502415834	-0.0161126897499	-0.583657773026	-0.61767578125	-0.10595703125	0.14501953125	-16.0	-52.8125	4.8125
18	12	13	16	02	29	-0.810404067508	-0.0135494579746	-0.576462299865	-0.59033203125	-0.083984375	0.1591796875	-11.375	-56.25	2.3125
18	12	13	16	02	29	-0.815874151357	-0.0112298656381	-0.568878139198	-0.5791015625	-0.04052734375	0.1796875	-9.5	-57.25	-1.75
18	12	13	16	02	29	-0.821085411453	-0.00860574169441	-0.561387319895	-0.591796875	-0.01708984375	0.20166015625	-9.3125	-55.625	-7.9375
18	12	13	16	02	29	-0.825721923327	-0.00561507997236	-0.554367080315	-0.6044921875	-0.0234375	0.2177734375	-7.4375	-52.3125	-15.0
18	12	13	16	02	29	-0.829611609837	-0.00292954883191	-0.548069760637	-0.63427734375	-0.0341796875	0.24462890625	-2.125	-46.0625	-20.625
18	12	13	16	02	29	-0.8323744577	-0.00170893714735	-0.543014778571	-0.69140625	-0.0517578125	0.27783203125	10.0625	-35.6875	-24.875
18	12	13	16	02	29	-0.833739183022	-0.00341796443991	-0.539489065793	-0.76953125	-0.07421875	0.30810546875	30.5625	-23.0	-27.8125
18	12	13	16	02	29	-0.833539524293	-0.00878887687619	-0.537647336128	-0.82373046875	-0.09375	0.2939453125	55.6875	-10.5625	-28.5
18	12	13	16	02	29	-0.832023546156	-0.0176389968338	-0.53704336727	-0.845703125	-0.11376953125	0.27099609375	77.9375	-0.375	-26.8125
18	12	13	16	02	29	-0.829562990476	-0.0286245616931	-0.537275088667	-0.8515625	-0.11279296875	0.25927734375	89.3125	7.5	-23.4375
18	12	13	16	02	29	-0.826272181867	-0.0393666388908	-0.538804167641	-0.9072265625	-0.083984375	0.2744140625	81.3125	15.5	-19.0
18	12	13	16	02	29	-0.822024003103	-0.047546532404	-0.542543166289	-1.06103515625	-0.04931640625	0.3310546875	56.4375	27.6875	-17.0
18	12	13	16	02	29	-0.816081368269	-0.0524279332393	-0.549730377982	-1.32177734375	-0.03173828125	0.4111328125	28.3125	46.0625	-19.375
18	12	13	16	02	29	-0.807960947987	-0.0553573485288	-0.560531299767	-1.53173828125	-0.04833984375	0.45556640625	11.75	68.125	-22.3125
18	12	13	16	02	29	-0.797572607722	-0.0590184199317	-0.573888523906	-1.5625	-0.15185546875	0.41162109375	17.375	88.375	-19.375
18	12	13	16	02	29	-0.786284278065	-0.064633629626	-0.587073544261	-1.49609375	-0.3173828125	0.3583984375	37.5	92.875	-12.0
18	12	13	16	02	29	-0.774817519084	-0.0735451051986	-0.59891959943	-1.470703125	-0.396484375	0.34228515625	60.9375	93.3125	-3.3125
18	12	13	16	02	29	-0.7629855306	-0.0882551057713	-0.609851325634	-1.48046875	-0.30615234375	0.328125	82.4375	101.4375	5.4375
18	12	13	16	02	29	-0.750580806822	-0.10277915748	-0.620886204895	-1.4248046875	-0.1650390625	0.234375	79.125	103.5625	5.0
18	12	13	16	02	29	-0.739032449371	-0.111810012986	-0.63198290637	-1.275390625	-0.107421875	0.16162109375	44.9375	92.625	-3.25
18	12	13	16	02	29	-0.72986013998	-0.113760289399	-0.642037684805	-1.0869140625	-0.1669921875	0.16552734375	4.9375	77.625	-8.25
18	12	13	16	02	29	-0.722620290209	-0.111505681606	-0.650602389664	-0.9833984375	-0.2822265625	0.20849609375	-14.0	65.5	-9.9375
18	12	13	16	02	30	-0.717001740398	-0.112054408867	-0.656275086356	-0.84912109375	-0.20751953125	0.22412109375	4.0	52.8125	-5.9375
18	12	13	16	02	30	-0.712509126766	-0.114560530319	-0.660813458583	-0.759765625	-0.06787109375	0.203125	5.5625	47.5625	1.375
18	12	13	16	02	30	-0.709340993723	-0.112181100195	-0.66576248146	-0.712890625	-0.0400390625	0.2265625	-29.125	43.125	-3.75
18	12	13	16	02	30	-0.707299427544	-0.105890457053	-0.670436121457	-0.69921875	-0.0869140625	0.2734375	-50.3125	37.875	-9.0
18	12	13	16	02	30	-0.705480279575	-0.0999720302746	-0.674353456962	-0.67822265625	-0.15771484375	0.30322265625	-43.5625	36.125	-6.9375
18	12	13	16	02	30	-0.703529159402	-0.0963713492405	-0.677345936587	-0.67822265625	-0.19091796875	0.30078125	-24.375	34.25	-4.3125
18	12	13	16	02	30	-0.701709006026	-0.0958845654055	-0.679126390367	-0.65966796875	-0.18310546875	0.25341796875	-2.0625	28.125	-0.875
18	12	13	16	02	30	-0.70048266431	-0.0974096307605	-0.679548138401	-0.623046875	-0.17919921875	0.2275390625	13.5625	20.1875	2.5
18	12	13	16	02	30	-0.699918082169	-0.0999098273901	-0.679045045536	-0.6005859375	-0.16650390625	0.203125	19.4375	13.125	5.1875
18	12	13	16	02	30	-0.700173870879	-0.10216972279	-0.678140854196	-0.62255859375	-0.11181640625	0.18603515625	12.8125	7.375	7.75
18	12	13	16	02	30	-0.701570176596	-0.102595864885	-0.677096088661	-0.654296875	-0.06005859375	0.193359375	-5.625	2.3125	8.6875
18	12	13	16	02	30	-0.703973585018	-0.100096816319	-0.676202821953	-0.6767578125	-0.05615234375	0.20166015625	-28.3125	-2.0625	8.875
18	12	13	16	02	30	-0.707116118304	-0.0951488027305	-0.6753184748	-0.67626953125	-0.09912109375	0.21142578125	-45.375	-6.4375	10.25
18	12	13	16	02	30	-0.710882429263	-0.0892264862279	-0.673897989691	-0.68603515625	-0.14453125	0.21923828125	-50.1875	-11.6875	11.8125
18	12	13	16	02	30	-0.715007352783	-0.0839210507961	-0.671673573826	-0.7197265625	-0.1611328125	0.21630859375	-43.6875	-16.75	12.5
18	12	13	16	02	30	-0.719230268724	-0.0803213708113	-0.668571653394	-0.7646484375	-0.15576171875	0.20458984375	-28.9375	-21.8125	12.0625
18	12	13	16	02	30	-0.723725141548	-0.0784269528495	-0.664462440212	-0.9033203125	-0.13623046875	0.22509765625	-14.5	-26.125	10.0625
18	12	13	16	02	30	-0.727930587551	-0.0784873594023	-0.66000179205	-1.23974609375	-0.06787109375	0.2861328125	-1.375	-24.25	4.0625
18	12	13	16	02	30	-0.730249107888	-0.0819050817205	-0.655973038996	-1.5244140625	-0.0537109375	0.27685546875	30.75	-18.375	-7.875
18	12	13	16	02	30	-0.730692975065	-0.0898413013111	-0.652142869911	-1.587890625	-0.06640625	0.224609375	67.5	-12.9375	-10.6875
18	12	13	16	02	30	-0.730480265508	-0.100762212244	-0.647722203846	-1.53515625	-0.14306640625	0.1259765625	90.8125	-18.5625	-2.875
18	12	13	16	02	30	-0.731105294797	-0.11193314222	-0.642425438938	-1.56982421875	-0.14697265625	0.11376953125	86.5625	-26.125	6.75
18	12	13	16	02	30	-0.732810413052	-0.121514577529	-0.637295438752	-1.8203125	-0.01416015625	0.20703125	60.4375	-25.4375	11.5
18	12	13	16	02	30	-0.734001672901	-0.128782931134	-0.634881540123	-1.78076171875	0.1796875	0.1484375	25.4375	-15.125	13.1875
18	12	13	16	02	30	-0.736824952805	-0.127798513308	-0.633743916999	-1.62548828125	0.10205078125	0.04150390625	-28.4375	-28.0	11.5625
18	12	13	16	02	30	-0.742690058655	-0.117302185285	-0.632528537094	-1.42236328125	0.0185546875	0.06640625	-90.9375	-42.5625	12.6875
18	12	13	16	02	30	-0.7507517388	-0.103265746041	-0.629420590378	-1.28125	-0.08642578125	0.013671875	-112.625	-52.0	19.4375
18	12	13	16	02	30	-0.759649197716	-0.0902033834839	-0.624099999666	-1.14208984375	-0.158203125	0.01220703125	-101.875	-64.0625	21.5
18	12	13	16	02	30	-0.768153073747	-0.0792199817038	-0.617647314979	-1.02099609375	-0.12255859375	0.05078125	-80.6875	-75.75	19.9375
18	12	13	16	02	30	-0.777196279796	-0.0701271026767	-0.609477151723	-0.9287109375	-0.0556640625	0.08984375	-68.4375	-81.6875	18.625
18	12	13	16	02	30	-0.786419386749	-0.061338881155	-0.600388630768	-0.84033203125	-0.02978515625	0.12841796875	-65.0625	-83.8125	16.0
18	12	13	16	02	30	-0.795571237036	-0.0525498147363	-0.590620856218	-0.755859375	-0.04345703125	0.169921875	-59.6875	-84.3125	12.125
18	12	13	16	02	30	-0.804437082682	-0.0449215244958	-0.580256702964	-0.705078125	-0.05712890625	0.2158203125	-48.375	-82.5	8.625
18	12	13	16	02	30	-0.812762488285	-0.0389383845856	-0.569794292306	-0.66748046875	-0.02392578125	0.24755859375	-36.375	-79.0625	5.0625
18	12	13	16	02	30	-0.82019758791	-0.0341164113135	-0.559960776031	-0.64013671875	0.02880859375	0.25927734375	-29.4375	-72.375	0.25
18	12	13	16	02	30	-0.826556889894	-0.0292343461758	-0.551180334684	-0.6005859375	0.03955078125	0.2392578125	-26.375	-65.5625	-6.9375
18	12	13	16	02	30	-0.832099383786	-0.0238021680854	-0.543116650749	-0.56103515625	0.0068359375	0.21484375	-24.1875	-61.5625	-14.5
18	12	13	16	02	30	-0.836845118306	-0.0183714084028	-0.535761538071	-0.54248046875	-0.02490234375	0.19580078125	-18.875	-57.0625	-19.875
18	12	13	16	02	30	-0.840596871568	-0.0145256701832	-0.529393542727	-0.57373046875	-0.037109375	0.1875	-6.5625	-50.875	-23.5625
18	12	13	16	02	30	-0.84342634313	-0.0132443386974	-0.523853267464	-0.63037109375	-0.0341796875	0.19580078125	11.25	-44.3125	-26.9375
18	12	13	16	02	30	-0.845367972124	-0.0147699840628	-0.519085596918	-0.68798828125	-0.02587890625	0.21044921875	29.9375	-37.3125	-29.875
18	12	13	16	02	30	-0.846157450049	-0.0191642700026	-0.515543276152	-0.74658203125	-0.01318359375	0.2236328125	47.625	-27.8125	-31.875
18	12	13	16	02	30	-0.845803583813	-0.0259392786203	-0.513231515102	-0.7861328125	-0.01513671875	0.23779296875	61.9375	-17.4375	-31.625
18	12	13	16	02	30	-0.844494981879	-0.0338725673876	-0.512177631562	-0.80078125	-0.02734375	0.2431640625	66.5	-7.75	-27.6875
18	12	13	16	02	30	-0.842435965902	-0.0413192167584	-0.512553592816	-0.8369140625	-0.03369140625	0.26220703125	59.125	1.5	-22.875
18	12	13	16	02	30	-0.839581612867	-0.0463857244678	-0.515003609288	-0.9365234375	-0.02294921875	0.31640625	37.9375	12.375	-20.375
18	12	13	16	02	30	-0.835079178288	-0.0485227267022	-0.521054739442	-1.1728515625	-0.0205078125	0.39599609375	12.9375	30.875	-21.5625
18	12	13	16	02	30	-0.828310236781	-0.049801145978	-0.530968100501	-1.38525390625	-0.072265625	0.4326171875	3.25	53.4375	-20.6875
18	12	13	16	02	30	-0.819683263925	-0.0520617888405	-0.543200375944	-1.49609375	-0.16015625	0.42236328125	10.0	70.0	-17.6875
18	12	13	16	02	30	-0.809664917425	-0.0559063066758	-0.556377610979	-1.5517578125	-0.29443359375	0.4228515625	25.1875	82.0625	-13.3125
18	12	13	16	02	30	-0.798297679556	-0.0635952738606	-0.570221347102	-1.6337890625	-0.326171875	0.47802734375	45.125	98.5625	-5.0625
18	12	13	16	02	31	-0.784949969392	-0.0773292598724	-0.585676067668	-1.5751953125	-0.2705078125	0.4296875	64.0	126.25	10.125
18	12	13	16	02	31	-0.77041893995	-0.0916104593888	-0.601845929402	-1.43798828125	-0.3095703125	0.3388671875	63.25	134.625	16.5625
18	12	13	16	02	31	-0.756679334242	-0.10198509175	-0.617220366768	-1.28515625	-0.29443359375	0.30126953125	38.9375	126.625	13.125
18	12	13	16	02	31	-0.744520693019	-0.10765919358	-0.631185589573	-1.142578125	-0.265625	0.25244140625	13.5625	110.875	5.8125
18	12	13	16	02	31	-0.733638372026	-0.108519885646	-0.644100311147	-1.06982421875	-0.20166015625	0.20849609375	-8.1875	99.75	-2.25
18	12	13	16	02	31	-0.724010989638	-0.106865315928	-0.656266557496	-1.00341796875	-0.1474609375	0.1533203125	-27.9375	89.8125	-3.625
18	12	13	16	02	31	-0.715614511492	-0.102718910264	-0.667520333662	-0.90478515625	-0.16943359375	0.13720703125	-43.75	81.4375	-3.125
18	12	13	16	02	31	-0.708182826697	-0.0974109964154	-0.677421459408	-0.82373046875	-0.2216796875	0.162109375	-45.75	73.9375	-4.5
18	12	13	16	02	31	-0.702003410324	-0.0935638348136	-0.684914125426	-0.77734375	-0.2373046875	0.20751953125	-28.875	63.875	-5.75
18	12	13	16	02	31	-0.696877144035	-0.0922822071975	-0.690407624218	-0.73779296875	-0.1845703125	0.2294921875	-10.6875	55.5	-4.125
18	12	13	16	02	31	-0.692909839823	-0.0919159886174	-0.694557736033	-0.7177734375	-0.13427734375	0.23828125	-7.125	47.75	-1.6875
18	12	13	16	02	31	-0.690334444488	-0.0905106516821	-0.697658300322	-0.6953125	-0.12890625	0.25537109375	-14.8125	39.25	-0.5625
18	12	13	16	02	31	-0.689000937173	-0.088558805903	-0.699620669928	-0.65234375	-0.15185546875	0.265625	-17.6875	30.3125	1.8125
18	12	13	16	02	31	-0.688637325207	-0.0866671099702	-0.700721894062	-0.60498046875	-0.16943359375	0.2568359375	-18.75	22.875	6.875
18	12	13	16	02	31	-0.689296962435	-0.0844074463474	-0.701076164998	-0.59130859375	-0.1689453125	0.255859375	-24.3125	15.625	10.8125
18	12	13	16	02	31	-0.690938456433	-0.0820264363082	-0.700703508374	-0.6005859375	-0.13720703125	0.25927734375	-28.6875	9.6875	13.6875
18	12	13	16	02	31	-0.693164196383	-0.0789781165906	-0.700122083007	-0.6533203125	-0.103515625	0.2607421875	-37.4375	6.4375	15.0
18	12	13	16	02	31	-0.695933849602	-0.0743965064162	-0.699290541852	-0.7060546875	-0.08544921875	0.255859375	-47.1875	1.875	11.6875
18	12	13	16	02	31	-0.699200135591	-0.068418588687	-0.697979464964	-0.759765625	-0.1142578125	0.24951171875	-52.125	-4.125	7.875
18	12	13	16	02	31	-0.702900405495	-0.0621301218021	-0.695942808359	-0.82666015625	-0.1494140625	0.25	-48.9375	-9.5625	5.8125
18	12	13	16	02	31	-0.706691757378	-0.0574312931767	-0.693203642828	-0.9013671875	-0.171875	0.2509765625	-34.5	-12.75	5.875
18	12	13	16	02	31	-0.710391914244	-0.0554154517297	-0.689702665195	-0.923828125	-0.1943359375	0.2158203125	-10.5625	-18.0	5.625
18	12	13	16	02	31	-0.714746903237	-0.0558443699481	-0.684841175068	-0.91064453125	-0.17822265625	0.1787109375	9.75	-28.3125	5.6875
18	12	13	16	02	31	-0.720123253652	-0.0571875149311	-0.678743173477	-0.9697265625	-0.13525390625	0.17822265625	14.375	-38.0	7.1875
18	12	13	16	02	31	-0.726045129974	-0.0582862389984	-0.672214278878	-1.123046875	-0.08544921875	0.18505859375	8.9375	-43.5625	7.375
18	12	13	16	02	31	-0.732312064851	-0.058528816584	-0.665360957663	-1.291015625	-0.0556640625	0.20166015625	3.25	-48.1875	3.5625
18	12	13	16	02	31	-0.738698955429	-0.0580436839307	-0.658316692825	-1.42529296875	-0.052734375	0.197265625	0.0	-53.3125	0.0
18	12	13	16	02	31	-0.744786971847	-0.0571269856305	-0.651589421572	-1.47021484375	-0.05908203125	0.15966796875	-2.5625	-56.0625	0.4375
18	12	13	16	02	31	-0.75058556411	-0.0552349923174	-0.645364429574	-1.625	-0.08251953125	0.1611328125	-10.875	-56.5	1.25
18	12	13	16	02	31	-0.756260910929	-0.0531598138503	-0.638955328587	-1.7607421875	-0.1005859375	0.13623046875	-6.9375	-62.6875	-3.6875
18	12	13	16	02	31	-0.76205474313	-0.0535867423088	-0.631566753317	-1.71240234375	-0.083984375	0.08837890625	14.125	-71.75	-5.5
18	12	13	16	02	31	-0.768503258694	-0.0557823998131	-0.622883120889	-1.6796875	-0.0478515625	0.07666015625	25.1875	-81.25	-4.125
18	12	13	16	02	31	-0.775461107077	-0.0570030437596	-0.613911795694	-1.60791015625	0.01708984375	0.07275390625	12.1875	-86.0625	-1.1875
18	12	13	16	02	31	-0.782673539772	-0.0558442209054	-0.605314735454	-1.46142578125	0.0400390625	0.06591796875	-10.0625	-86.4375	3.875
18	12	13	16	02	31	-0.790360652012	-0.0520600491248	-0.596462907499	-1.2880859375	-0.029296875	0.09423828125	-26.125	-87.5	9.0
18	12	13	16	02	31	-0.798308811372	-0.0474835057529	-0.587074346834	-1.12744140625	-0.08056640625	0.1171875	-29.125	-88.4375	11.5
18	12	13	16	02	31	-0.806442465464	-0.0435782880755	-0.576893527856	-0.98583984375	-0.0908203125	0.1337890625	-23.0625	-89.8125	12.125
18	12	13	16	02	31	-0.814847414868	-0.0407698354529	-0.565834048629	-0.85107421875	-0.0654296875	0.1630859375	-16.625	-90.9375	13.8125
18	12	13	16	02	31	-0.823306372247	-0.0383273833781	-0.554404379947	-0.740234375	-0.02880859375	0.1806640625	-17.4375	-89.6875	16.125
18	12	13	16	02	31	-0.831528714871	-0.0347284085996	-0.543264613261	-0.6611328125	0.01220703125	0.197265625	-28.1875	-86.125	16.1875
18	12	13	16	02	31	-0.839147739598	-0.0288687817899	-0.532943345855	-0.61962890625	0.03125	0.21337890625	-42.875	-81.0	11.8125
18	12	13	16	02	31	-0.845957138766	-0.0208727610892	-0.523588939721	-0.5966796875	0.02880859375	0.228515625	-54.125	-73.9375	4.5625
18	12	13	16	02	31	-0.851670337613	-0.0115964858927	-0.515494314998	-0.583984375	0.00390625	0.24658203125	-57.8125	-65.1875	-2.25
18	12	13	16	02	31	-0.856326612476	-0.00262433499654	-0.508510678865	-0.56982421875	-0.025390625	0.26513671875	-51.625	-55.4375	-7.625
18	12	13	16	02	31	-0.859908861693	0.0043944522707	-0.502676512521	-0.56787109375	-0.05126953125	0.28759765625	-36.4375	-44.875	-12.0625
18	12	13	16	02	31	-0.86225690959	0.0080561942289	-0.498385470251	-0.57568359375	-0.05712890625	0.28369140625	-12.375	-32.9375	-16.0
18	12	13	16	02	31	-0.863551543161	0.0074459882865	-0.495402351816	-0.56982421875	-0.0712890625	0.25732421875	16.75	-22.8125	-17.5625
18	12	13	16	02	31	-0.864288085351	0.00341784709976	-0.49302444414	-0.560546875	-0.08349609375	0.22802734375	38.9375	-18.0	-16.125
18	12	13	16	02	31	-0.864617079903	-0.00299048753549	-0.491111289757	-0.54931640625	-0.052734375	0.22900390625	51.125	-13.0625	-14.25
18	12	13	16	02	32	-0.864269428982	-0.0105584783005	-0.490206345144	-0.57421875	0.0048828125	0.26318359375	54.0	-4.0625	-14.8125
18	12	13	16	02	32	-0.862685132985	-0.0170889166774	-0.491550481858	-0.65869140625	0.03955078125	0.30517578125	43.4375	9.3125	-15.625
18	12	13	16	02	32	-0.85961414183	-0.0219114936749	-0.495663621542	-0.77880859375	0.03173828125	0.35888671875	30.25	25.75	-16.6875
18	12	13	16	02	32	-0.855139811237	-0.0257561202157	-0.502366411126	-0.8408203125	0.0087890625	0.39306640625	21.375	42.75	-14.5625
18	12	13	16	02	32	-0.84943170361	-0.0287456769938	-0.51113597627	-0.84619140625	-0.07861328125	0.3916015625	17.125	56.8125	-9.875
18	12	13	16	02	32	-0.842662635524	-0.0320415646882	-0.521270483813	-0.87451171875	-0.1474609375	0.38720703125	21.0625	67.5	-7.8125
18	12	13	16	02	32	-0.835124623823	-0.0360709385865	-0.532153153191	-0.9599609375	-0.17333984375	0.4150390625	25.875	74.4375	-7.0
18	12	13	16	02	32	-0.826241795026	-0.0405858172324	-0.544704389171	-1.1357421875	-0.12548828125	0.46630859375	24.5625	87.5	-9.9375
18	12	13	16	02	32	-0.815244199057	-0.0458948673223	-0.559770908351	-1.34228515625	-0.087890625	0.5126953125	26.25	108.625	-12.5625
18	12	13	16	02	32	-0.801502080975	-0.0526115438471	-0.577628365393	-1.4970703125	-0.0947265625	0.4921875	34.125	131.3125	-15.0
18	12	13	16	02	32	-0.785538497298	-0.0606044384909	-0.597194794193	-1.71044921875	-0.20654296875	0.5	41.875	147.9375	-14.5
18	12	13	16	02	32	-0.767263061071	-0.0724477967935	-0.617789889759	-1.8505859375	-0.2568359375	0.46630859375	61.9375	164.125	-6.9375
18	12	13	16	02	32	-0.747790049638	-0.089292918921	-0.637135188392	-1.72607421875	-0.3271484375	0.29833984375	93.0625	165.6875	3.3125
18	12	13	16	02	32	-0.7299450608	-0.106257052747	-0.652617268824	-1.47412109375	-0.40185546875	0.126953125	101.8125	141.75	3.0
18	12	13	16	02	32	-0.715833116928	-0.118400225666	-0.664322915659	-1.21728515625	-0.27587890625	0.0302734375	72.1875	108.3125	0.8125
18	12	13	16	02	32	-0.705177527371	-0.12383635131	-0.674172664648	-1.0517578125	-0.13818359375	0.03955078125	26.5	83.4375	0.0625
18	12	13	16	02	32	-0.698015650389	-0.122673031152	-0.683123998846	-0.958984375	-0.02294921875	-0.00830078125	-28.5625	63.3125	-0.9375
18	12	13	16	02	32	-0.694186944365	-0.114558545329	-0.691074272116	-0.87939453125	-0.0244140625	0.01611328125	-79.875	45.875	-0.875
18	12	13	16	02	32	-0.692828805545	-0.102776929928	-0.697039974289	-0.828125	-0.10595703125	0.0908203125	-99.6875	32.0625	-1.0
18	12	13	16	02	32	-0.692553402684	-0.091490045882	-0.700792999878	-0.7392578125	-0.21484375	0.17578125	-84.75	23.5625	-1.1875
18	12	13	16	02	32	-0.692901357114	-0.0837975480769	-0.701873126646	-0.7294921875	-0.2919921875	0.28515625	-42.5	17.5625	-6.125
18	12	13	16	02	32	-0.693573595003	-0.0830652642379	-0.700043042475	-0.7158203125	-0.283203125	0.357421875	20.625	11.375	-10.5625
18	12	13	16	02	32	-0.694228488023	-0.090264961212	-0.696120451375	-0.7099609375	-0.1640625	0.3486328125	72.75	6.0625	-4.625
18	12	13	16	02	32	-0.695411636018	-0.100460554054	-0.690834150263	-0.67236328125	-0.06640625	0.33203125	87.75	-0.5625	-0.25
18	12	13	16	02	32	-0.697238656547	-0.108821474494	-0.685337261412	-0.6005859375	-0.04638671875	0.31884765625	72.75	-5.5	0.25
18	12	13	16	02	32	-0.699074177991	-0.114010002138	-0.680764220474	-0.564453125	-0.099609375	0.28662109375	50.0	-6.8125	0.875
18	12	13	16	02	32	-0.70096235032	-0.117854444795	-0.676488175094	-0.53759765625	-0.15185546875	0.2685546875	40.6875	-7.875	2.8125
18	12	13	16	02	32	-0.703027904991	-0.121819923462	-0.672328796022	-0.533203125	-0.123046875	0.2607421875	35.375	-7.6875	7.375
18	12	13	16	02	32	-0.705670297146	-0.124569544756	-0.668867046049	-0.59521484375	-0.0361328125	0.2490234375	14.125	-7.1875	12.25
18	12	13	16	02	32	-0.709324208285	-0.123408496743	-0.666357056105	-0.70166015625	0.00439453125	0.251953125	-21.0	-9.25	12.875
18	12	13	16	02	32	-0.713757577563	-0.117789835374	-0.664627620321	-0.8017578125	-0.0361328125	0.26513671875	-52.0	-11.875	10.875
18	12	13	16	02	32	-0.718282961662	-0.109796163483	-0.663171268708	-0.89892578125	-0.14306640625	0.2734375	-63.0625	-13.75	10.625
18	12	13	16	02	32	-0.722580310382	-0.103391422062	-0.660814006294	-0.978515625	-0.22705078125	0.26708984375	-44.9375	-18.25	11.25
18	12	13	16	02	32	-0.726690827317	-0.101005569767	-0.656810840983	-1.09130859375	-0.25439453125	0.23779296875	-9.8125	-26.4375	11.125
18	12	13	16	02	32	-0.730879962054	-0.102964049769	-0.650864627586	-1.29833984375	-0.22119140625	0.25537109375	25.625	-34.875	8.1875
18	12	13	16	02	32	-0.734406413045	-0.109004392396	-0.64395595978	-1.53759765625	-0.13330078125	0.25537109375	55.8125	-38.0625	2.0625
18	12	13	16	02	32	-0.736668412329	-0.118526102464	-0.63675737745	-1.70703125	-0.07275390625	0.197265625	82.4375	-40.8125	-3.3125
18	12	13	16	02	32	-0.739544310878	-0.12994056597	-0.627059358749	-1.68212890625	-0.1044921875	0.0771484375	104.4375	-51.125	-3.25
18	12	13	16	02	32	-0.743823761404	-0.142636918881	-0.614309194923	-1.66357421875	-0.19384765625	0.00634765625	116.9375	-70.6875	2.125
18	12	13	16	02	32	-0.749395817197	-0.155933407683	-0.599138263492	-1.80126953125	-0.1298828125	0.04931640625	118.875	-85.0	9.75
18	12	13	16	02	32	-0.755151146666	-0.169059134912	-0.583101434999	-1.81982421875	0.07666015625	-0.0009765625	115.4375	-90.625	10.8125
18	12	13	16	02	32	-0.762450931865	-0.178283635285	-0.565551579784	-1.6630859375	0.05029296875	-0.064453125	96.5	-108.0	6.1875
18	12	13	16	02	32	-0.862685132985	-0.0170889166774	-0.491550481858	-0.65869140625	0.03955078125	0.30517578125	43.4375	9.3125	-15.625
18	12	13	16	02	32	-0.85961414183	-0.0219114936749	-0.495663621542	-0.77880859375	0.03173828125	0.35888671875	30.25	25.75	-16.6875
18	12	13	16	02	32	-0.855139811237	-0.0257561202157	-0.502366411126	-0.8408203125	0.0087890625	0.39306640625	21.375	42.75	-14.5625
18	12	13	16	02	32	-0.84943170361	-0.0287456769938	-0.51113597627	-0.84619140625	-0.07861328125	0.3916015625	17.125	56.8125	-9.875
18	12	13	16	02	32	-0.842662635524	-0.0320415646882	-0.521270483813	-0.87451171875	-0.1474609375	0.38720703125	21.0625	67.5	-7.8125
18	12	13	16	02	32	-0.835124623823	-0.0360709385865	-0.532153153191	-0.9599609375	-0.17333984375	0.4150390625	25.875	74.4375	-7.0
18	12	13	16	02	32	-0.826241795026	-0.0405858172324	-0.544704389171	-1.1357421875	-0.12548828125	0.46630859375	24.5625	87.5	-9.9375
18	12	13	16	02	32	-0.815244199057	-0.0458948673223	-0.559770908351	-1.34228515625	-0.087890625	0.5126953125	26.25	108.625	-12.5625
18	12	13	16	02	32	-0.801502080975	-0.0526115438471	-0.577628365393	-1.4970703125	-0.0947265625	0.4921875	34.125	131.3125	-15.0
18	12	13	16	02	32	-0.785538497298	-0.0606044384909	-0.597194794193	-1.71044921875	-0.20654296875	0.5	41.875	147.9375	-14.5
18	12	13	16	02	32	-0.767263061071	-0.0724477967935	-0.617789889759	-1.8505859375	-0.2568359375	0.46630859375	61.9375	164.125	-6.9375
18	12	13	16	02	32	-0.747790049638	-0.089292918921	-0.637135188392	-1.72607421875	-0.3271484375	0.29833984375	93.0625	165.6875	3.3125
18	12	13	16	02	32	-0.7299450608	-0.106257052747	-0.652617268824	-1.47412109375	-0.40185546875	0.126953125	101.8125	141.75	3.0
18	12	13	16	02	32	-0.715833116928	-0.118400225666	-0.664322915659	-1.21728515625	-0.27587890625	0.0302734375	72.1875	108.3125	0.8125
18	12	13	16	02	32	-0.705177527371	-0.12383635131	-0.674172664648	-1.0517578125	-0.13818359375	0.03955078125	26.5	83.4375	0.0625
18	12	13	16	02	32	-0.698015650389	-0.122673031152	-0.683123998846	-0.958984375	-0.02294921875	-0.00830078125	-28.5625	63.3125	-0.9375
18	12	13	16	02	32	-0.694186944365	-0.114558545329	-0.691074272116	-0.87939453125	-0.0244140625	0.01611328125	-79.875	45.875	-0.875
18	12	13	16	02	32	-0.692828805545	-0.102776929928	-0.697039974289	-0.828125	-0.10595703125	0.0908203125	-99.6875	32.0625	-1.0
18	12	13	16	02	32	-0.692553402684	-0.091490045882	-0.700792999878	-0.7392578125	-0.21484375	0.17578125	-84.75	23.5625	-1.1875
18	12	13	16	02	32	-0.692901357114	-0.0837975480769	-0.701873126646	-0.7294921875	-0.2919921875	0.28515625	-42.5	17.5625	-6.125
18	12	13	16	02	32	-0.693573595003	-0.0830652642379	-0.700043042475	-0.7158203125	-0.283203125	0.357421875	20.625	11.375	-10.5625
18	12	13	16	02	32	-0.694228488023	-0.090264961212	-0.696120451375	-0.7099609375	-0.1640625	0.3486328125	72.75	6.0625	-4.625
18	12	13	16	02	32	-0.695411636018	-0.100460554054	-0.690834150263	-0.67236328125	-0.06640625	0.33203125	87.75	-0.5625	-0.25
18	12	13	16	02	32	-0.697238656547	-0.108821474494	-0.685337261412	-0.6005859375	-0.04638671875	0.31884765625	72.75	-5.5	0.25
18	12	13	16	02	32	-0.699074177991	-0.114010002138	-0.680764220474	-0.564453125	-0.099609375	0.28662109375	50.0	-6.8125	0.875
18	12	13	16	02	32	-0.70096235032	-0.117854444795	-0.676488175094	-0.53759765625	-0.15185546875	0.2685546875	40.6875	-7.875	2.8125
18	12	13	16	02	32	-0.703027904991	-0.121819923462	-0.672328796022	-0.533203125	-0.123046875	0.2607421875	35.375	-7.6875	7.375
18	12	13	16	02	32	-0.705670297146	-0.124569544756	-0.668867046049	-0.59521484375	-0.0361328125	0.2490234375	14.125	-7.1875	12.25
18	12	13	16	02	32	-0.709324208285	-0.123408496743	-0.666357056105	-0.70166015625	0.00439453125	0.251953125	-21.0	-9.25	12.875
18	12	13	16	02	32	-0.713757577563	-0.117789835374	-0.664627620321	-0.8017578125	-0.0361328125	0.26513671875	-52.0	-11.875	10.875
18	12	13	16	02	32	-0.718282961662	-0.109796163483	-0.663171268708	-0.89892578125	-0.14306640625	0.2734375	-63.0625	-13.75	10.625
18	12	13	16	02	32	-0.722580310382	-0.103391422062	-0.660814006294	-0.978515625	-0.22705078125	0.26708984375	-44.9375	-18.25	11.25
18	12	13	16	02	32	-0.726690827317	-0.101005569767	-0.656810840983	-1.09130859375	-0.25439453125	0.23779296875	-9.8125	-26.4375	11.125
18	12	13	16	02	32	-0.730879962054	-0.102964049769	-0.650864627586	-1.29833984375	-0.22119140625	0.25537109375	25.625	-34.875	8.1875
18	12	13	16	02	32	-0.734406413045	-0.109004392396	-0.64395595978	-1.53759765625	-0.13330078125	0.25537109375	55.8125	-38.0625	2.0625
18	12	13	16	02	32	-0.736668412329	-0.118526102464	-0.63675737745	-1.70703125	-0.07275390625	0.197265625	82.4375	-40.8125	-3.3125
18	12	13	16	02	32	-0.739544310878	-0.12994056597	-0.627059358749	-1.68212890625	-0.1044921875	0.0771484375	104.4375	-51.125	-3.25
18	12	13	16	02	32	-0.743823761404	-0.142636918881	-0.614309194923	-1.66357421875	-0.19384765625	0.00634765625	116.9375	-70.6875	2.125
18	12	13	16	02	32	-0.749395817197	-0.155933407683	-0.599138263492	-1.80126953125	-0.1298828125	0.04931640625	118.875	-85.0	9.75
18	12	13	16	02	32	-0.755151146666	-0.169059134912	-0.583101434999	-1.81982421875	0.07666015625	-0.0009765625	115.4375	-90.625	10.8125
18	12	13	16	02	32	-0.762450931865	-0.178283635285	-0.565551579784	-1.6630859375	0.05029296875	-0.064453125	96.5	-108.0	6.1875

