18	12	12	16	53	47	-0.0639659544375	-0.586558036397	0.0532846166259	-0.6142578125	-0.150390625	0.37939453125	-110.0	-18.3125	11.0
18	12	12	16	53	47	-0.0698253751221	-0.585825131488	0.0366217002389	-0.65185546875	-0.2626953125	0.24609375	-88.9375	3.5625	-5.625
18	12	12	16	53	47	-0.0726926975103	-0.585997135849	0.0256347044117	-0.6923828125	-0.2548828125	0.3046875	-52.25	10.6875	-0.75
18	12	12	16	53	47	-0.0717142688831	-0.58781287116	0.0217278976361	-0.73779296875	-0.1806640625	0.27880859375	-7.6875	16.3125	0.625
18	12	12	16	53	47	-0.0654893002241	-0.590441277137	0.0240473292528	-0.80126953125	-0.109375	0.22607421875	37.4375	13.3125	-7.0625
18	12	12	16	53	47	-0.0569450850356	-0.592582883827	0.0307002977202	-0.837890625	-0.01025390625	0.16064453125	61.9375	3.3125	-9.125
18	12	12	16	53	47	-0.0494996622821	-0.593568699992	0.037780876637	-0.88037109375	0.1064453125	0.11376953125	56.875	-7.875	-10.375
18	12	12	16	53	47	-0.0446769306699	-0.593556216891	0.041564193697	-0.904296875	0.2041015625	0.08056640625	30.25	-15.5625	-15.4375
18	12	12	16	53	47	-0.0439459927269	-0.59308779351	0.0390020685451	-0.9013671875	0.2041015625	0.04833984375	-13.5	-19.0625	-18.3125
18	12	12	16	53	47	-0.0474249152383	-0.591560203977	0.0292972449349	-0.86865234375	0.07568359375	0.06103515625	-58.4375	-22.1875	-15.625
18	12	12	16	53	47	-0.0526753192616	-0.589255541311	0.0164190740224	-0.82763671875	-0.083984375	0.09619140625	-75.6875	-23.375	-8.6875
18	12	12	16	53	47	-0.0570075612909	-0.586738422579	0.00537116209165	-0.798828125	-0.19775390625	0.1083984375	-61.875	-23.75	-0.375
18	12	12	16	53	47	-0.0586548429512	-0.584168056073	-0.000854493029466	-0.77734375	-0.25634765625	0.1357421875	-29.0	-23.8125	7.125
18	12	12	16	53	47	-0.0574342978097	-0.581911365907	-0.000671389241134	-0.75927734375	-0.2451171875	0.1474609375	10.3125	-23.6875	13.75
18	12	12	16	53	47	-0.0537106959944	-0.580624830676	0.00616452306299	-0.869140625	-0.14111328125	0.20703125	48.0	-18.25	19.0
18	12	12	16	53	47	-0.0475462245625	-0.581357880562	0.0174559951539	-1.02587890625	0.03857421875	0.2021484375	73.4375	-9.25	12.125
18	12	12	16	53	47	-0.0399174139885	-0.584051581737	0.0280154327534	-1.1591796875	0.17724609375	0.173828125	72.5625	0.6875	-4.6875
18	12	12	16	53	47	-0.0323491317274	-0.587655547681	0.0339360702649	-1.23779296875	0.23486328125	0.185546875	50.1875	7.6875	-23.0625
18	12	12	16	53	47	-0.0238651430116	-0.592600187978	0.0360723772886	-1.47509765625	0.24462890625	0.24365234375	36.125	17.9375	-40.3125
18	12	12	16	53	47	-0.0128783657953	-0.599973155299	0.0354612821189	-1.75537109375	0.306640625	0.22509765625	31.3125	30.1875	-65.5
18	12	12	16	53	47	-6.10359260381e-05	-0.609260613713	0.0308841785753	-1.79052734375	0.16845703125	0.134765625	22.125	40.25	-81.4375
18	12	12	16	53	47	0.0135504010111	-0.618679570491	0.0249644775385	-1.66552734375	-0.015625	0.162109375	22.125	48.875	-80.3125
18	12	12	16	53	47	0.0289313396206	-0.628554716062	0.0234380472876	-1.51806640625	-0.17333984375	0.18212890625	50.8125	61.3125	-65.0
18	12	12	16	53	47	0.0460210483716	-0.639167663855	0.0285037527712	-1.39501953125	-0.24072265625	0.15380859375	86.6875	73.375	-45.75
18	12	12	16	53	47	0.0631102061509	-0.649229461149	0.039184480028	-1.28955078125	-0.21484375	0.15771484375	108.9375	80.875	-37.125
18	12	12	16	53	47	0.0797734244096	-0.65814601026	0.0504153393744	-1.16455078125	-0.1455078125	0.15869140625	109.9375	76.125	-34.1875
18	12	12	16	53	47	0.0941177252595	-0.665110799062	0.0592660902899	-0.99365234375	-0.0107421875	0.16162109375	90.9375	65.8125	-36.125
18	12	12	16	53	47	0.103518837219	-0.671285478619	0.0637226804581	-0.826171875	0.08154296875	0.15576171875	52.8125	58.5625	-36.9375
18	12	12	16	53	47	0.107484195279	-0.677132119494	0.0631111061435	-0.767578125	0.14453125	0.1572265625	9.875	52.5	-37.5625
18	12	12	16	53	47	0.106448279732	-0.683307621332	0.0573136093283	-0.74267578125	0.19140625	0.14501953125	-31.75	49.3125	-40.3125
18	12	12	16	53	47	0.101195788241	-0.689083503763	0.0466916634525	-0.72607421875	0.19921875	0.12841796875	-67.875	41.3125	-42.0
18	12	12	16	53	47	0.0930164594135	-0.69396138027	0.0322872093371	-0.71142578125	0.16552734375	0.134765625	-94.6875	32.25	-42.1875
18	12	12	16	53	47	0.0849619626755	-0.698677864042	0.0150758655035	-0.7109375	0.11572265625	0.15234375	-104.75	25.6875	-41.125
18	12	12	16	53	47	0.0771486615295	-0.701112875783	-0.000366212000931	-0.72119140625	0.056640625	0.15087890625	-96.375	18.3125	-40.5
18	12	12	16	53	47	0.0724494562207	-0.702094435474	-0.0135499404221	-0.7548828125	-0.00146484375	0.14892578125	-74.0	9.6875	-40.75
18	12	12	16	53	47	0.0722668502078	-0.701183762827	-0.0230106440273	-0.7958984375	-0.044921875	0.14599609375	-40.0	-1.125	-41.625
18	12	12	16	53	47	0.0772692645964	-0.698536124255	-0.0273433100626	-0.8408203125	-0.064453125	0.126953125	2.6875	-12.0625	-41.375
18	12	12	16	53	47	0.0872198592042	-0.694585022914	-0.026062197257	-0.87255859375	-0.064453125	0.09033203125	46.375	-20.625	-40.3125
18	12	12	16	53	47	0.101929391772	-0.689518765775	-0.0192262026396	-0.86572265625	-0.103515625	0.0625	89.0	-26.375	-35.0625
18	12	12	16	53	47	0.120911860028	-0.683295443215	-0.00561529082409	-0.83203125	-0.1337890625	0.0634765625	134.875	-28.4375	-23.4375
18	12	12	16	53	47	0.14361801737	-0.675792047736	0.015930430316	-0.7841796875	-0.14599609375	0.05078125	183.25	-26.25	-7.5
18	12	12	16	53	47	0.168518736564	-0.666872769177	0.0446779120481	-0.74365234375	-0.10986328125	0.0478515625	222.9375	-22.75	10.375
18	12	12	16	53	47	0.193607824032	-0.656203567518	0.0782488116044	-0.74365234375	-0.021484375	0.0615234375	245.375	-21.375	25.75
18	12	12	16	53	47	0.217224919397	-0.64398430024	0.112610277125	-0.765625	0.08349609375	0.07421875	245.125	-22.625	33.125
18	12	12	16	53	48	0.237308793921	-0.631053400295	0.143374062994	-0.79248046875	0.201171875	0.09423828125	217.6875	-27.625	33.5
18	12	12	16	53	48	0.252197330921	-0.6191407853	0.167602582456	-0.89306640625	0.35009765625	0.15673828125	169.1875	-28.75	28.5625
18	12	12	16	53	48	0.258241141993	-0.610232790746	0.185120629559	-1.16455078125	0.5166015625	0.1787109375	98.625	-24.1875	7.6875
18	12	12	16	53	48	0.257573668546	-0.607556468414	0.188785629577	-1.44189453125	0.5078125	0.1884765625	8.0	-16.375	-19.0625
18	12	12	16	53	48	0.251159674518	-0.610595719048	0.179443364054	-1.4990234375	0.21337890625	0.216796875	-71.875	-6.6875	-25.75
18	12	12	16	53	48	0.243232610801	-0.61598582389	0.166142827252	-1.40625	-0.20703125	0.27392578125	-90.5	7.5	-8.3125
18	12	12	16	53	48	0.239752625431	-0.620195118892	0.160832018333	-1.5751953125	-0.4990234375	0.3984375	-34.6875	25.5625	17.9375
18	12	12	16	53	48	0.241094536808	-0.621901831781	0.168888248949	-1.59228515625	-0.44677734375	0.419921875	43.25	40.4375	41.5625
18	12	12	16	53	48	0.242609607191	-0.623338847357	0.18340675965	-1.517578125	-0.24658203125	0.3212890625	70.9375	49.0	50.0625
18	12	12	16	53	48	0.236396203215	-0.624164103816	0.192876840217	-1.49560546875	0.001953125	0.3193359375	16.6875	34.125	54.875
18	12	12	16	53	48	0.219181651238	-0.625928107336	0.191532169753	-1.4345703125	0.09423828125	0.29150390625	-75.4375	14.75	63.8125
18	12	12	16	53	48	0.193972757191	-0.629282292837	0.180056524139	-1.3720703125	-0.04541015625	0.2734375	-150.0	2.875	69.625
18	12	12	16	53	48	0.165289673574	-0.632104822574	0.164679298118	-1.27099609375	-0.15576171875	0.2216796875	-178.9375	-4.75	74.25
18	12	12	16	53	48	0.13531501097	-0.632751790135	0.149597244875	-1.13525390625	-0.1943359375	0.19970703125	-180.75	-14.0	84.4375
18	12	12	16	53	48	0.104431027269	-0.630431373851	0.136962726587	-0.98779296875	-0.1748046875	0.18701171875	-171.6875	-26.6875	99.625
18	12	12	16	53	48	0.0735495490963	-0.625506870654	0.127201045906	-0.8525390625	-0.13720703125	0.15966796875	-157.6875	-36.8125	112.125
18	12	12	16	53	48	0.0432758079261	-0.618862364686	0.118901655628	-0.74267578125	-0.1064453125	0.18212890625	-147.9375	-42.3125	115.375
18	12	12	16	53	48	0.0146484829568	-0.611146916025	0.110473975632	-0.650390625	-0.16650390625	0.21142578125	-141.6875	-45.5625	109.375
18	12	12	16	53	48	-0.0104982219671	-0.603708799283	0.101381085392	-0.509765625	-0.2333984375	0.19873046875	-131.3125	-41.5	91.625
18	12	12	16	53	48	-0.0309441358564	-0.596849515858	0.0917337991957	-0.47998046875	-0.1474609375	0.294921875	-116.75	-36.25	66.4375
18	12	12	16	53	48	-0.0460221704396	-0.589498835684	0.0814238400085	-0.48828125	-0.1240234375	0.31494140625	-96.5	-32.9375	50.8125
18	12	12	16	53	48	-0.05883776788	-0.583006596255	0.0747068753995	-0.47216796875	-0.0810546875	0.29736328125	-72.8125	-28.125	49.375
18	12	12	16	53	48	-0.0693980680478	-0.577218583578	0.0706798265606	-0.4990234375	-0.07470703125	0.32177734375	-51.3125	-23.625	48.0
18	12	12	16	53	48	-0.0751955395418	-0.572572529579	0.0711061717258	-0.46484375	-0.0693359375	0.3203125	-14.0625	-18.5	40.1875
18	12	12	16	53	48	-0.0762323509866	-0.570430386166	0.0772699410321	-0.4931640625	0.0107421875	0.31591796875	28.1875	-6.5	32.3125
18	12	12	16	53	48	-0.0748286593135	-0.571041546931	0.0864252704632	-0.6337890625	0.20166015625	0.29541015625	48.0625	6.5	20.5
18	12	12	16	53	48	-0.0723873644356	-0.574216125304	0.0924678390556	-0.81494140625	0.4013671875	0.2470703125	33.5	17.4375	-4.6875
18	12	12	16	53	48	-0.0703111011807	-0.578662804075	0.0882550801278	-0.9599609375	0.46044921875	0.17138671875	-17.0	19.125	-39.625
18	12	12	16	53	48	-0.0698263554367	-0.582049060703	0.072389910444	-0.9814453125	0.27685546875	0.146484375	-74.4375	12.5625	-60.375
18	12	12	16	53	48	-0.0705577879669	-0.584115943636	0.0514534734049	-0.958984375	0.02099609375	0.15625	-97.1875	7.1875	-57.4375
18	12	12	16	53	48	-0.0709226304213	-0.585630498186	0.0323485319477	-0.88037109375	-0.2041015625	0.13427734375	-83.1875	5.5	-40.9375
18	12	12	16	53	48	-0.0693972199357	-0.587038224574	0.0197144257161	-0.7783203125	-0.39501953125	0.10693359375	-43.3125	3.3125	-17.3125
18	12	12	16	53	48	-0.0655520701457	-0.588259638793	0.0160523225776	-0.7841796875	-0.43603515625	0.119140625	6.8125	-0.625	4.625
18	12	12	16	53	48	-0.0601206603947	-0.589609725292	0.0203860919511	-0.97705078125	-0.25634765625	0.1201171875	45.0	-7.0	13.75
18	12	12	16	53	48	-0.0535285824145	-0.591316883046	0.0269168812369	-1.1865234375	-0.01025390625	0.064453125	54.0	-12.5	1.3125
18	12	12	16	53	48	-0.0479134791452	-0.592784343259	0.0287480874871	-1.38720703125	0.11669921875	0.048828125	25.6875	-18.0	-17.9375
18	12	12	16	53	48	-0.0424192332989	-0.595150998413	0.0244749820904	-1.908203125	0.1728515625	0.1279296875	-3.0	-15.375	-39.25
18	12	12	16	53	48	-0.0332028076746	-0.598810195028	0.0188596830357	-2.0048828125	0.12939453125	0.1005859375	4.125	-9.625	-60.4375
18	12	12	16	53	48	-0.0186765069948	-0.603080279791	0.0164792708778	-1.8408203125	-0.04248046875	0.0869140625	41.0	-2.5625	-65.625
18	12	12	16	53	48	0.00164793998871	-0.606563985473	0.0217894287396	-1.6572265625	-0.154296875	0.181640625	98.0	3.5	-60.5
18	12	12	16	53	48	0.0275883643175	-0.609019245929	0.0416877274975	-1.458984375	-0.21044921875	0.16455078125	182.125	14.875	-45.0625
18	12	12	16	53	48	0.059996433261	-0.612415270947	0.0726915076438	-1.34130859375	-0.07958984375	0.14013671875	255.3125	32.6875	-38.625
18	12	12	16	53	48	0.0952175564566	-0.615923309105	0.106082123796	-1.26513671875	0.06298828125	0.146484375	277.125	45.625	-46.4375
18	12	12	16	53	48	0.128970327173	-0.618666936218	0.135379169745	-1.1435546875	0.19580078125	0.1533203125	254.5	47.875	-57.0625
18	12	12	16	53	48	0.158751778157	-0.621091155141	0.156920731119	-0.990234375	0.29443359375	0.1669921875	206.1875	45.125	-68.9375
18	12	12	16	53	48	0.182683545309	-0.624102656461	0.168584013413	-0.83740234375	0.330078125	0.16796875	141.5625	40.4375	-79.25
18	12	12	16	53	48	0.198790272003	-0.628353039689	0.172240143565	-0.7548828125	0.31396484375	0.15625	73.3125	40.3125	-90.0
18	12	12	16	53	48	0.211850667633	-0.635796140805	0.165342396606	-0.72802734375	0.2939453125	0.13134765625	17.3125	41.6875	-102.0
18	12	12	16	53	48	0.221438693568	-0.644967661227	0.15167451861	-0.72265625	0.31982421875	0.11669921875	-26.25	42.125	-114.5625
18	12	12	16	53	48	0.227543246187	-0.655712739751	0.131594216411	-0.7509765625	0.33349609375	0.107421875	-67.5625	42.3125	-125.625
18	12	12	16	53	49	0.229979998399	-0.667723243759	0.10601784958	-0.79931640625	0.29736328125	0.0859375	-105.0	42.625	-132.4375
18	12	12	16	53	49	0.229860370497	-0.679876438387	0.0776984205106	-0.8583984375	0.18896484375	0.087890625	-126.0625	42.5625	-132.0625
18	12	12	16	53	49	0.229495678666	-0.690745371134	0.0505378781743	-0.9091796875	0.04736328125	0.07470703125	-120.125	39.6875	-124.9375
18	12	12	16	53	49	0.231874012802	-0.698734850898	0.0286867033475	-0.9580078125	-0.07373046875	0.05517578125	-84.8125	32.9375	-111.4375
18	12	12	16	53	49	0.237795207319	-0.703070583447	0.0161134329395	-0.9619140625	-0.15673828125	0.041015625	-30.625	26.0	-92.9375
18	12	12	16	53	49	0.248285686662	-0.704391619903	0.0131222769499	-0.96337890625	-0.1748046875	0.02783203125	28.6875	22.0	-70.6875
18	12	12	16	53	49	0.262200742367	-0.703352270725	0.0189204446308	-0.947265625	-0.158203125	0.0048828125	80.1875	20.75	-48.125
18	12	12	16	53	49	0.279056611467	-0.700205040845	0.0303959301204	-0.89892578125	-0.123046875	0.00927734375	116.125	19.625	-26.8125
18	12	12	16	53	49	0.296209647652	-0.695265628766	0.0466928457559	-0.841796875	-0.08203125	0.048828125	138.625	17.6875	-7.25
18	12	12	16	53	49	0.312867925428	-0.688846548259	0.0659793654677	-0.78564453125	-0.015625	0.0703125	149.625	15.6875	7.1875
18	12	12	16	53	49	0.327644092292	-0.681778038544	0.0861225436335	-0.7431640625	0.0888671875	0.09423828125	146.3125	13.625	17.4375
18	12	12	16	53	49	0.338925297236	-0.675043001518	0.104308181699	-0.70458984375	0.205078125	0.1181640625	124.1875	10.25	22.5
18	12	12	16	53	49	0.342538452693	-0.66890215664	0.12109698684	-0.6572265625	0.30810546875	0.1318359375	82.5625	7.4375	24.3125
18	12	12	16	53	49	0.339540862409	-0.665653899953	0.131348541417	-0.6044921875	0.333984375	0.150390625	26.125	6.0	24.25
18	12	12	16	53	49	0.330821750877	-0.664878474595	0.135502635968	-0.61474609375	0.32958984375	0.19921875	-25.1875	4.4375	24.125
18	12	12	16	53	49	0.316462517071	-0.666860069725	0.135007731487	-0.84423828125	0.400390625	0.21728515625	-70.1875	7.8125	18.5625
18	12	12	16	53	49	0.300599081261	-0.673464012718	0.12323036448	-1.111328125	0.36474609375	0.18310546875	-120.6875	5.9375	4.9375
18	12	12	16	53	49	0.280701324082	-0.681031827377	0.105530025949	-1.4716796875	0.20947265625	0.1875	-161.1875	-1.6875	-0.9375
18	12	12	16	53	49	0.258906091418	-0.687486613327	0.088682355217	-1.6826171875	-0.10888671875	0.16064453125	-163.25	-5.625	15.9375
18	12	12	16	53	49	0.239983982198	-0.690838935527	0.0822122136368	-1.734375	-0.4609375	0.15087890625	-107.0625	-2.8125	53.4375
18	12	12	16	53	49	0.226566780524	-0.689344078457	0.0916765367312	-1.94091796875	-0.5986328125	0.1376953125	-16.75	-4.5	100.875
18	12	12	16	53	49	0.215450635894	-0.683216549064	0.111692539288	-1.93359375	-0.44580078125	0.0517578125	38.75	-19.5	137.4375
18	12	12	16	53	49	0.199828420793	-0.67449721386	0.131957558263	-1.84521484375	-0.3310546875	0.08251953125	23.6875	-37.625	161.5625
18	12	12	16	53	49	0.17706295728	-0.663818243148	0.147582981972	-1.69580078125	-0.2431640625	0.14013671875	-23.125	-58.25	177.875
18	12	12	16	53	49	0.146301955437	-0.651858524851	0.156922122415	-1.4970703125	-0.16357421875	0.1591796875	-79.875	-73.625	191.25
18	12	12	16	53	49	0.107603973323	-0.638055551398	0.159910612652	-1.3447265625	-0.0234375	0.16943359375	-136.625	-88.0	203.0625
18	12	12	16	53	49	0.0601180536119	-0.621870911931	0.155452469593	-1.212890625	0.013671875	0.1728515625	-200.75	-101.25	216.9375
18	12	12	16	53	49	0.00811775927711	-0.603888047276	0.14282373465	-1.1015625	-0.0185546875	0.13525390625	-251.125	-106.6875	210.4375
18	12	12	16	53	49	-0.0445544118582	-0.582014892438	0.120968279867	-0.984375	-0.06640625	0.10205078125	-294.8125	-124.3125	185.5625
18	12	12	16	53	49	-0.0942385141825	-0.555543365342	0.0925905608904	-0.82666015625	-0.06884765625	0.26123046875	-314.5	-141.625	152.5625
18	12	12	16	53	49	-0.136355114964	-0.526438167666	0.0657971414196	-0.6357421875	-0.44384765625	0.2451171875	-280.375	-150.6875	129.5
18	12	12	16	53	49	-0.165586786801	-0.500666572846	0.0507807617466	-0.427734375	-0.43505859375	0.31787109375	-180.0	-134.5	104.1875
18	12	12	16	53	49	-0.186037957214	-0.479865623234	0.0534065658013	-0.33740234375	-0.3671875	0.38525390625	-63.0	-117.1875	112.3125
18	12	12	16	53	49	-0.197271709284	-0.465834679845	0.07208474278	-0.26123046875	-0.20166015625	0.31689453125	47.9375	-94.0	110.75
18	12	12	16	53	49	-0.20745632212	-0.456782322668	0.0968617779361	-0.29541015625	0.0322265625	0.29296875	86.125	-67.5625	121.3125
18	12	12	16	53	49	-0.217902704914	-0.450576405512	0.120365303667	-0.33203125	0.2421875	0.25439453125	81.875	-47.0	118.5625
18	12	12	16	53	49	-0.228826090255	-0.44544486708	0.136416727586	-0.365234375	0.37353515625	0.22265625	44.0	-31.9375	100.1875
18	12	12	16	53	49	-0.239507038462	-0.441354585913	0.142703225261	-0.3994140625	0.41162109375	0.17626953125	-11.1875	-22.875	66.5
18	12	12	16	53	49	-0.248787278183	-0.436659516222	0.137089358881	-0.44384765625	0.3857421875	0.154296875	-68.5	-20.1875	30.0
18	12	12	16	53	49	-0.257016000181	-0.429133103129	0.121397488568	-0.4990234375	0.328125	0.13232421875	-113.3125	-20.8125	1.5
18	12	12	16	53	49	-0.264406790394	-0.421146549797	0.099915493046	-0.54443359375	0.22607421875	0.1279296875	-140.375	-18.1875	-16.4375
18	12	12	16	53	49	-0.27033227524	-0.414074092397	0.0764181550237	-0.67529296875	0.17333984375	0.189453125	-144.3125	-10.6875	-27.0
18	12	12	16	53	49	-0.27215550065	-0.411315523409	0.0541991667588	-0.97705078125	0.2470703125	0.2802734375	-121.1875	8.1875	-43.5625
18	12	12	16	53	49	-0.26830405963	-0.41441869083	0.031737513878	-1.22607421875	0.27978515625	0.24365234375	-100.375	36.3125	-71.875
18	12	12	16	53	49	-0.256469803474	-0.427917608795	0.00689697472456	-1.380859375	0.06298828125	0.23095703125	-73.9375	59.5625	-96.9375
18	12	12	16	53	49	-0.239015999848	-0.442692300024	-0.00665289682926	-1.662109375	-0.05322265625	0.3798828125	-0.9375	85.75	-110.5
18	12	12	16	53	49	-0.213069579614	-0.464895728422	-0.00903302715065	-1.86328125	-0.02001953125	0.330078125	85.0625	113.0	-121.0625
18	12	12	16	53	49	-0.1806044325	-0.491825115609	-0.0028686746629	-1.81640625	-0.06103515625	0.173828125	150.5	133.125	-126.9375
18	12	12	16	53	49	-0.144287397213	-0.51989849808	0.0075073391951	-1.6455078125	-0.08740234375	0.20947265625	183.1875	144.4375	-131.9375
18	12	12	16	53	49	-0.105532468365	-0.548109639048	0.0220952883447	-1.50048828125	-0.13671875	0.25927734375	211.625	153.25	-128.875
18	12	12	16	53	50	-0.0650004033006	-0.5752383109	0.0397936741333	-1.3759765625	-0.0927734375	0.21826171875	231.1875	155.625	-126.9375
18	12	12	16	53	50	-0.0242316559113	-0.599565632284	0.0551163357378	-1.31494140625	0.0087890625	0.19873046875	219.0625	149.6875	-137.0
18	12	12	16	53	50	0.013915762595	-0.620350048315	0.0630481700028	-1.29931640625	0.11474609375	0.21240234375	175.5625	136.8125	-151.875
18	12	12	16	53	50	0.0484009612168	-0.638245714305	0.0626832120676	-1.26806640625	0.19873046875	0.20654296875	124.4375	124.1875	-166.25
18	12	12	16	53	50	0.0785506516019	-0.654893932936	0.0540760507531	-1.23486328125	0.22119140625	0.17333984375	73.3125	118.5625	-178.5
18	12	12	16	53	50	0.103695694995	-0.670695698821	0.0385120562341	-1.1845703125	0.19970703125	0.150390625	24.5	114.6875	-184.0
18	12	12	16	53	50	0.125064041877	-0.685685430184	0.0192875730762	-1.111328125	0.142578125	0.1337890625	-4.3125	112.0625	-182.1875
18	12	12	16	53	50	0.144221238369	-0.699500470988	-0.00073239731715	-1.03759765625	0.119140625	0.14306640625	-15.6875	108.625	-176.625
18	12	12	16	53	50	0.162111687702	-0.711680074775	-0.0204470690437	-0.97119140625	0.07861328125	0.150390625	-18.375	102.4375	-170.3125
18	12	12	16	53	50	0.180304014712	-0.721887468516	-0.0382093138827	-0.90576171875	-0.0078125	0.1513671875	-7.3125	94.8125	-162.5625
18	12	12	16	53	50	0.201051336721	-0.728948425761	-0.0515140644179	-0.8583984375	-0.1005859375	0.14697265625	23.375	82.0625	-151.625
18	12	12	16	53	50	0.225522443277	-0.732108716404	-0.0582269041642	-0.82275390625	-0.119140625	0.13134765625	68.6875	65.375	-136.6875
18	12	12	16	53	50	0.252568949794	-0.731278054008	-0.0586560562476	-0.83837890625	-0.05859375	0.08642578125	109.125	46.8125	-118.5625
18	12	12	16	53	50	0.279910847532	-0.72724329445	-0.0545050996176	-0.92041015625	0.01220703125	0.04833984375	132.9375	29.875	-100.25
18	12	12	16	53	50	0.306211921059	-0.72076072868	-0.0476682300871	-0.9765625	0.0517578125	0.02099609375	142.9375	15.125	-83.5
18	12	12	16	53	50	0.33068862008	-0.712341617747	-0.0382690595774	-0.9326171875	0.04931640625	0.01123046875	148.4375	3.125	-63.5625
18	12	12	16	53	50	0.352911341475	-0.702648800252	-0.0255741701968	-0.8115234375	0.033203125	0.02490234375	153.8125	-3.0625	-38.125
18	12	12	16	53	50	0.373221813586	-0.691696290003	-0.00872783636022	-0.69775390625	0.0224609375	0.0458984375	163.125	-4.875	-10.4375
18	12	12	16	53	50	0.39197611068	-0.679335738378	0.0120241815328	-0.66796875	0.04931640625	0.06298828125	173.625	-6.4375	12.9375
18	12	12	16	53	50	0.408870165405	-0.665703372752	0.0343624276941	-0.6484375	0.14453125	0.0654296875	175.125	-11.25	26.75
18	12	12	16	53	50	0.422240672982	-0.652220848727	0.0556639915814	-0.68798828125	0.24072265625	0.0859375	156.625	-15.6875	35.5625
18	12	12	16	53	50	0.430105283209	-0.640671939526	0.0736678128044	-0.86474609375	0.3232421875	0.1142578125	118.5625	-18.5625	42.5
18	12	12	16	53	50	0.427802151506	-0.632029002546	0.0927138633383	-1.05078125	0.3544921875	0.13818359375	70.0	-15.875	47.5
18	12	12	16	53	50	0.419312056881	-0.627869451111	0.106689588854	-1.189453125	0.2705078125	0.19921875	17.6875	-6.75	52.625
18	12	12	16	53	50	0.406503375951	-0.627272551749	0.117129125893	-1.3212890625	0.04736328125	0.26953125	-17.625	5.75	65.6875
18	12	12	16	53	50	0.391961108553	-0.62718660098	0.12902612636	-1.5146484375	-0.24365234375	0.369140625	-17.4375	17.875	94.1875
18	12	12	16	53	50	0.379639376888	-0.625062195934	0.146667752839	-1.6494140625	-0.39599609375	0.44140625	22.125	23.0625	122.5625
18	12	12	16	53	50	0.367498772165	-0.62037161938	0.17071816405	-1.81005859375	-0.1875	0.41357421875	53.125	26.6875	144.1875
18	12	12	16	53	50	0.34930445817	-0.616211394318	0.19116225109	-1.876953125	0.00830078125	0.30615234375	13.8125	16.3125	157.9375
18	12	12	16	53	50	0.31970727098	-0.615549413484	0.200381628604	-1.82861328125	0.06982421875	0.25244140625	-81.75	3.25	168.375
18	12	12	16	53	50	0.279980025519	-0.616175791937	0.198738819073	-1.72900390625	-0.00341796875	0.216796875	-167.5	-15.6875	180.125
18	12	12	16	53	50	0.23291370592	-0.615732040178	0.189639120622	-1.57275390625	-0.0556640625	0.17919921875	-225.0	-33.875	192.1875
18	12	12	16	53	50	0.179022159252	-0.612691590374	0.174322293496	-1.42041015625	-0.06396484375	0.13134765625	-273.125	-52.0625	205.375
18	12	12	16	53	50	0.118774128892	-0.605955576383	0.153686154445	-1.30810546875	-0.08642578125	0.11181640625	-314.9375	-69.0	219.4375
18	12	12	16	53	50	0.0546257473189	-0.594291510217	0.129209728574	-1.2060546875	-0.1533203125	0.09912109375	-341.25	-86.5625	229.0
18	12	12	16	53	50	-0.00927725019533	-0.576959513793	0.103209408423	-1.0791015625	-0.2470703125	0.12060546875	-342.9375	-105.125	228.125
18	12	12	16	53	50	-0.0681172714366	-0.554154755711	0.0792260020831	-0.91455078125	-0.35498046875	0.16455078125	-314.0625	-124.625	216.1875
18	12	12	16	53	50	-0.119206201603	-0.527363841195	0.0618309688808	-0.73193359375	-0.40185546875	0.2421875	-257.5625	-140.1875	202.6875
18	12	12	16	53	50	-0.161681063425	-0.499630496489	0.054992313381	-0.603515625	-0.37255859375	0.30126953125	-179.875	-145.1875	194.9375
18	12	12	16	53	50	-0.196656822168	-0.473758613801	0.0598149241852	-0.52734375	-0.2509765625	0.30859375	-99.375	-140.5	191.8125
18	12	12	16	53	50	-0.225767862978	-0.450803307908	0.0727535259987	-0.50244140625	-0.07470703125	0.2890625	-40.4375	-130.0	185.0625
18	12	12	16	53	50	-0.250433994601	-0.430797741627	0.0887475086888	-0.5302734375	0.1005859375	0.26513671875	-10.9375	-116.375	170.875
18	12	12	16	53	50	-0.270936425717	-0.413576305622	0.102966828156	-0.591796875	0.2431640625	0.23193359375	-6.5	-100.5	145.4375
18	12	12	16	53	50	-0.287361125936	-0.398325978729	0.111880404384	-0.64208984375	0.29833984375	0.17431640625	-20.875	-87.0625	111.6875
18	12	12	16	53	50	-0.299316953736	-0.387146704231	0.114258021492	-0.6630859375	0.24072265625	0.1513671875	-41.125	-78.125	80.3125
18	12	12	16	53	50	-0.307985412591	-0.377077661313	0.112366457507	-0.66943359375	0.14404296875	0.15087890625	-49.5	-70.5	56.9375
18	12	12	16	53	50	-0.313720014763	-0.368895674946	0.109069584899	-0.67333984375	0.04541015625	0.15283203125	-42.0	-61.9375	41.4375
18	12	12	16	53	50	-0.317316058422	-0.363213668719	0.106138223812	-0.67431640625	-0.00341796875	0.1650390625	-28.4375	-50.6875	32.25
18	12	12	16	53	50	-0.318841663374	-0.360527891567	0.103696781407	-0.68212890625	-0.02490234375	0.16455078125	-14.875	-37.5	23.0625
18	12	12	16	53	50	-0.317993492202	-0.361389533076	0.101074323049	-0.7490234375	-0.017578125	0.20556640625	-3.3125	-21.0625	11.1875
18	12	12	16	53	51	-0.31415543292	-0.367257283832	0.0969261370658	-0.88671875	0.07275390625	0.2529296875	1.4375	1.625	-8.1875
18	12	12	16	53	51	-0.305785975041	-0.379028124752	0.0880126499021	-1.10302734375	0.15283203125	0.2216796875	-6.4375	27.9375	-41.8125
18	12	12	16	53	51	-0.294555994352	-0.394592727618	0.0742798684472	-1.2353515625	0.26611328125	0.26220703125	-22.375	52.8125	-70.8125
18	12	12	16	53	51	-0.281437262022	-0.410711632216	0.0560311009621	-1.49365234375	0.2568359375	0.3818359375	-34.0	96.6875	-104.875
18	12	12	16	53	51	-0.262087416474	-0.434757491276	0.032043757254	-1.6181640625	0.42236328125	0.4296875	-35.9375	150.375	-150.375
18	12	12	16	53	51	-0.237542833337	-0.465808557048	0.00421131950161	-1.462890625	0.13427734375	0.3701171875	-28.25	202.8125	-179.4375
18	12	12	16	53	51	-0.20636291106	-0.502815043274	-0.0189822139425	-1.416015625	-0.01171875	0.4853515625	22.4375	242.1875	-193.0
18	12	12	16	53	51	-0.169132696817	-0.545301881402	-0.0345467724282	-1.45849609375	0.015625	0.45263671875	81.5	278.3125	-194.3125
18	12	12	16	53	51	-0.125003576898	-0.589982702292	-0.0460828616005	-1.49951171875	-0.02685546875	0.3349609375	123.1875	303.125	-209.6875
18	12	12	16	53	51	-0.0737309234661	-0.632999509327	-0.0548099083382	-1.59228515625	-0.13623046875	0.2275390625	157.9375	308.6875	-230.5
18	12	12	16	53	51	-0.0177006061228	-0.670914008628	-0.0612807191287	-1.66552734375	-0.09423828125	0.14599609375	181.6875	296.4375	-246.5625
18	12	12	16	53	51	0.0397332005886	-0.701953210399	-0.0678088876404	-1.6640625	-0.0322265625	-0.0361328125	185.875	271.125	-258.875
18	12	12	16	53	51	0.093504510297	-0.726063743142	-0.0775745643522	-1.60107421875	-0.07177734375	-0.0830078125	159.5625	242.4375	-261.25
18	12	12	16	53	51	0.143983211523	-0.744330336805	-0.0872200124063	-1.5068359375	-0.2314453125	-0.11669921875	149.4375	217.3125	-249.625
18	12	12	16	53	51	0.192684730185	-0.756823140416	-0.0934432441916	-1.40869140625	-0.2861328125	-0.1435546875	160.3125	189.8125	-230.0
18	12	12	16	53	51	0.238765721673	-0.763293485493	-0.0952743587761	-1.390625	-0.22216796875	-0.1376953125	173.4375	155.9375	-203.3125
18	12	12	16	53	51	0.280394783939	-0.764341288478	-0.0936276879761	-1.376953125	-0.11083984375	-0.142578125	176.5	117.3125	-172.125
18	12	12	16	53	51	0.316643590956	-0.76109205459	-0.091245599167	-1.298828125	0.00341796875	-0.140625	165.3125	77.8125	-146.625
18	12	12	16	53	51	0.346377380838	-0.755499422028	-0.090332779496	-1.12548828125	0.0673828125	-0.13427734375	139.1875	44.5	-125.3125
18	12	12	16	53	51	0.371385933368	-0.74850897072	-0.0894744089265	-0.994140625	0.06005859375	-0.1171875	122.9375	22.6875	-103.875
18	12	12	16	53	51	0.393864462433	-0.740243018811	-0.0869761132755	-0.931640625	0.09033203125	-0.10302734375	121.0625	9.6875	-84.0625
18	12	12	16	53	51	0.415097925026	-0.73089217059	-0.0819087509755	-0.85791015625	0.11962890625	-0.06982421875	126.6875	3.75	-65.9375
18	12	12	16	53	51	0.437010929988	-0.719725263467	-0.0735472305357	-0.7607421875	0.11474609375	-0.01171875	143.6875	1.0625	-50.6875
18	12	12	16	53	51	0.460579691378	-0.706250677038	-0.0609752334596	-0.650390625	0.15234375	0.02734375	169.0625	1.875	-36.5
18	12	12	16	53	51	0.485111358834	-0.690862540342	-0.0442508474024	-0.55615234375	0.23681640625	0.05810546875	190.125	5.9375	-22.375
18	12	12	16	53	51	0.508791514201	-0.674685868279	-0.0253907473497	-0.5107421875	0.35009765625	0.08935546875	194.5625	10.125	-12.875
18	12	12	16	53	51	0.530040125436	-0.659803518651	-0.00708022277183	-0.5185546875	0.4326171875	0.138671875	178.8125	17.625	-12.375
18	12	12	16	53	51	0.547115625822	-0.648311264779	0.00872797127315	-0.6669921875	0.4345703125	0.20556640625	143.9375	26.75	-15.4375
18	12	12	16	53	51	0.559462801286	-0.640763745134	0.0224004852795	-0.7978515625	0.42138671875	0.28369140625	106.625	35.75	-13.875
18	12	12	16	53	51	0.562431267059	-0.637259344478	0.0400995488288	-0.955078125	0.4013671875	0.30029296875	55.4375	48.9375	-8.125
18	12	12	16	53	51	0.555919368824	-0.641004085571	0.0535289071649	-1.15625	0.1142578125	0.28466796875	-10.625	52.25	12.6875
18	12	12	16	53	51	0.542548167677	-0.646736459073	0.0665291374472	-1.1884765625	-0.46923828125	0.35791015625	-41.1875	48.6875	75.5
18	12	12	16	53	51	0.526498678311	-0.648632211269	0.0863052551741	-1.52734375	-0.73876953125	0.37841796875	-11.4375	34.75	150.1875
18	12	12	16	53	51	0.508553244519	-0.643870400436	0.115175224725	-1.8232421875	-0.9130859375	0.20361328125	29.5	15.625	213.8125
18	12	12	16	53	51	0.486701192236	-0.634652495218	0.147585086886	-1.8740234375	-1.083984375	0.1728515625	37.5	-3.875	261.75
18	12	12	16	53	51	0.46461032926	-0.61836143533	0.183109693613	-1.7431640625	-0.86474609375	0.298828125	63.1875	-27.625	289.875
18	12	12	16	53	51	0.438059677458	-0.598585935187	0.217168222432	-1.5791015625	-0.359375	0.32666015625	47.4375	-48.3125	306.9375
18	12	12	16	53	51	0.397160950499	-0.583015429409	0.238528506923	-1.603515625	0.033203125	0.275390625	-65.1875	-66.375	319.75
18	12	12	16	53	51	0.339130171006	-0.570893536613	0.242261995811	-1.73486328125	0.14990234375	0.29248046875	-207.75	-94.4375	338.9375
18	12	12	16	53	51	0.270881034323	-0.556716068964	0.230352641626	-1.6904296875	0.0556640625	0.27587890625	-305.0625	-131.6875	343.625
18	12	12	16	53	51	0.197939060541	-0.536077326158	0.209413788688	-1.392578125	-0.1328125	0.3388671875	-347.1875	-163.9375	346.9375
18	12	12	16	53	51	0.128176923054	-0.508496164745	0.185795501799	-1.03466796875	-0.38037109375	0.4921875	-332.5	-183.5625	330.625
18	12	12	16	53	51	0.0728163351637	-0.476022295005	0.169742018517	-0.7568359375	-0.544921875	0.5732421875	-238.875	-189.3125	284.125
18	12	12	16	53	51	0.0338749520126	-0.443120993894	0.171022730701	-0.51513671875	-0.55859375	0.6318359375	-97.6875	-173.0625	246.0625
18	12	12	16	53	51	0.00317386784065	-0.414983220165	0.188478920999	-0.42724609375	-0.333984375	0.5673828125	11.4375	-132.375	235.875
18	12	12	16	53	51	-0.0245361579944	-0.391846105284	0.209045624704	-0.41845703125	-0.07470703125	0.4853515625	37.4375	-99.5	219.25
18	12	12	16	53	51	-0.0485240668189	-0.373238576852	0.225835279534	-0.435546875	0.16015625	0.39208984375	27.375	-76.0625	184.25
18	12	12	16	53	51	-0.0689725027546	-0.357131073998	0.236520750597	-0.42822265625	0.09814453125	0.39013671875	5.625	-65.0	150.8125
18	12	12	16	53	51	-0.0856364585074	-0.347673034681	0.242504383214	-0.505859375	0.1826171875	0.35302734375	-6.9375	-32.0	113.25
18	12	12	16	53	51	-0.098696863736	-0.345042282436	0.243171493583	-0.53662109375	0.23095703125	0.3095703125	-22.1875	-6.625	82.5
18	12	12	16	53	52	-0.10907174818	-0.345526114406	0.238041308282	-0.51953125	0.17138671875	0.2890625	-44.1875	8.0625	54.0625
18	12	12	16	53	52	-0.118043281308	-0.347782118353	0.228457084766	-0.4921875	0.1083984375	0.28515625	-61.6875	18.1875	36.6875
18	12	12	16	53	52	-0.12603968358	-0.351324173698	0.216251137494	-0.45703125	0.1123046875	0.27490234375	-73.1875	26.0625	22.625
18	12	12	16	53	52	-0.132329798267	-0.356216191276	0.201058282054	-0.47021484375	0.14306640625	0.2294921875	-87.8125	30.5	4.625
18	12	12	16	53	52	-0.13672456015	-0.359634423394	0.18268598595	-0.53466796875	0.1416015625	0.18701171875	-104.3125	28.5	-17.5625
18	12	12	16	53	52	-0.138614684088	-0.362375772535	0.161686613011	-0.64892578125	0.11572265625	0.16796875	-113.625	21.5	-35.125
18	12	12	16	53	52	-0.138492090311	-0.365060022984	0.140689408624	-0.765625	0.0830078125	0.1572265625	-109.0	18.125	-44.625
18	12	12	16	53	52	-0.134460340523	-0.372558292578	0.121398827644	-0.84814453125	-0.015625	0.126953125	-83.1875	15.1875	-47.875
18	12	12	16	53	52	-0.127257323726	-0.380490242737	0.109007952122	-0.94970703125	-0.11181640625	0.1845703125	-33.8125	10.5	-44.0
18	12	12	16	53	52	-0.115052271395	-0.390994615681	0.10815523868	-1.12109375	-0.0283203125	0.31982421875	39.0625	15.6875	-46.25
18	12	12	16	53	52	-0.0952187093606	-0.399735466412	0.120122064116	-1.267578125	0.16845703125	0.35498046875	113.9375	22.0	-75.4375
18	12	12	16	53	52	-0.063783460278	-0.410045249902	0.134708226635	-1.40771484375	0.25244140625	0.28369140625	154.3125	20.875	-131.0625
18	12	12	16	53	52	-0.0240487613521	-0.422562372692	0.15314300059	-1.48046875	0.17529296875	0.47216796875	198.9375	33.8125	-163.875
18	12	12	16	53	52	0.0256353626928	-0.440562018848	0.184452538232	-1.67529296875	0.38818359375	0.47265625	294.875	70.5	-189.625
18	12	12	16	53	52	0.0847179554468	-0.46356835131	0.214663580192	-1.7666015625	0.46435546875	0.21533203125	319.375	104.0	-247.875
18	12	12	16	53	52	0.144171640747	-0.486899736766	0.236827250677	-1.74755859375	0.328125	0.29052734375	287.8125	116.25	-272.875
18	12	12	16	53	52	0.200747512983	-0.508430156019	0.256290303136	-1.53759765625	0.4287109375	0.23876953125	273.3125	123.1875	-271.25
18	12	12	16	53	52	0.250917762321	-0.532719588795	0.263246973702	-1.5537109375	0.55322265625	0.15283203125	196.0	136.6875	-288.6875
18	12	12	16	53	52	0.289749929784	-0.561005183199	0.254591733122	-1.5458984375	0.52099609375	0.107421875	85.4375	145.25	-292.75
18	12	12	16	53	52	0.320622024061	-0.591988009017	0.238162409649	-1.5419921875	0.359375	0.1162109375	24.4375	159.5	-289.375
18	12	12	16	53	52	0.34674371817	-0.622991221856	0.219240175263	-1.546875	0.291015625	0.11376953125	0.875	168.0	-282.875
18	12	12	16	53	52	0.369506149056	-0.651427011707	0.198180783942	-1.46630859375	0.1943359375	0.10498046875	-14.0	158.3125	-274.4375
18	12	12	16	53	52	0.390743846096	-0.676324985721	0.177000492608	-1.38818359375	0.0517578125	0.09619140625	-13.0	147.5625	-263.75
18	12	12	16	53	52	0.411442207941	-0.696906561381	0.159120284246	-1.32470703125	-0.0654296875	0.0693359375	5.9375	140.75	-244.5
18	12	12	16	53	52	0.432496353766	-0.711671956662	0.146667899816	-1.23291015625	-0.1259765625	0.01513671875	37.625	127.0	-213.875
18	12	12	16	53	52	0.454655665396	-0.71991724706	0.139344728702	-1.14794921875	-0.181640625	0.00830078125	70.875	105.375	-182.1875
18	12	12	16	53	52	0.478760183861	-0.721375141898	0.136657834225	-1.072265625	-0.2265625	0.029296875	106.25	79.875	-152.1875
18	12	12	16	53	52	0.506114524733	-0.715591737574	0.138735927969	-1.0029296875	-0.232421875	0.03271484375	150.125	54.25	-125.4375
18	12	12	16	53	52	0.537307858194	-0.70216853353	0.14520679253	-0.98779296875	-0.169921875	0.0078125	197.4375	28.6875	-102.875
18	12	12	16	53	52	0.571294785363	-0.681586417537	0.154603599501	-0.99755859375	-0.0615234375	-0.0400390625	235.8125	3.375	-84.4375
18	12	12	16	53	52	0.606198178553	-0.655331236722	0.165831700678	-0.970703125	0.0859375	-0.09521484375	261.375	-17.1875	-68.4375
18	12	12	16	53	52	0.639026571275	-0.625904249133	0.177670138394	-0.8623046875	0.20849609375	-0.1494140625	263.5	-31.5	-49.125
18	12	12	16	53	52	0.666826038854	-0.596267603988	0.190251419964	-0.744140625	0.310546875	-0.1494140625	244.25	-35.3125	-23.8125
18	12	12	16	53	51	-0.0245361579944	-0.391846105284	0.209045624704	-0.41845703125	-0.07470703125	0.4853515625	37.4375	-99.5	219.25
18	12	12	16	53	51	-0.0485240668189	-0.373238576852	0.225835279534	-0.435546875	0.16015625	0.39208984375	27.375	-76.0625	184.25
18	12	12	16	53	51	-0.0689725027546	-0.357131073998	0.236520750597	-0.42822265625	0.09814453125	0.39013671875	5.625	-65.0	150.8125
18	12	12	16	53	51	-0.0856364585074	-0.347673034681	0.242504383214	-0.505859375	0.1826171875	0.35302734375	-6.9375	-32.0	113.25
18	12	12	16	53	51	-0.098696863736	-0.345042282436	0.243171493583	-0.53662109375	0.23095703125	0.3095703125	-22.1875	-6.625	82.5
18	12	12	16	53	52	-0.10907174818	-0.345526114406	0.238041308282	-0.51953125	0.17138671875	0.2890625	-44.1875	8.0625	54.0625
18	12	12	16	53	52	-0.118043281308	-0.347782118353	0.228457084766	-0.4921875	0.1083984375	0.28515625	-61.6875	18.1875	36.6875
18	12	12	16	53	52	-0.12603968358	-0.351324173698	0.216251137494	-0.45703125	0.1123046875	0.27490234375	-73.1875	26.0625	22.625
18	12	12	16	53	52	-0.132329798267	-0.356216191276	0.201058282054	-0.47021484375	0.14306640625	0.2294921875	-87.8125	30.5	4.625
18	12	12	16	53	52	-0.13672456015	-0.359634423394	0.18268598595	-0.53466796875	0.1416015625	0.18701171875	-104.3125	28.5	-17.5625
18	12	12	16	53	52	-0.138614684088	-0.362375772535	0.161686613011	-0.64892578125	0.11572265625	0.16796875	-113.625	21.5	-35.125
18	12	12	16	53	52	-0.138492090311	-0.365060022984	0.140689408624	-0.765625	0.0830078125	0.1572265625	-109.0	18.125	-44.625
18	12	12	16	53	52	-0.134460340523	-0.372558292578	0.121398827644	-0.84814453125	-0.015625	0.126953125	-83.1875	15.1875	-47.875
18	12	12	16	53	52	-0.127257323726	-0.380490242737	0.109007952122	-0.94970703125	-0.11181640625	0.1845703125	-33.8125	10.5	-44.0
18	12	12	16	53	52	-0.115052271395	-0.390994615681	0.10815523868	-1.12109375	-0.0283203125	0.31982421875	39.0625	15.6875	-46.25
18	12	12	16	53	52	-0.0952187093606	-0.399735466412	0.120122064116	-1.267578125	0.16845703125	0.35498046875	113.9375	22.0	-75.4375
18	12	12	16	53	52	-0.063783460278	-0.410045249902	0.134708226635	-1.40771484375	0.25244140625	0.28369140625	154.3125	20.875	-131.0625
18	12	12	16	53	52	-0.0240487613521	-0.422562372692	0.15314300059	-1.48046875	0.17529296875	0.47216796875	198.9375	33.8125	-163.875
18	12	12	16	53	52	0.0256353626928	-0.440562018848	0.184452538232	-1.67529296875	0.38818359375	0.47265625	294.875	70.5	-189.625
18	12	12	16	53	52	0.0847179554468	-0.46356835131	0.214663580192	-1.7666015625	0.46435546875	0.21533203125	319.375	104.0	-247.875
18	12	12	16	53	52	0.144171640747	-0.486899736766	0.236827250677	-1.74755859375	0.328125	0.29052734375	287.8125	116.25	-272.875
18	12	12	16	53	52	0.200747512983	-0.508430156019	0.256290303136	-1.53759765625	0.4287109375	0.23876953125	273.3125	123.1875	-271.25
18	12	12	16	53	52	0.250917762321	-0.532719588795	0.263246973702	-1.5537109375	0.55322265625	0.15283203125	196.0	136.6875	-288.6875
18	12	12	16	53	52	0.289749929784	-0.561005183199	0.254591733122	-1.5458984375	0.52099609375	0.107421875	85.4375	145.25	-292.75
18	12	12	16	53	52	0.320622024061	-0.591988009017	0.238162409649	-1.5419921875	0.359375	0.1162109375	24.4375	159.5	-289.375
18	12	12	16	53	52	0.34674371817	-0.622991221856	0.219240175263	-1.546875	0.291015625	0.11376953125	0.875	168.0	-282.875
18	12	12	16	53	52	0.369506149056	-0.651427011707	0.198180783942	-1.46630859375	0.1943359375	0.10498046875	-14.0	158.3125	-274.4375
18	12	12	16	53	52	0.390743846096	-0.676324985721	0.177000492608	-1.38818359375	0.0517578125	0.09619140625	-13.0	147.5625	-263.75
18	12	12	16	53	52	0.411442207941	-0.696906561381	0.159120284246	-1.32470703125	-0.0654296875	0.0693359375	5.9375	140.75	-244.5
18	12	12	16	53	52	0.432496353766	-0.711671956662	0.146667899816	-1.23291015625	-0.1259765625	0.01513671875	37.625	127.0	-213.875
18	12	12	16	53	52	0.454655665396	-0.71991724706	0.139344728702	-1.14794921875	-0.181640625	0.00830078125	70.875	105.375	-182.1875
18	12	12	16	53	52	0.478760183861	-0.721375141898	0.136657834225	-1.072265625	-0.2265625	0.029296875	106.25	79.875	-152.1875
18	12	12	16	53	52	0.506114524733	-0.715591737574	0.138735927969	-1.0029296875	-0.232421875	0.03271484375	150.125	54.25	-125.4375
18	12	12	16	53	52	0.537307858194	-0.70216853353	0.14520679253	-0.98779296875	-0.169921875	0.0078125	197.4375	28.6875	-102.875
18	12	12	16	53	52	0.571294785363	-0.681586417537	0.154603599501	-0.99755859375	-0.0615234375	-0.0400390625	235.8125	3.375	-84.4375
18	12	12	16	53	52	0.606198178553	-0.655331236722	0.165831700678	-0.970703125	0.0859375	-0.09521484375	261.375	-17.1875	-68.4375
18	12	12	16	53	52	0.639026571275	-0.625904249133	0.177670138394	-0.8623046875	0.20849609375	-0.1494140625	263.5	-31.5	-49.125
18	12	12	16	53	52	0.666826038854	-0.596267603988	0.190251419964	-0.744140625	0.310546875	-0.1494140625	244.25	-35.3125	-23.8125
