18	12	13	20	18	57	0.53356111301	-0.289485284718	-0.537772473888	0.98193359375	0.34375	0.09375	-28.5	-32.4375	-1.875
18	12	13	20	18	57	0.528070329278	-0.296261370587	-0.538568260003	0.93603515625	0.32763671875	0.06640625	-34.1875	-28.9375	-1.4375
18	12	13	20	18	57	0.523417539436	-0.301990436699	-0.539347107742	0.89794921875	0.2958984375	0.05224609375	-28.125	-23.375	-1.8125
18	12	13	20	18	57	0.520414880948	-0.305706360815	-0.540372153854	0.8515625	0.26416015625	0.0537109375	-15.1875	-15.125	-1.5
18	12	13	20	18	57	0.519029863402	-0.307243218764	-0.541734368245	0.80859375	0.240234375	0.07080078125	-2.125	-6.8125	-2.125
18	12	13	20	18	57	0.518778922705	-0.306750925355	-0.543314114109	0.77197265625	0.2451171875	0.10595703125	7.8125	-0.4375	-3.75
18	12	13	20	18	57	0.519150140823	-0.304495656309	-0.545333471462	0.8154296875	0.26904296875	0.1962890625	17.625	0.5	-6.875
18	12	13	20	18	57	0.517684098177	-0.302236695847	-0.548627960211	1.06787109375	0.28125	0.24560546875	18.3125	-7.4375	-22.3125
18	12	13	20	18	57	0.513100152145	-0.302721155542	-0.550268939187	1.16064453125	0.37744140625	0.2177734375	-11.25	-13.75	-26.1875
18	12	13	20	18	57	0.507191861503	-0.307671982411	-0.548816993818	1.1474609375	0.43115234375	0.15625	-44.75	-17.5	-12.625
18	12	13	20	18	57	0.500046596657	-0.315908847101	-0.544295807273	1.08056640625	0.39404296875	0.11474609375	-73.75	-18.3125	-6.875
18	12	13	20	18	57	0.493402929733	-0.324886664395	-0.538324324622	1.0703125	0.34375	0.2041015625	-77.375	-20.75	-3.875
18	12	13	20	18	57	0.488007763667	-0.331828190478	-0.536100574794	1.3935546875	0.25927734375	0.361328125	-40.8125	-33.0	-15.4375
18	12	13	20	18	57	0.482338197372	-0.338179925552	-0.537389324037	1.556640625	0.22802734375	0.3232421875	-19.375	-43.125	-23.0625
18	12	13	20	18	57	0.479789683075	-0.345514488727	-0.538809734408	1.337890625	0.35546875	0.20458984375	-9.6875	-40.125	13.875
18	12	13	20	18	57	0.480087697706	-0.350636133146	-0.541731299878	1.11328125	0.37841796875	0.16748046875	13.9375	-34.375	28.3125
18	12	13	20	18	57	0.481189082045	-0.354605348387	-0.545213352348	0.9560546875	0.318359375	0.18603515625	23.25	-34.625	27.75
18	12	13	20	18	57	0.48381248252	-0.357412122826	-0.549667619223	0.86962890625	0.2666015625	0.22021484375	39.9375	-35.9375	30.6875
18	12	13	20	18	57	0.489543079461	-0.357468372573	-0.556129726973	0.8115234375	0.208984375	0.2470703125	71.25	-32.0625	34.5625
18	12	13	20	18	57	0.497223297686	-0.354287620359	-0.565578531933	0.80224609375	0.2041015625	0.244140625	101.1875	-23.4375	34.875
18	12	13	20	18	57	0.506151880901	-0.34825788405	-0.576096419128	0.79443359375	0.23876953125	0.2216796875	119.125	-15.3125	31.1875
18	12	13	20	18	57	0.514686649901	-0.341171394871	-0.586216681169	0.79248046875	0.2724609375	0.166015625	117.4375	-10.1875	26.0
18	12	13	20	18	57	0.521293551229	-0.333735293071	-0.594473620065	0.8193359375	0.2919921875	0.1181640625	97.75	-5.5625	16.25
18	12	13	20	18	57	0.524872728584	-0.327862360227	-0.600185861965	0.85302734375	0.326171875	0.05078125	62.9375	0.0625	5.25
18	12	13	20	18	57	0.52532037357	-0.324945470999	-0.60197918491	0.861328125	0.3505859375	0.0	15.625	7.125	-2.1875
18	12	13	20	18	57	0.52354729778	-0.325187689738	-0.599473252366	0.86376953125	0.33447265625	-0.0263671875	-29.3125	15.1875	-7.9375
18	12	13	20	18	57	0.520386031037	-0.327453795041	-0.593506188812	0.87255859375	0.29736328125	-0.0224609375	-62.0	23.0625	-13.1875
18	12	13	20	18	57	0.517137303134	-0.330435661414	-0.584762480977	0.89208984375	0.2470703125	0.0087890625	-80.625	32.75	-17.0625
18	12	13	20	18	57	0.514814925196	-0.333180163206	-0.573956082578	0.88427734375	0.2138671875	0.03662109375	-87.4375	43.75	-17.0
18	12	13	20	18	57	0.514089753303	-0.334649663702	-0.562367682172	0.87060546875	0.19775390625	0.0634765625	-81.25	54.1875	-14.0625
18	12	13	20	18	57	0.514929694061	-0.334212990954	-0.550816698934	0.8642578125	0.1953125	0.10888671875	-69.375	62.125	-12.6875
18	12	13	20	18	57	0.517083194257	-0.332271117745	-0.539665911664	0.8466796875	0.17041015625	0.15869140625	-56.625	66.0	-12.0625
18	12	13	20	18	58	0.520260398399	-0.329099491807	-0.529476649004	0.8388671875	0.16259765625	0.21826171875	-42.4375	65.25	-10.625
18	12	13	20	18	58	0.523859114016	-0.32500871282	-0.520807389013	0.8369140625	0.15966796875	0.2705078125	-28.375	59.8125	-10.125
18	12	13	20	18	58	0.527163233855	-0.321046498794	-0.513613362614	0.8115234375	0.173828125	0.28955078125	-20.4375	51.625	-8.1875
18	12	13	20	18	58	0.5299567145	-0.31755899868	-0.507557300216	0.755859375	0.197265625	0.30224609375	-16.75	42.1875	-5.125
18	12	13	20	18	58	0.531961475603	-0.315051071255	-0.502665754138	0.72509765625	0.19970703125	0.32861328125	-14.3125	29.9375	-3.5625
18	12	13	20	18	58	0.532763378431	-0.314323679565	-0.499011728955	0.73046875	0.1884765625	0.33837890625	-14.125	14.625	-2.6875
18	12	13	20	18	58	0.532521026886	-0.315545410773	-0.496633076879	0.75146484375	0.181640625	0.32861328125	-14.625	0.1875	-0.375
18	12	13	20	18	58	0.53142939844	-0.318113015352	-0.495479942177	0.7529296875	0.1875	0.30615234375	-13.6875	-11.0	2.0
18	12	13	20	18	58	0.529883573993	-0.321396786529	-0.495644379682	0.74560546875	0.185546875	0.287109375	-9.5	-20.0	3.3125
18	12	13	20	18	58	0.52804271432	-0.32499161509	-0.497221913265	0.74853515625	0.17626953125	0.2783203125	-2.875	-27.875	3.625
18	12	13	20	18	58	0.526116338057	-0.328548056584	-0.500298796177	0.76123046875	0.17236328125	0.27099609375	5.8125	-34.8125	3.4375
18	12	13	20	18	58	0.524088283647	-0.332018197629	-0.50461883419	0.76953125	0.1884765625	0.25	12.0625	-39.5	4.25
18	12	13	20	18	58	0.522130760148	-0.335250060256	-0.509558119985	0.75830078125	0.20849609375	0.23291015625	16.5625	-41.625	6.0
18	12	13	20	18	58	0.520133279433	-0.338556594815	-0.51470123744	0.7412109375	0.2197265625	0.203125	17.25	-42.0	7.75
18	12	13	20	18	58	0.518234313504	-0.341786851445	-0.519638080929	0.72119140625	0.22412109375	0.173828125	16.0625	-40.1875	8.9375
18	12	13	20	18	58	0.516524046816	-0.344410397753	-0.524397330763	0.80224609375	0.24267578125	0.23388671875	18.0625	-39.8125	6.75
18	12	13	20	18	58	0.513406403725	-0.346604251873	-0.530312439606	1.0771484375	0.22802734375	0.23046875	20.0	-42.5	-8.125
18	12	13	20	18	58	0.508696655879	-0.349648847214	-0.53536737437	1.255859375	0.3662109375	0.25146484375	5.375	-44.5	-8.3125
18	12	13	20	18	58	0.502783832323	-0.353987160412	-0.539586290552	1.39453125	0.45458984375	0.2197265625	-7.625	-45.8125	-5.9375
18	12	13	20	18	58	0.49480029416	-0.362723343801	-0.539782139084	1.39892578125	0.53271484375	0.1279296875	-48.375	-44.6875	6.375
18	12	13	20	18	58	0.486921986443	-0.372851142539	-0.53690808658	1.30615234375	0.5283203125	0.1123046875	-67.0	-37.875	14.6875
18	12	13	20	18	58	0.482391651381	-0.38114067091	-0.533535907942	1.2939453125	0.40234375	0.181640625	-49.5625	-28.0	17.6875
18	12	13	20	18	58	0.483806073869	-0.384017638045	-0.53342564471	1.27490234375	0.27783203125	0.18701171875	4.3125	-12.0	18.6875
18	12	13	20	18	58	0.491498986626	-0.37944234445	-0.538372353288	1.20849609375	0.28271484375	0.138671875	70.625	9.0625	21.875
18	12	13	20	18	58	0.503647382102	-0.368336397356	-0.546309708821	1.12744140625	0.37353515625	0.07177734375	116.8125	28.8125	20.5
18	12	13	20	18	58	0.516396321188	-0.354843187731	-0.553687203146	1.06982421875	0.45458984375	0.03955078125	120.75	41.9375	15.9375
18	12	13	20	18	58	0.525449997302	-0.342223038085	-0.559019227005	1.00634765625	0.48291015625	0.01513671875	87.0625	48.9375	10.5
18	12	13	20	18	58	0.531228922281	-0.333421829323	-0.559487078418	0.9453125	0.4482421875	0.02001953125	37.125	51.9375	4.375
18	12	13	20	18	58	0.534428409208	-0.328555062445	-0.555302611577	0.88623046875	0.3798828125	0.0400390625	-8.9375	53.6875	-0.625
18	12	13	20	18	58	0.536061036678	-0.326287407729	-0.547596450083	0.8330078125	0.296875	0.083984375	-40.5	55.1875	-5.875
18	12	13	20	18	58	0.536598888466	-0.325303921238	-0.538002638971	0.81494140625	0.22900390625	0.1298828125	-57.0	55.25	-11.75
18	12	13	20	18	58	0.536605267818	-0.324636421693	-0.528060597948	0.82763671875	0.16357421875	0.1845703125	-59.1875	52.3125	-17.5
18	12	13	20	18	58	0.536177738724	-0.323598676234	-0.518844275116	0.83056640625	0.154296875	0.2099609375	-55.1875	48.5	-21.0
18	12	13	20	18	58	0.535504454189	-0.322315822039	-0.510480881564	0.81201171875	0.1728515625	0.2197265625	-50.1875	45.0625	-20.8125
18	12	13	20	18	58	0.534590449168	-0.320973989288	-0.502914179832	0.77685546875	0.20654296875	0.23583984375	-46.4375	40.4375	-18.5
18	12	13	20	18	58	0.533570033622	-0.320007742654	-0.496216469154	0.74560546875	0.2158203125	0.25537109375	-41.875	33.1875	-14.8125
18	12	13	20	18	58	0.532601859685	-0.31982967508	-0.490669991979	0.7314453125	0.20654296875	0.26513671875	-35.8125	23.75	-10.3125
18	12	13	20	18	58	0.53210479448	-0.320129576399	-0.486511506859	0.69775390625	0.19970703125	0.275390625	-25.9375	15.0	-4.25
18	12	13	20	18	58	0.532460546351	-0.320184322118	-0.484243692658	0.658203125	0.19287109375	0.28271484375	-11.0	7.1875	2.0
18	12	13	20	18	58	0.533692184615	-0.31994675569	-0.484192600703	0.62646484375	0.18017578125	0.296875	6.4375	-1.75	6.5
18	12	13	20	18	58	0.535433571282	-0.319380357747	-0.486546954321	0.62109375	0.17529296875	0.3076171875	23.125	-11.75	10.0
18	12	13	20	18	58	0.537339722768	-0.318717404849	-0.491259362626	0.6376953125	0.185546875	0.30615234375	37.8125	-21.6875	12.375
18	12	13	20	18	58	0.538866637435	-0.318351838358	-0.497729915991	0.6552734375	0.20751953125	0.2880859375	45.125	-31.0	13.9375
18	12	13	20	18	58	0.539430794831	-0.319031994182	-0.504884762937	0.6728515625	0.22705078125	0.26708984375	43.375	-39.0625	14.75
18	12	13	20	18	58	0.538737097532	-0.320910803084	-0.512187801347	0.708984375	0.236328125	0.248046875	37.125	-45.9375	13.125
18	12	13	20	18	58	0.536564611014	-0.323977358124	-0.519413586592	0.77001953125	0.23291015625	0.23486328125	28.6875	-52.0	8.5
18	12	13	20	18	58	0.532575683544	-0.32811447109	-0.526472363769	0.84716796875	0.24267578125	0.20947265625	18.1875	-56.9375	2.0
18	12	13	20	18	58	0.526712111442	-0.333421583408	-0.533059511163	0.92431640625	0.26806640625	0.17919921875	4.8125	-60.5	-3.3125
18	12	13	20	18	58	0.519391931435	-0.339954530916	-0.538373234687	0.9482421875	0.30810546875	0.1494140625	-11.0625	-61.125	-4.4375
18	12	13	20	18	58	0.511593171061	-0.347470761495	-0.542110539891	0.9365234375	0.33251953125	0.12255859375	-24.25	-58.9375	-1.625
18	12	13	20	18	58	0.503525716752	-0.355275539056	-0.544357074874	0.93310546875	0.3193359375	0.103515625	-33.875	-53.125	-3.0625
18	12	13	20	18	59	0.495718606676	-0.362603329508	-0.545278260532	0.9189453125	0.29248046875	0.08544921875	-39.625	-44.9375	-5.5
18	12	13	20	18	59	0.489471030693	-0.368812149436	-0.545314670729	0.88818359375	0.24365234375	0.095703125	-35.25	-35.1875	-5.375
18	12	13	20	18	59	0.485028117795	-0.372910758742	-0.545328580911	0.85302734375	0.21484375	0.10595703125	-24.625	-24.625	-6.1875
18	12	13	20	18	59	0.481989861739	-0.374752152853	-0.545587865529	0.83056640625	0.21728515625	0.12353515625	-13.6875	-14.875	-8.5
18	12	13	20	18	59	0.479849848519	-0.374993318405	-0.545705608701	0.82080078125	0.25537109375	0.1552734375	-9.125	-7.75	-9.1875
18	12	13	20	18	59	0.477819932754	-0.374004412814	-0.545992734502	1.0244140625	0.27587890625	0.24072265625	-4.8125	-6.9375	-17.125
18	12	13	20	18	59	0.473196897937	-0.374443824177	-0.545094994902	1.15673828125	0.28076171875	0.205078125	-26.0625	-7.625	-28.25
18	12	13	20	18	59	0.46671040957	-0.377664968539	-0.541596465872	1.267578125	0.3486328125	0.166015625	-54.3125	-7.625	-23.4375
18	12	13	20	18	59	0.45853801896	-0.382979644479	-0.53592737182	1.345703125	0.341796875	0.11865234375	-76.9375	-6.1875	-25.0625
18	12	13	20	18	59	0.448969959728	-0.390010609389	-0.527216219703	1.33642578125	0.33935546875	0.095703125	-101.4375	-5.875	-20.5625
18	12	13	20	18	59	0.440894957641	-0.39786741817	-0.517917304892	1.36962890625	0.32373046875	0.16064453125	-97.1875	-4.875	-12.3125
18	12	13	20	18	59	0.435401700754	-0.403848199311	-0.51059302334	1.45703125	0.2392578125	0.201171875	-70.1875	-3.0625	-13.75
18	12	13	20	18	59	0.432836599615	-0.408484963511	-0.504731906206	1.279296875	0.25439453125	0.15283203125	-48.625	2.875	1.0625
18	12	13	20	18	59	0.434429121512	-0.41013819845	-0.501015546291	1.08056640625	0.29345703125	0.13037109375	-17.0	13.0625	16.25
18	12	13	20	18	59	0.438895495448	-0.408561597348	-0.49999052965	0.9599609375	0.25732421875	0.16162109375	14.5625	18.625	16.3125
18	12	13	20	18	59	0.444818433929	-0.405390235751	-0.50090901307	0.91162109375	0.2431640625	0.20263671875	34.125	16.625	16.5
18	12	13	20	18	59	0.451528483075	-0.401175550048	-0.503285194842	0.8671875	0.2763671875	0.24462890625	47.25	13.0	19.1875
18	12	13	20	18	59	0.458716278614	-0.396585734225	-0.506260182425	0.82666015625	0.291015625	0.2861328125	54.375	9.0	22.0625
18	12	13	20	18	59	0.465072546724	-0.392809305868	-0.509199508834	0.80810546875	0.28125	0.29150390625	50.75	3.3125	21.75
18	12	13	20	18	59	0.46990202963	-0.390252445442	-0.51201560288	0.78662109375	0.25927734375	0.26513671875	41.9375	-2.875	18.1875
18	12	13	20	18	59	0.473318595745	-0.388603417035	-0.515065845196	0.77734375	0.224609375	0.236328125	36.4375	-8.625	12.6875
18	12	13	20	18	59	0.475091870629	-0.387446453591	-0.518609407083	0.80224609375	0.2109375	0.20166015625	31.1875	-13.125	5.0625
18	12	13	20	18	59	0.475326396211	-0.386767253825	-0.52226091068	0.84033203125	0.20849609375	0.17041015625	24.5625	-15.8125	-2.4375
18	12	13	20	18	59	0.473797217822	-0.386703487327	-0.525491954843	0.87255859375	0.2275390625	0.12353515625	12.375	-15.6875	-8.375
18	12	13	20	18	59	0.47087992429	-0.387201845716	-0.52751979075	0.85546875	0.25439453125	0.07763671875	-3.0625	-12.25	-12.0
18	12	13	20	18	59	0.467083999256	-0.388412723281	-0.527689567172	0.8212890625	0.2548828125	0.05029296875	-18.875	-6.875	-13.375
18	12	13	20	18	59	0.463301613953	-0.390000963399	-0.525921486949	0.76513671875	0.234375	0.0458984375	-30.75	0.375	-12.125
18	12	13	20	18	59	0.460663326807	-0.391087784602	-0.522854096549	0.7216796875	0.18994140625	0.07763671875	-31.875	7.625	-10.5
18	12	13	20	18	59	0.459224600602	-0.390987877652	-0.519709924791	0.73291015625	0.14794921875	0.11865234375	-24.9375	12.875	-12.4375
18	12	13	20	18	59	0.458658710558	-0.389569999932	-0.516944681094	0.755859375	0.13916015625	0.16162109375	-16.6875	16.625	-14.875
18	12	13	20	18	59	0.458677969805	-0.387328063391	-0.514830163047	0.78564453125	0.14501953125	0.1865234375	-8.9375	17.6875	-15.8125
18	12	13	20	18	59	0.458918277735	-0.384822415363	-0.512933795197	0.78955078125	0.16259765625	0.21923828125	-6.25	16.1875	-14.8125
18	12	13	20	18	59	0.458777531886	-0.382731661894	-0.511204018501	0.791015625	0.18701171875	0.24462890625	-7.0	11.6875	-13.4375
18	12	13	20	18	59	0.457759930487	-0.381710747369	-0.509517319961	0.82080078125	0.201171875	0.265625	-10.9375	4.5	-13.375
18	12	13	20	18	59	0.455678107299	-0.382315518902	-0.507434742041	0.82275390625	0.21435546875	0.2578125	-19.625	-2.375	-10.75
18	12	13	20	18	59	0.453550254897	-0.384275656686	-0.504758526174	0.77001953125	0.22607421875	0.248046875	-25.125	-6.375	-3.0
18	12	13	20	18	59	0.452433966442	-0.386579892546	-0.502358556291	0.7392578125	0.19189453125	0.265625	-18.1875	-9.8125	2.6875
18	12	13	20	18	59	0.452573759908	-0.388426083352	-0.501462712259	0.7666015625	0.14013671875	0.28857421875	-2.4375	-13.625	3.1875
18	12	13	20	18	59	0.454029179101	-0.389150429621	-0.503100218219	0.8076171875	0.11474609375	0.265625	19.0625	-15.8125	3.125
18	12	13	20	18	59	0.456829524419	-0.38822880492	-0.507303541345	0.8505859375	0.14404296875	0.24169921875	40.5	-15.3125	3.9375
18	12	13	20	18	59	0.459811668346	-0.386268655291	-0.512909113456	0.861328125	0.205078125	0.18359375	48.8125	-13.25	4.1875
18	12	13	20	18	59	0.461831873939	-0.384381808123	-0.517859581125	0.8427734375	0.2841796875	0.12646484375	39.3125	-8.8125	5.0625
18	12	13	20	18	59	0.463057888972	-0.382921470332	-0.521405502239	0.96484375	0.3232421875	0.16845703125	27.4375	-7.875	2.8125
18	12	13	20	18	59	0.461716904604	-0.383106015889	-0.523726736075	1.18408203125	0.310546875	0.1328125	6.875	-8.75	-8.75
18	12	13	20	18	59	0.459144480671	-0.385966993987	-0.52298405621	1.24462890625	0.39697265625	0.09912109375	-20.625	-6.9375	1.0
18	12	13	20	18	59	0.457497228341	-0.389629443134	-0.520360374711	1.25390625	0.41845703125	0.087890625	-28.625	-0.3125	11.8125
18	12	13	20	18	59	0.457438719681	-0.393049413575	-0.516396131718	1.21484375	0.39208984375	0.09521484375	-29.125	7.9375	18.875
18	12	13	20	18	59	0.460787459076	-0.393591830938	-0.513945853362	1.3212890625	0.3857421875	0.197265625	-0.9375	14.6875	22.5
18	12	13	20	18	59	0.467145003342	-0.389816453664	-0.516520533484	1.5859375	0.310546875	0.22265625	47.375	17.6875	9.25
18	12	13	20	19	00	0.473994840351	-0.386532233317	-0.519099422764	1.3857421875	0.44970703125	0.00537109375	44.125	28.3125	28.375
18	12	13	20	19	00	0.483994217283	-0.381824441781	-0.520492141865	1.09326171875	0.50146484375	-0.033203125	51.5	43.125	49.125
18	12	13	20	19	00	0.495000219616	-0.374637650802	-0.521062499983	0.92919921875	0.4140625	0.02734375	56.3125	54.0	41.0
18	12	13	20	19	00	0.504975042558	-0.366738582394	-0.520782213941	0.8837890625	0.30810546875	0.0830078125	50.0	56.0	25.75
18	12	13	20	19	00	0.513779084459	-0.358388071269	-0.520553790847	0.890625	0.271484375	0.1103515625	46.75	55.25	15.125
18	12	13	20	19	00	0.521162705616	-0.349476244567	-0.52043030692	0.8876953125	0.26708984375	0.14306640625	42.5625	53.8125	4.25
18	12	13	20	19	00	0.52600289199	-0.341920190407	-0.518922788083	0.86279296875	0.27734375	0.158203125	21.125	50.125	-4.1875
18	12	13	20	19	00	0.527821027042	-0.337151174073	-0.515125979213	0.82080078125	0.2978515625	0.16259765625	-10.5625	44.875	-8.9375
18	12	13	20	19	00	0.526543250155	-0.335688869347	-0.508904325929	0.76318359375	0.28955078125	0.17333984375	-42.625	36.625	-13.375
18	12	13	20	19	00	0.52337581656	-0.336669504857	-0.501586292768	0.72119140625	0.25830078125	0.1787109375	-60.5	27.5625	-15.0625
18	12	13	20	19	00	0.519644101027	-0.338739107435	-0.494314960561	0.67919921875	0.22216796875	0.189453125	-62.625	20.75	-14.3125
18	12	13	20	19	00	0.516819363737	-0.340009527088	-0.488073270171	0.609375	0.20751953125	0.21826171875	-50.375	17.4375	-11.4375
18	12	13	20	19	00	0.515308545298	-0.339775277943	-0.483998195453	0.560546875	0.19189453125	0.2548828125	-29.125	12.8125	-9.125
18	12	13	20	19	00	0.514953125061	-0.338500655635	-0.482665558017	0.5556640625	0.1796875	0.2744140625	-6.3125	5.75	-6.5
18	12	13	20	19	00	0.515854745306	-0.336111226029	-0.484178383165	0.54296875	0.1826171875	0.27685546875	16.75	-0.75	-2.3125
18	12	13	20	19	00	0.517981010093	-0.332931119365	-0.488014157735	0.52001953125	0.1806640625	0.2705078125	36.8125	-6.5	2.25
18	12	13	20	19	00	0.520632484668	-0.329347349035	-0.493715846246	0.52685546875	0.1875	0.2802734375	50.6875	-13.125	5.25
18	12	13	20	19	00	0.522999525564	-0.326165184341	-0.50084421832	0.5693359375	0.185546875	0.2861328125	58.0	-22.0	5.375
18	12	13	20	19	00	0.524104876417	-0.324277303878	-0.508724134731	0.65673828125	0.18701171875	0.2978515625	55.875	-32.75	2.75
18	12	13	20	19	00	0.523069518775	-0.324278687661	-0.516966023807	0.78955078125	0.1962890625	0.2919921875	46.5625	-44.0625	-2.9375
18	12	13	20	19	00	0.519265242255	-0.326585368043	-0.524636109829	0.90087890625	0.224609375	0.25732421875	27.375	-52.625	-9.375
18	12	13	20	19	00	0.513224398431	-0.331285769376	-0.530679765056	0.935546875	0.26953125	0.19287109375	3.0625	-55.9375	-10.625
18	12	13	20	19	00	0.505102111225	-0.33824020063	-0.534885802656	0.9501953125	0.3076171875	0.115234375	-21.625	-56.0625	-10.625
18	12	13	20	19	00	0.495953959936	-0.346911433458	-0.536540888728	0.93408203125	0.3212890625	0.05859375	-44.0	-51.5	-8.875
18	12	13	20	19	00	0.486935386465	-0.356137876664	-0.536190444985	0.9013671875	0.30322265625	-0.0087890625	-56.1875	-41.625	-6.125
18	12	13	20	19	00	0.479912083062	-0.364191199241	-0.534354608572	0.861328125	0.259765625	-0.0361328125	-54.625	-26.4375	-2.375
18	12	13	20	19	00	0.475824814461	-0.369441713947	-0.532159640494	0.9443359375	0.23486328125	-0.0146484375	-39.375	-8.5	-1.875
18	12	13	20	19	00	0.47447563452	-0.370535319934	-0.531725202976	1.24462890625	0.2060546875	0.03564453125	-11.375	6.875	-13.5625
18	12	13	20	19	00	0.474900381052	-0.370045111209	-0.53141724943	1.38427734375	0.24267578125	0.03076171875	-2.0625	18.0	-11.4375
18	12	13	20	19	00	0.477643452524	-0.369126961521	-0.53055897429	1.43115234375	0.298828125	0.04931640625	5.5	25.5	2.25
18	12	13	20	19	00	0.480211756992	-0.368642477406	-0.52787893826	1.3330078125	0.337890625	0.05908203125	-7.0625	29.9375	8.125
18	12	13	20	19	00	0.481476794743	-0.369240031461	-0.522856090831	1.34033203125	0.37744140625	0.181640625	-26.6875	27.1875	7.875
18	12	13	20	19	00	0.481126430923	-0.371571446335	-0.517197180724	1.455078125	0.29296875	0.28125	-36.5	14.9375	-0.4375
18	12	13	20	19	00	0.480268164968	-0.377000439065	-0.510174303084	1.353515625	0.240234375	0.2744140625	-49.0625	5.375	10.625
18	12	13	20	19	00	0.481356264916	-0.381508559908	-0.50418208501	1.14501953125	0.24853515625	0.263671875	-33.875	5.375	23.0625
18	12	13	20	19	00	0.48302201869	-0.38384198579	-0.501149077011	1.00341796875	0.23046875	0.2607421875	-11.375	1.3125	18.5
18	12	13	20	19	00	0.484364989291	-0.385368011893	-0.500600005313	0.93212890625	0.25048828125	0.2607421875	2.0625	-7.8125	16.3125
18	12	13	20	19	00	0.48685624538	-0.386091589353	-0.502419532652	0.900390625	0.26953125	0.28662109375	21.9375	-16.0	21.25
18	12	13	20	19	00	0.490331968183	-0.386089125059	-0.505651027681	0.87255859375	0.28466796875	0.29833984375	35.5625	-19.4375	25.5
18	12	13	20	19	00	0.494734800546	-0.385851641877	-0.510298256522	0.84765625	0.21923828125	0.28564453125	49.625	-24.75	26.875
18	12	13	20	19	00	0.500298082378	-0.384577066861	-0.516533203753	0.8076171875	0.18505859375	0.2705078125	66.1875	-26.3125	28.25
18	12	13	20	19	00	0.506318651344	-0.381692001628	-0.524628149343	0.771484375	0.1669921875	0.23828125	81.875	-27.0625	24.25
18	12	13	20	19	00	0.511157525754	-0.377859849784	-0.533678973755	0.775390625	0.1962890625	0.19775390625	83.0	-27.25	16.1875
18	12	13	20	19	00	0.513960496009	-0.37449965604	-0.542340929526	0.77587890625	0.21728515625	0.15380859375	70.375	-28.4375	8.75
18	12	13	20	19	00	0.51493936052	-0.37260931563	-0.549240168937	0.7607421875	0.22021484375	0.12451171875	49.75	-27.5	5.125
18	12	13	20	19	00	0.513835928909	-0.372239616393	-0.553934539824	0.74560546875	0.21826171875	0.1103515625	24.125	-25.5625	-0.5
18	12	13	20	19	00	0.510782940005	-0.373154127756	-0.556435424068	0.7490234375	0.2109375	0.10986328125	-0.375	-22.75	-8.25
18	12	13	20	19	00	0.506514216597	-0.374865684822	-0.55711070841	0.75244140625	0.19921875	0.11181640625	-18.5625	-18.5	-13.6875
18	12	13	20	19	00	0.501758929704	-0.376944793803	-0.556079018189	0.7607421875	0.1845703125	0.111328125	-31.75	-12.375	-17.25
18	12	13	20	19	00	0.496927362031	-0.379073427361	-0.553626639767	0.77685546875	0.16455078125	0.1220703125	-40.625	-6.1875	-19.75
18	12	13	20	19	01	0.492588371846	-0.381083111611	-0.550080410786	0.79833984375	0.14599609375	0.14208984375	-44.1875	-0.8125	-20.375
18	12	13	20	19	01	0.488743828925	-0.382853401455	-0.545869731008	0.81298828125	0.13623046875	0.15625	-45.25	3.375	-19.5
18	12	13	20	19	01	0.485344327648	-0.384576786784	-0.541068594643	0.81005859375	0.14697265625	0.1728515625	-45.9375	6.4375	-16.9375
18	12	13	20	19	01	0.482418049787	-0.386227406257	-0.535701318697	0.79833984375	0.15771484375	0.19580078125	-46.4375	8.3125	-13.25
18	12	13	20	19	01	0.480159239245	-0.387996985367	-0.529963477102	0.8037109375	0.1416015625	0.23486328125	-44.5625	8.1875	-10.125
18	12	13	20	19	01	0.478743071868	-0.389817950028	-0.52451784289	0.83642578125	0.10888671875	0.28271484375	-37.6875	4.9375	-7.25
18	12	13	20	19	01	0.478252538902	-0.391341919275	-0.520120997514	0.85498046875	0.09765625	0.31689453125	-25.8125	0.5	-4.0
18	12	13	20	19	01	0.478494808152	-0.392377949185	-0.517311478813	0.859375	0.13134765625	0.32275390625	-12.375	-3.625	0.5
18	12	13	20	19	01	0.478933517693	-0.393180797882	-0.515859066081	0.86279296875	0.166015625	0.306640625	-4.1875	-7.5625	3.125
18	12	13	20	19	01	0.479304957428	-0.394344751043	-0.514827112684	0.8466796875	0.18701171875	0.28955078125	-2.6875	-10.9375	6.3125
18	12	13	20	19	01	0.479595197515	-0.395919323782	-0.514139723068	0.84228515625	0.18505859375	0.25390625	-1.75	-11.875	8.1875
18	12	13	20	19	01	0.480214272111	-0.397330314113	-0.513721851596	0.85107421875	0.1650390625	0.21630859375	0.75	-9.75	7.75
18	12	13	20	19	01	0.48119285705	-0.397576137852	-0.513662999104	0.86865234375	0.19140625	0.20361328125	5.0625	-4.0	6.25
18	12	13	20	19	01	0.483212628278	-0.396176982462	-0.515072801571	1.02880859375	0.171875	0.22607421875	20.5	-1.625	0.4375
18	12	13	20	19	01	0.484296556057	-0.394578101438	-0.516827124977	1.16552734375	0.248046875	0.166015625	16.625	1.9375	-2.9375
18	12	13	20	19	01	0.485220033185	-0.392265302299	-0.518605612827	1.337890625	0.3388671875	0.1845703125	16.3125	6.0	-3.9375
18	12	13	20	19	01	0.485272872863	-0.391526283413	-0.518230658216	1.39208984375	0.3916015625	0.13232421875	-3.5625	11.75	1.125
18	12	13	20	19	01	0.485875009806	-0.392191032912	-0.515719612217	1.35693359375	0.4150390625	0.0908203125	-16.1875	18.75	12.9375
18	12	13	20	19	01	0.48845544751	-0.391960625255	-0.512380792434	1.296875	0.37158203125	0.11083984375	-10.3125	27.625	17.6875
18	12	13	20	19	01	0.493828825583	-0.38854459321	-0.5107353371	1.3583984375	0.32861328125	0.1494140625	16.5625	36.9375	15.875
18	12	13	20	19	01	0.502075729306	-0.38128702662	-0.512207576019	1.40966796875	0.30859375	0.1484375	52.4375	44.875	12.6875
18	12	13	20	19	01	0.512790999447	-0.371746010192	-0.514927120011	1.28369140625	0.35400390625	0.10302734375	72.875	53.75	22.6875
18	12	13	20	19	01	0.525357968683	-0.359596788044	-0.518705550167	1.0947265625	0.36279296875	0.048828125	91.375	63.4375	26.5
18	12	13	20	19	01	0.537879617997	-0.346237498343	-0.521950129707	0.95458984375	0.34765625	0.060546875	91.25	68.4375	22.9375
18	12	13	20	19	01	0.548570589863	-0.333487950936	-0.523058517481	0.86865234375	0.34375	0.1044921875	70.875	69.375	15.0625
18	12	13	20	19	01	0.557247133033	-0.322568575912	-0.522030090781	0.82080078125	0.29248046875	0.14599609375	48.8125	66.625	7.3125
18	12	13	20	19	01	0.564086674504	-0.313476429372	-0.520019310407	0.818359375	0.2265625	0.15625	32.875	61.0	-0.1875
18	12	13	20	19	01	0.568846662384	-0.306212843904	-0.516783765065	0.8134765625	0.20068359375	0.1728515625	14.0625	56.375	-7.6875
18	12	13	20	19	01	0.571638323785	-0.30071129845	-0.512741144364	0.79931640625	0.19482421875	0.1845703125	-2.6875	50.4375	-13.4375
18	12	13	20	19	01	0.572673911023	-0.296987237668	-0.508467052407	0.77880859375	0.1923828125	0.1748046875	-15.0	42.8125	-16.6875
18	12	13	20	19	01	0.572510617667	-0.294678172931	-0.503968035189	0.74609375	0.20166015625	0.1689453125	-24.625	36.4375	-16.75
18	12	13	20	19	01	0.571951373638	-0.293391340634	-0.499320690186	0.69921875	0.2080078125	0.17724609375	-28.6875	31.5625	-13.625
18	12	13	20	19	01	0.571631396997	-0.292346187446	-0.495096507841	0.6611328125	0.1982421875	0.19189453125	-25.5	27.125	-10.1875
18	12	13	20	19	01	0.571816235034	-0.291187454087	-0.491863276565	0.6376953125	0.1806640625	0.21875	-16.3125	22.0	-7.0
18	12	13	20	19	01	0.572798326502	-0.289542382624	-0.490220155403	0.623046875	0.16015625	0.22802734375	-2.0	16.625	-3.3125
18	12	13	20	19	01	0.574834534385	-0.286928981328	-0.490666258433	0.61572265625	0.14453125	0.24072265625	17.125	11.375	0.875
18	12	13	20	19	01	0.5777418715	-0.283255865797	-0.493637888939	0.62841796875	0.13427734375	0.259765625	38.0	4.1875	3.625
18	12	13	20	19	01	0.580366927919	-0.279166929046	-0.499192460138	0.68896484375	0.14794921875	0.25048828125	52.5	-5.125	3.0625
18	12	13	20	19	01	0.581899046662	-0.275507897696	-0.506155736728	0.732421875	0.1875	0.23779296875	54.3125	-14.125	1.625
18	12	13	20	19	01	0.582026337925	-0.273374157673	-0.513240297359	0.74951171875	0.232421875	0.2265625	45.25	-22.0625	2.0
18	12	13	20	19	01	0.580373659153	-0.273860196511	-0.519400550993	0.77001953125	0.2431640625	0.21240234375	26.75	-30.375	1.5
18	12	13	20	19	01	0.576589078386	-0.277216851279	-0.524588030987	0.8330078125	0.23828125	0.20458984375	6.25	-39.25	-2.25
18	12	13	20	19	01	0.570798031836	-0.283201760877	-0.528745011741	0.88232421875	0.24267578125	0.16650390625	-14.25	-45.375	-5.3125
18	12	13	20	19	01	0.563912390171	-0.290775909381	-0.531807409412	0.87744140625	0.263671875	0.12255859375	-29.375	-46.625	-4.25
18	12	13	20	19	01	0.556565567831	-0.299186798279	-0.533677960863	0.84814453125	0.2646484375	0.08349609375	-39.9375	-43.9375	-3.4375
18	12	13	20	19	01	0.549120272303	-0.307609889119	-0.534411148637	0.8203125	0.2421875	0.060546875	-46.75	-38.9375	-5.4375
18	12	13	20	19	01	0.542151927872	-0.315416094027	-0.534339764552	0.798828125	0.2158203125	0.0498046875	-47.1875	-32.5	-7.1875
18	12	13	20	19	01	0.536156077346	-0.321876738978	-0.5339589665	0.7939453125	0.189453125	0.06591796875	-41.3125	-25.6875	-8.75
18	12	13	20	19	01	0.531173155663	-0.32671146757	-0.533370355893	0.8193359375	0.185546875	0.1123046875	-34.3125	-19.625	-10.9375
18	12	13	20	19	02	0.526109633414	-0.329947642487	-0.534166068636	1.0771484375	0.18115234375	0.18359375	-22.3125	-20.625	-22.8125
18	12	13	20	19	02	0.518965753108	-0.333180529956	-0.535139565241	1.29736328125	0.23828125	0.2158203125	-30.6875	-24.0	-35.75
18	12	13	20	19	02	0.510528557977	-0.339030022661	-0.534574971826	1.349609375	0.31591796875	0.1904296875	-50.375	-28.4375	-28.125
18	12	13	20	19	02	0.50078257347	-0.348564201961	-0.530811217729	1.2392578125	0.375	0.119140625	-81.0625	-29.5625	-13.375
18	12	13	20	19	02	0.489915799675	-0.359426204595	-0.524826954205	1.201171875	0.39990234375	0.16748046875	-99.6875	-31.4375	-10.875
18	12	13	20	19	02	0.478430837804	-0.37028191006	-0.519139266024	1.4775390625	0.33349609375	0.314453125	-94.75	-41.75	-22.5
18	12	13	20	19	02	0.467448391243	-0.382124869771	-0.514260366185	1.51171875	0.24658203125	0.345703125	-85.0	-52.875	-19.5625
18	12	13	20	19	02	0.460674209309	-0.393172132534	-0.509927532959	1.31396484375	0.29443359375	0.34765625	-62.0	-50.9375	9.125
18	12	13	20	19	02	0.457687228732	-0.399644749132	-0.511152225715	1.11376953125	0.26708984375	0.298828125	-8.5	-49.0625	11.5625
18	12	13	20	19	02	0.456230563814	-0.402825648318	-0.515922000792	1.0263671875	0.29638671875	0.3291015625	22.8125	-51.0625	8.1875
18	12	13	20	19	02	0.455491609093	-0.405139126512	-0.522323085973	0.97998046875	0.32958984375	0.3369140625	36.5	-56.25	11.1875
18	12	13	20	19	02	0.456466552248	-0.407151807734	-0.529950404221	0.919921875	0.2763671875	0.341796875	53.8125	-60.875	17.3125
18	12	13	20	19	02	0.459872686188	-0.407568652736	-0.539213693759	0.8623046875	0.2021484375	0.35791015625	77.9375	-61.0625	19.75
18	12	13	20	19	02	0.464760817871	-0.405132279583	-0.54996188179	0.802734375	0.21533203125	0.36181640625	97.1875	-55.3125	17.125
18	12	13	20	19	02	0.468979924799	-0.40111088831	-0.561445383683	0.76220703125	0.2958984375	0.28076171875	99.4375	-49.125	13.1875
18	12	13	20	19	02	0.471888135782	-0.396942632582	-0.572161313109	0.75341796875	0.296875	0.22119140625	89.0	-44.125	6.75
18	12	13	20	19	02	0.473313733846	-0.39323796095	-0.580671420221	0.77294921875	0.29150390625	0.17529296875	67.3125	-35.25	-0.0625
18	12	13	20	19	02	0.473686294265	-0.389642224274	-0.586660566999	0.7939453125	0.283203125	0.13330078125	45.25	-22.4375	-7.75
18	12	13	20	19	02	0.473316709152	-0.385794315738	-0.590318402439	0.8154296875	0.2802734375	0.10498046875	25.5	-8.3125	-15.25
18	12	13	20	19	02	0.472335183668	-0.381945158211	-0.591532833713	0.83203125	0.27587890625	0.072265625	5.4375	5.4375	-22.0
18	12	13	20	19	02	0.470742178651	-0.378156169962	-0.59018240212	0.83837890625	0.27783203125	0.05224609375	-16.0	19.625	-27.3125
18	12	13	20	19	02	0.468796133347	-0.374927046889	-0.585552675867	0.8212890625	0.25830078125	0.0546875	-39.5625	33.4375	-30.5
18	12	13	20	19	02	0.466720841443	-0.372424555314	-0.577618156586	0.80517578125	0.23291015625	0.056640625	-62.125	46.875	-30.5
18	12	13	20	19	02	0.465331113366	-0.370299562538	-0.566832377995	0.79248046875	0.19189453125	0.08935546875	-75.4375	58.5625	-28.6875
18	12	13	20	19	02	0.464870056553	-0.367770376893	-0.554279881005	0.810546875	0.150390625	0.13671875	-79.8125	67.5	-28.25
18	12	13	20	19	02	0.465203253343	-0.364740834686	-0.540824721579	0.82470703125	0.12353515625	0.173828125	-78.5625	73.625	-27.3125
18	12	13	20	19	02	0.466531454347	-0.361189579647	-0.526953502987	0.78662109375	0.119140625	0.20947265625	-74.125	77.4375	-22.1875
18	12	13	20	19	02	0.469158001142	-0.357102050824	-0.512979445765	0.72412109375	0.12158203125	0.23779296875	-66.125	80.1875	-14.1875
18	12	13	20	19	02	0.47287274859	-0.352396392664	-0.499482521226	0.65478515625	0.1171875	0.26123046875	-56.1875	80.625	-8.125
18	12	13	20	19	02	0.477337445225	-0.347520702354	-0.486919593147	0.615234375	0.09716796875	0.29345703125	-45.4375	76.5	-3.25
18	12	13	20	19	02	0.482579541195	-0.342511241329	-0.476110155667	0.6083984375	0.08154296875	0.333984375	-29.8125	68.25	1.0625
18	12	13	20	19	02	0.48840152635	-0.33764524416	-0.468015859042	0.654296875	0.068359375	0.3662109375	-10.9375	56.625	4.25
18	12	13	20	19	02	0.4940618834	-0.333362076236	-0.462751970345	0.708984375	0.08447265625	0.36474609375	3.75	43.8125	6.8125
18	12	13	20	19	02	0.499299903504	-0.329753988343	-0.459812427943	0.72509765625	0.13671875	0.32421875	11.9375	33.5	10.3125
18	12	13	20	19	02	0.503948212545	-0.326769859509	-0.458417709147	0.72607421875	0.2021484375	0.310546875	15.5	24.75	14.0625
18	12	13	20	19	02	0.507715077771	-0.324805823284	-0.459256636643	0.892578125	0.2109375	0.37939453125	24.3125	9.3125	11.125
18	12	13	20	19	02	0.507902874137	-0.325358113677	-0.46261761427	1.20849609375	0.2783203125	0.38623046875	18.9375	-10.25	-1.5
18	12	13	20	19	02	0.506530026744	-0.328185558959	-0.467345513288	1.36962890625	0.4169921875	0.3984375	14.0625	-26.375	4.6875
18	12	13	20	19	02	0.505170281738	-0.334949197316	-0.471174891267	1.41162109375	0.52490234375	0.32470703125	-0.375	-37.375	28.1875
18	12	13	20	19	02	0.503284523663	-0.344169467492	-0.474049344566	1.4072265625	0.5615234375	0.21533203125	-13.875	-40.375	39.25
18	12	13	20	19	02	0.501639020406	-0.352593821741	-0.478446073849	1.6181640625	0.5361328125	0.2158203125	-1.0	-41.375	34.125
18	12	13	20	19	02	0.50200276947	-0.358939609392	-0.484852279716	1.61767578125	0.4375	0.1298828125	23.5	-35.1875	32.6875
18	12	13	20	19	02	0.507795495923	-0.361987390182	-0.492109986012	1.3212890625	0.41259765625	0.01318359375	55.5625	-18.0625	55.75
18	12	13	20	19	02	0.520566195725	-0.357359019342	-0.499203999863	1.017578125	0.4189453125	-0.021484375	102.1875	6.8125	60.5
18	12	13	20	19	02	0.536354155575	-0.347153213121	-0.508523307265	0.82470703125	0.35302734375	-0.03564453125	139.125	22.75	56.25
18	12	13	20	19	02	0.551750839491	-0.332942569626	-0.518792271645	0.75048828125	0.31005859375	0.04638671875	152.125	32.0625	39.125
18	12	13	20	19	02	0.564822861417	-0.317812042295	-0.527591183714	0.77001953125	0.31787109375	0.12548828125	137.75	36.6875	22.1875
18	12	13	20	19	02	0.574524784031	-0.304626919908	-0.534180485482	0.79833984375	0.3349609375	0.1533203125	107.6875	33.6875	10.4375
18	12	13	20	19	02	0.579699182589	-0.294732296559	-0.538379289283	0.81103515625	0.34228515625	0.18603515625	64.625	27.1875	1.4375
18	12	13	20	19	02	0.580538083495	-0.290208009569	-0.538670008929	0.83837890625	0.34375	0.20849609375	10.9375	18.4375	-7.8125
18	12	13	20	19	02	0.576655375431	-0.291684593479	-0.535334917222	0.85546875	0.337890625	0.19970703125	-45.0625	8.1875	-16.625
18	12	13	20	19	03	0.56885455412	-0.298770712706	-0.528570862519	0.83837890625	0.3134765625	0.17333984375	-93.6875	-1.375	-21.3125
18	12	13	20	19	03	0.559602364041	-0.309249119707	-0.518894023239	0.79443359375	0.27587890625	0.15966796875	-119.9375	-7.0625	-21.25
18	12	13	20	19	03	0.5500927912	-0.319936359866	-0.509261538863	0.76123046875	0.22802734375	0.1923828125	-118.125	-10.375	-19.875
18	12	13	20	19	03	0.541861039666	-0.328729844519	-0.501639545507	0.73095703125	0.1904296875	0.220703125	-95.625	-11.9375	-17.125
18	12	13	20	19	03	0.536059382252	-0.334281821313	-0.497058819203	0.6962890625	0.181640625	0.23828125	-61.0625	-11.5625	-13.125
18	12	13	20	19	03	0.533297264216	-0.336225066213	-0.495884672895	0.6552734375	0.18603515625	0.25048828125	-21.3125	-9.8125	-7.625
18	12	13	20	19	03	0.53348016138	-0.334760174484	-0.498142669852	0.61376953125	0.18505859375	0.26953125	16.75	-9.1875	-2.3125
18	12	13	20	19	03	0.53580538643	-0.330979907804	-0.503519129519	0.62841796875	0.1572265625	0.27783203125	48.625	-11.625	0.25
18	12	13	20	19	03	0.538503207446	-0.326043764499	-0.511343066076	0.68408203125	0.16552734375	0.26025390625	66.875	-16.0	-1.125
18	12	13	20	19	03	0.540824648043	-0.320613009386	-0.520500236826	0.73486328125	0.193359375	0.25439453125	74.1875	-20.375	-3.4375
18	12	13	20	19	03	0.541309236082	-0.316277422638	-0.529712804144	0.822265625	0.22021484375	0.2333984375	64.75	-26.5	-8.75
18	12	13	20	19	03	0.538678555846	-0.314625873033	-0.537396859758	0.9013671875	0.2705078125	0.18505859375	36.3125	-31.4375	-15.3125
18	12	13	20	19	03	0.533181068103	-0.316698324449	-0.541969767027	0.8896484375	0.32421875	0.1328125	-2.8125	-33.6875	-14.9375
18	12	13	20	19	03	0.525322173929	-0.32256624715	-0.542900050785	0.85546875	0.33544921875	0.09033203125	-42.0625	-34.5625	-13.1875
18	12	13	20	19	03	0.515834912641	-0.331520970831	-0.540247355265	0.82080078125	0.31396484375	0.07080078125	-74.625	-32.875	-12.0
18	12	13	20	19	03	0.506148037418	-0.341602624554	-0.534955691302	0.7998046875	0.2509765625	0.0771484375	-91.1875	-27.25	-12.1875
18	12	13	20	19	03	0.497548460701	-0.351006035021	-0.528370586885	0.78369140625	0.1787109375	0.08056640625	-90.8125	-18.375	-13.1875
18	12	13	20	19	03	0.491188150384	-0.357954585239	-0.522009474433	0.75634765625	0.14013671875	0.0947265625	-74.875	-6.8125	-12.1875
18	12	13	20	19	03	0.487665792638	-0.361812618118	-0.516840291872	0.7353515625	0.13037109375	0.1005859375	-50.75	4.875	-9.4375
18	12	13	20	19	03	0.486488385926	-0.362287675179	-0.513342593654	0.82373046875	0.1650390625	0.17919921875	-25.875	12.375	-10.5
18	12	13	20	19	03	0.485580605136	-0.360340358563	-0.512740405197	1.169921875	0.169921875	0.26513671875	-2.875	11.0	-25.8125
18	12	13	20	19	03	0.481749127037	-0.359373984543	-0.512938003753	1.375	0.2880859375	0.24951171875	-14.0625	3.0625	-34.6875
18	12	13	20	19	03	0.476237185701	-0.361923172012	-0.51126988397	1.49462890625	0.4296875	0.24365234375	-38.1875	-5.25	-22.0
18	12	13	20	19	03	0.467576147435	-0.369739759974	-0.505782996188	1.47314453125	0.4638671875	0.16748046875	-81.4375	-12.9375	-13.1875
18	12	13	20	19	03	0.457624270212	-0.38084495147	-0.495403601135	1.4140625	0.4404296875	0.16455078125	-114.5625	-19.25	-5.1875
18	12	13	20	19	03	0.447379970594	-0.392327210229	-0.485892489209	1.42431640625	0.30322265625	0.24609375	-109.125	-27.75	-5.625
18	12	13	20	19	03	0.439981568484	-0.404094599103	-0.477882602473	1.28955078125	0.19580078125	0.26220703125	-84.6875	-32.4375	2.875
18	12	13	20	19	03	0.437719869317	-0.411293112009	-0.475132345599	1.14697265625	0.1630859375	0.2880859375	-28.4375	-30.4375	10.875
18	12	13	20	19	03	0.439250254689	-0.413494577674	-0.478372029492	1.03369140625	0.16015625	0.28564453125	26.0625	-28.0	9.0
18	12	13	20	19	03	0.442127072666	-0.413014066914	-0.48546089674	0.9619140625	0.22998046875	0.25439453125	54.8125	-29.4375	8.5625
18	12	13	20	19	03	0.444934205157	-0.411915082387	-0.494005138071	0.90625	0.3203125	0.24169921875	62.75	-33.9375	12.6875
18	12	13	20	19	03	0.446709788605	-0.412042325847	-0.501640627482	0.86181640625	0.3583984375	0.2373046875	52.25	-38.9375	16.75
18	12	13	20	19	03	0.446834644417	-0.41418110873	-0.506892736222	0.81640625	0.33984375	0.24462890625	30.9375	-42.875	17.6875
18	12	13	20	19	03	0.4454977389	-0.417848680711	-0.5103784207	0.77685546875	0.29150390625	0.2431640625	14.125	-45.5	15.3125
18	12	13	20	19	03	0.443520011389	-0.421792596492	-0.513218628839	0.7470703125	0.2275390625	0.25390625	8.3125	-46.5625	10.0
18	12	13	20	19	03	0.441514793102	-0.424913739229	-0.516768835112	0.7451171875	0.1865234375	0.24560546875	13.25	-45.9375	3.125
18	12	13	20	19	03	0.43968419333	-0.426745124898	-0.521651971182	0.76220703125	0.17529296875	0.22265625	22.8125	-44.3125	-3.375
18	12	13	20	19	03	0.437727184527	-0.42735160988	-0.527140224869	0.77783203125	0.20654296875	0.19970703125	26.125	-40.75	-8.1875
18	12	13	20	19	03	0.435087331893	-0.427458503658	-0.532370149544	0.7958984375	0.234375	0.16552734375	21.375	-35.75	-12.5
18	12	13	20	19	03	0.431625251861	-0.427536042037	-0.536296816757	0.8125	0.2470703125	0.126953125	8.9375	-28.3125	-16.5625
18	12	13	20	19	03	0.427781961876	-0.427598862163	-0.538252121813	0.81982421875	0.23828125	0.10205078125	-4.875	-18.6875	-19.0
18	12	13	20	19	03	0.423640440456	-0.427729751724	-0.538141155958	0.82177734375	0.22802734375	0.07421875	-19.6875	-7.3125	-20.9375
18	12	13	20	19	03	0.419726196796	-0.427843629423	-0.535750553363	0.80029296875	0.2080078125	0.0595703125	-32.9375	4.625	-20.5
18	12	13	20	19	03	0.416850687106	-0.427470309296	-0.531408335671	0.779296875	0.17919921875	0.08642578125	-38.625	15.875	-18.625
18	12	13	20	19	03	0.415385994412	-0.426005618718	-0.526281726391	0.8056640625	0.1357421875	0.12158203125	-36.25	25.375	-19.5625
18	12	13	20	19	03	0.414904026033	-0.423692813875	-0.520552579882	0.81884765625	0.12109375	0.14404296875	-34.3125	32.6875	-19.3125
18	12	13	20	19	03	0.415448002449	-0.42100195694	-0.514381631355	0.80712890625	0.14013671875	0.16845703125	-31.6875	37.375	-14.0
18	12	13	20	19	03	0.416724769752	-0.41806746819	-0.507784136546	0.79443359375	0.14501953125	0.20166015625	-29.8125	39.6875	-10.1875
18	12	13	20	19	03	0.418436154814	-0.41532351714	-0.500768472907	0.77001953125	0.1318359375	0.23291015625	-29.875	39.5625	-6.5625
18	12	13	20	19	03	0.420876015769	-0.41281980433	-0.493687078242	0.73876953125	0.11962890625	0.26025390625	-26.0625	37.875	-1.6875
18	12	13	20	19	04	0.424176146094	-0.410321759739	-0.487344823965	0.71923828125	0.0986328125	0.28564453125	-17.25	34.4375	2.0
18	12	13	20	19	04	0.42820737693	-0.407639263187	-0.48240466181	0.7216796875	0.0966796875	0.30859375	-5.5625	29.4375	5.0625
18	12	13	20	19	04	0.433092877179	-0.404773388028	-0.479295147193	0.740234375	0.1025390625	0.3232421875	8.9375	23.5625	7.6875
18	12	13	20	19	04	0.438267859884	-0.401831999648	-0.478243552437	0.7841796875	0.10546875	0.31494140625	22.1875	17.125	8.1875
18	12	13	20	19	04	0.443103285203	-0.398976057214	-0.478868922273	0.82568359375	0.14697265625	0.27587890625	28.9375	12.3125	8.0
18	12	13	20	19	04	0.447504713553	-0.395808519829	-0.481073670516	0.94580078125	0.20849609375	0.2998046875	35.75	7.0	5.625
18	12	13	20	19	04	0.449506001022	-0.393661059958	-0.484233620109	1.15673828125	0.25732421875	0.287109375	29.75	-1.125	-4.0
18	12	13	20	19	04	0.449393838168	-0.393913870913	-0.486441517071	1.31884765625	0.38037109375	0.27685546875	11.5	-9.1875	0.0
18	12	13	20	19	04	0.448160768693	-0.397442860647	-0.486489103535	1.37744140625	0.453125	0.220703125	-10.8125	-13.6875	13.625
18	12	13	20	19	04	0.446997857522	-0.403360027357	-0.484044239215	1.3642578125	0.45947265625	0.1611328125	-27.375	-11.75	26.4375
18	12	13	20	19	04	0.44811127893	-0.408317141929	-0.481863054638	1.3701171875	0.42138671875	0.123046875	-16.125	-3.25	33.5625
18	12	13	20	19	04	0.453669582598	-0.409419556043	-0.482660979307	1.4267578125	0.36669921875	0.10009765625	24.3125	10.5	35.9375
18	12	13	20	19	04	0.464638784463	-0.404949209892	-0.487037632998	1.33447265625	0.35302734375	0.060546875	72.625	29.0625	41.75
18	12	13	20	19	04	0.481500949454	-0.394770964769	-0.49248715441	1.18408203125	0.39208984375	0.0126953125	114.1875	47.6875	49.4375
18	12	13	20	19	04	0.50071122698	-0.380171895765	-0.499124380088	1.072265625	0.41796875	0.0146484375	138.3125	64.0625	46.0
18	12	13	20	19	04	0.519447100693	-0.363753345098	-0.504616217663	0.97998046875	0.4384765625	0.03759765625	135.5	74.125	38.9375
18	12	13	20	19	04	0.535451116217	-0.348259896174	-0.507314450929	0.92041015625	0.43408203125	0.05517578125	108.0	77.875	29.0
18	12	13	20	19	04	0.545950696773	-0.334833484907	-0.508353644876	0.8974609375	0.408203125	0.0751953125	67.625	77.375	15.5
18	12	13	20	19	04	0.552370108629	-0.325257492695	-0.505678049723	0.89697265625	0.36865234375	0.091796875	22.75	73.375	3.3125
18	12	13	20	19	04	0.555449746956	-0.319501090574	-0.499605716798	0.8828125	0.3251953125	0.109375	-17.125	68.5625	-5.5625
18	12	13	20	19	04	0.556153263644	-0.316528843861	-0.491211749979	0.8525390625	0.2880859375	0.130859375	-44.4375	63.875	-11.3125
18	12	13	20	19	04	0.555519249173	-0.315172643675	-0.481791798832	0.81787109375	0.24951171875	0.158203125	-57.3125	58.5625	-14.8125
18	12	13	20	19	04	0.554367915635	-0.313956683698	-0.472949133354	0.7890625	0.2294921875	0.17919921875	-55.6875	53.0	-16.875
18	12	13	20	19	04	0.553445119095	-0.31206053087	-0.465435870999	0.755859375	0.22509765625	0.208984375	-44.875	48.1875	-17.0
18	12	13	20	19	04	0.553320290643	-0.308885284684	-0.459879592984	0.7197265625	0.23388671875	0.24169921875	-27.75	43.125	-14.5
18	12	13	20	19	04	0.554068395836	-0.304865789513	-0.456657825253	0.6982421875	0.2353515625	0.27392578125	-9.3125	35.625	-10.875
18	12	13	20	19	04	0.555410677365	-0.3004100389	-0.455802960282	0.67822265625	0.234375	0.2880859375	7.375	26.4375	-6.9375
18	12	13	20	19	04	0.55724316192	-0.296016356551	-0.457024840795	0.6533203125	0.23095703125	0.29638671875	21.4375	16.25	-2.625
18	12	13	20	19	04	0.559320508594	-0.292111300102	-0.460078349387	0.62353515625	0.21826171875	0.28759765625	31.5	5.75	1.75
18	12	13	20	19	04	0.560965843613	-0.289058234724	-0.46477585672	0.61474609375	0.21630859375	0.27734375	37.3125	-5.5	4.0
18	12	13	20	19	04	0.561574207174	-0.287348262947	-0.470755554824	0.6455078125	0.21240234375	0.26513671875	38.1875	-17.375	2.9375
18	12	13	20	19	04	0.56059722398	-0.28734803816	-0.477529959762	0.685546875	0.2119140625	0.2578125	33.0625	-29.3125	-0.1875
