19	01	29	08	46	43	-0.795448050048	0.282950752706	-0.178888838693	-0.6875	0.857421875	2.55224609375	-223.3125	-84.5	49.1875
19	01	29	08	46	43	-0.786398563211	0.331099123432	-0.158744482958	-2.56005859375	1.0693359375	2.919921875	-284.25	70.75	-94.5
19	01	29	08	46	43	-0.78162351807	0.368533718734	-0.132508562996	-2.98974609375	-0.88671875	2.41943359375	-242.625	14.125	-120.9375
19	01	29	08	46	43	-0.789533685465	0.365470602084	-0.129086560355	-2.02197265625	-1.15966796875	2.09326171875	28.3125	-9.6875	-70.3125
19	01	29	08	46	43	-0.811679659321	0.332325418829	-0.136470089348	-1.8623046875	-0.5546875	1.01416015625	227.4375	-55.75	-98.3125
19	01	29	08	46	43	-0.826693853587	0.306142219977	-0.131831577981	-1.03515625	-0.14453125	0.552734375	142.125	-97.6875	-67.875
19	01	29	08	46	43	-0.840103128053	0.286544437792	-0.115533252554	-0.38720703125	-0.13818359375	0.23583984375	80.1875	-128.8125	-85.5625
19	01	29	08	46	43	-0.853355671414	0.269824447384	-0.0924641569298	-0.14599609375	-0.22509765625	-0.04736328125	52.875	-149.375	-105.4375
19	01	29	08	46	43	-0.8639576703	0.258528164128	-0.0649982282332	-0.0498046875	-0.150390625	-0.15673828125	11.125	-156.0	-107.5
19	01	29	08	46	43	-0.872275296161	0.253162463509	-0.0335678290574	0.01123046875	-0.10009765625	-0.193359375	-31.5	-157.5	-114.8125
19	01	29	08	46	43	-0.878203851035	0.252249393031	-0.00128169302048	0.134765625	-0.201171875	-0.21728515625	-57.3125	-148.25	-112.5
19	01	29	08	46	43	-0.882693957792	0.254744145739	0.0315531201119	0.29443359375	-0.248046875	-0.244140625	-77.0	-137.5	-118.8125
19	01	29	08	46	43	-0.88608915252	0.258661374045	0.0625596763558	0.31494140625	-0.1962890625	-0.02978515625	-84.25	-122.1875	-120.9375
19	01	29	08	46	43	-0.890598289299	0.254997234971	0.0885593556587	0.53857421875	0.03466796875	0.94384765625	-72.1875	-83.4375	-99.3125
19	01	29	08	46	43	-0.89385096762	0.262814767263	0.0709831802896	1.55517578125	-0.0283203125	2.2060546875	-3.25	121.875	-27.0625
19	01	29	08	46	43	-0.902060088157	0.248341170413	0.0112299767402	0.5263671875	-0.68359375	1.763671875	203.9375	298.25	56.4375
19	01	29	08	46	43	-0.906048468991	0.227778570985	-0.0457754362912	-0.45556640625	0.03369140625	0.65576171875	222.875	248.4375	73.25
19	01	29	08	46	44	-0.903005258514	0.225949676716	-0.0852041460551	-0.77734375	0.2529296875	0.5546875	77.625	190.875	60.75
19	01	29	08	46	44	-0.889083940232	0.254329153494	-0.115415509781	-0.84130859375	-0.3291015625	0.1865234375	-103.0625	200.5	88.5625
19	01	29	08	46	44	-0.869154901941	0.285385037671	-0.131157494858	-1.28173828125	-1.05322265625	0.0048828125	-152.625	112.25	141.8125
19	01	29	08	46	44	-0.847953534953	0.289731190558	-0.141173002688	-0.6201171875	-0.8388671875	0.02197265625	-51.9375	4.125	256.25
19	01	29	08	46	44	-0.826019762887	0.284596583002	-0.145014257176	0.06884765625	-0.02587890625	0.150390625	-38.25	-46.0625	276.0
19	01	29	08	46	44	-0.802712816446	0.286918563725	-0.143489798621	-0.0244140625	0.37939453125	0.39697265625	-92.375	-41.5	235.5
19	01	29	08	46	44	-0.78109991586	0.294362001421	-0.138361736932	-0.23046875	0.10400390625	0.58447265625	-114.375	-32.25	184.9375
19	01	29	08	46	44	-0.765981661746	0.299495778023	-0.133909463416	-0.31005859375	0.1796875	1.21533203125	-86.9375	-18.6875	119.9375
19	01	29	08	46	44	-0.75864707918	0.311026992398	-0.13219867848	-1.09228515625	0.7578125	2.72607421875	-71.625	27.25	29.5
19	01	29	08	46	44	-0.765455279033	0.325602289399	-0.14189790494	-3.4501953125	-0.15771484375	2.14501953125	-5.0	120.1875	-104.125
19	01	29	08	46	44	-0.767107806014	0.322491657807	-0.152335196421	-2.62353515625	-1.06884765625	1.60009765625	51.5	40.875	2.25
19	01	29	08	46	44	-0.769316776152	0.316881610613	-0.163994778066	-1.85888671875	-0.7890625	0.9052734375	89.25	-23.1875	-4.375
19	01	29	08	46	44	-0.769332325883	0.310113252504	-0.16296051647	-1.31005859375	-0.6943359375	0.61181640625	46.8125	-77.875	23.8125
19	01	29	08	46	44	-0.765773422783	0.304124409479	-0.152275818111	-0.4658203125	-0.31103515625	0.47412109375	-16.5625	-88.875	51.0625
19	01	29	08	46	44	-0.766922349778	0.298261143034	-0.138114378286	0.05029296875	-0.21826171875	0.3134765625	-16.1875	-76.25	9.75
19	01	29	08	46	44	-0.772752003337	0.289850664548	-0.127927351631	0.08837890625	-0.21728515625	0.03759765625	26.625	-68.125	-24.75
19	01	29	08	46	44	-0.778363013523	0.283623690413	-0.115964065372	0.11865234375	-0.2568359375	-0.041015625	15.8125	-68.0625	-30.75
19	01	29	08	46	44	-0.781722366552	0.281244274287	-0.102720076742	0.16357421875	-0.22607421875	0.03173828125	-13.125	-56.875	-23.5625
19	01	29	08	46	44	-0.785250616875	0.27995838486	-0.0869109963027	0.1162109375	0.0068359375	0.4921875	-49.25	-52.5625	-40.75
19	01	29	08	46	44	-0.784707135289	0.291495782697	-0.0687847041666	0.19140625	0.13134765625	1.89990234375	-122.625	-24.1875	-45.25
19	01	29	08	46	44	-0.785495203879	0.308522008983	-0.0842255929567	-0.3701171875	-0.32421875	2.1259765625	-32.0	155.5625	-41.1875
19	01	29	08	46	44	-0.791109502263	0.310047544476	-0.104732595732	-1.34423828125	-0.6826171875	1.65234375	69.6875	112.875	-43.6875
19	01	29	08	46	44	-0.798323027529	0.295648069216	-0.129574907297	-1.53369140625	-0.08447265625	0.92529296875	152.25	67.8125	-15.1875
19	01	29	08	46	44	-0.797642226998	0.291555353766	-0.137995950359	-0.9638671875	-0.10986328125	1.00830078125	24.3125	8.125	6.75
19	01	29	08	46	44	-0.7954264188	0.294233926574	-0.134941134963	-0.68798828125	-0.482421875	1.04931640625	-24.75	-9.3125	13.25
19	01	29	08	46	44	-0.796227801923	0.286119571931	-0.132501192547	-0.3828125	-0.69189453125	0.88720703125	46.875	-31.9375	34.3125
19	01	29	08	46	44	-0.797577270638	0.264516367535	-0.138910764308	0.048828125	-0.501953125	0.369140625	119.1875	-44.5625	62.4375
19	01	29	08	46	44	-0.799965874596	0.245232538653	-0.136898104579	0.2744140625	-0.22216796875	0.044921875	92.8125	-61.3125	46.125
19	01	29	08	46	44	-0.7995328995	0.241934993406	-0.125606008181	0.2333984375	-0.25537109375	-0.09228515625	-7.6875	-57.5625	22.6875
19	01	29	08	46	44	-0.794331401329	0.253465870896	-0.110712037035	0.21240234375	-0.5986328125	-0.17041015625	-100.1875	-34.875	18.75
19	01	29	08	46	44	-0.785742041969	0.267630794938	-0.0982635301826	-0.1494140625	-0.81640625	-0.013671875	-108.75	-21.4375	41.75
19	01	29	08	46	44	-0.776960360971	0.277642787279	-0.0834332139393	-0.4384765625	-0.3837890625	0.40234375	-107.6875	-48.4375	44.1875
19	01	29	08	46	44	-0.767154288356	0.291810378919	-0.0596926481034	-0.46142578125	0.3134765625	1.79833984375	-175.5	-64.1875	22.625
19	01	29	08	46	44	-0.758027493174	0.333117073892	-0.0463849351701	-0.7568359375	0.75537109375	2.935546875	-237.3125	94.5625	-47.6875
19	01	29	08	46	44	-0.766212813827	0.356068627996	-0.059446493601	-2.09228515625	-0.744140625	1.82568359375	-35.125	180.25	-125.625
19	01	29	08	46	44	-0.776468116312	0.344656143123	-0.0833717534101	-1.896484375	-0.47705078125	0.953125	145.9375	72.0625	-36.5
19	01	29	08	46	44	-0.782368471894	0.328840106604	-0.100031353884	-1.208984375	0.18408203125	0.8701171875	97.375	-6.5	-26.4375
19	01	29	08	46	44	-0.786182286472	0.326106044299	-0.0991806704073	-0.83837890625	-0.08056640625	0.65234375	4.3125	-29.3125	-50.4375
19	01	29	08	46	44	-0.789163494715	0.326346264984	-0.0911840882525	-0.48046875	-0.44091796875	0.267578125	-1.5625	-48.0625	-37.6875
19	01	29	08	46	44	-0.795811001296	0.315907488512	-0.0835543569886	-0.06689453125	-0.28857421875	-0.09521484375	56.75	-70.9375	-32.0625
19	01	29	08	46	44	-0.804510398518	0.301798203662	-0.072993053909	0.14599609375	0.05224609375	-0.31494140625	56.8125	-88.25	-51.1875
19	01	29	08	46	44	-0.811267786877	0.298335611064	-0.0556022384777	0.31103515625	0.1494140625	-0.30322265625	-19.5	-72.25	-73.25
19	01	29	08	46	44	-0.817489974254	0.304620909475	-0.0404655706234	0.203125	0.0048828125	-0.1513671875	-56.625	-31.0	-103.1875
19	01	29	08	46	44	-0.824872905662	0.310906591302	-0.0328972620164	0.216796875	-0.068359375	0.21923828125	-35.0625	12.75	-108.4375
19	01	29	08	46	44	-0.836398722279	0.309133065407	-0.0379626390293	-0.138671875	0.04345703125	1.0888671875	36.875	57.375	-117.5625
19	01	29	08	46	44	-0.844771090137	0.309014957688	-0.0574329597442	-0.14697265625	-0.0556640625	2.12451171875	53.0625	134.375	-73.375
19	01	29	08	46	44	-0.849635287345	0.308031699966	-0.0891076445315	-0.8916015625	-0.43603515625	2.2001953125	85.4375	178.4375	-28.9375
19	01	29	08	46	44	-0.854949121615	0.302112946316	-0.114497755008	-1.576171875	-0.61181640625	1.783203125	105.6875	129.5625	-27.75
19	01	29	08	46	44	-0.857208720622	0.289967862704	-0.134577801992	-1.47900390625	-0.572265625	1.43408203125	109.5	63.3125	21.75
19	01	29	08	46	44	-0.855572944765	0.280023446325	-0.145809941864	-1.05078125	-0.45849609375	1.140625	64.4375	1.8125	50.5625
19	01	29	08	46	44	-0.852527003653	0.271663637834	-0.144773342831	-0.50927734375	-0.7265625	0.810546875	45.125	-43.4375	84.5625
19	01	29	08	46	45	-0.848413425857	0.255299141095	-0.143426483761	0.0478515625	-0.73193359375	0.49365234375	62.6875	-66.875	118.0625
19	01	29	08	46	45	-0.843043254223	0.238881582352	-0.141595623673	0.298828125	-0.62548828125	0.21630859375	59.0	-68.6875	126.6875
19	01	29	08	46	45	-0.834884858498	0.230647699412	-0.138425240081	0.28564453125	-0.46875	0.0390625	10.8125	-52.75	123.25
19	01	29	08	46	45	-0.824327612651	0.231502638441	-0.133237611315	0.2255859375	-0.52978515625	0.009765625	-39.75	-35.5	117.25
19	01	29	08	46	45	-0.813863023303	0.235950089846	-0.128411533636	-0.00439453125	-0.53271484375	0.12451171875	-53.5625	-22.3125	100.125
19	01	29	08	46	45	-0.803902597982	0.241927565928	-0.12206234406	-0.19970703125	-0.1552734375	0.900390625	-78.0625	-7.125	83.8125
19	01	29	08	46	45	-0.79330182999	0.26610216793	-0.122980703757	-0.34228515625	0.6787109375	2.3349609375	-126.125	78.9375	35.875
19	01	29	08	46	45	-0.791598223164	0.290089927116	-0.137873584127	-1.8095703125	0.49365234375	1.9228515625	-56.3125	163.4375	-51.875
19	01	29	08	46	45	-0.79392854744	0.299554221313	-0.15087572027	-1.92626953125	-0.4169921875	1.48779296875	9.625	106.3125	-50.3125
19	01	29	08	46	45	-0.798506875752	0.287958070763	-0.168636742162	-1.55029296875	0.1103515625	1.0146484375	110.8125	42.875	-9.8125
19	01	29	08	46	45	-0.802413662878	0.27569046286	-0.180477462625	-1.2578125	0.29052734375	0.71435546875	70.3125	-20.0	-31.3125
19	01	29	08	46	45	-0.805088440644	0.270376907896	-0.176752037306	-0.8330078125	0.04248046875	0.3662109375	9.0	-66.5	-25.5
19	01	29	08	46	45	-0.811065605796	0.25853517241	-0.163934247661	-0.34716796875	-0.10986328125	0.1357421875	27.125	-104.3125	-20.6875
19	01	29	08	46	45	-0.818780638157	0.242124695607	-0.148985727748	-0.03662109375	-0.06201171875	-0.04541015625	46.125	-125.0	-26.9375
19	01	29	08	46	45	-0.826574766275	0.229912659275	-0.132808586828	0.03515625	0.08837890625	0.0	22.375	-113.375	-46.75
19	01	29	08	46	45	-0.83369894573	0.224720316119	-0.118158210756	-0.0498046875	0.046875	0.07470703125	-7.125	-82.6875	-65.875
19	01	29	08	46	45	-0.84111185973	0.224300564872	-0.103025674423	-0.02734375	-0.0732421875	0.26904296875	-25.6875	-61.25	-82.125
19	01	29	08	46	45	-0.849533207689	0.221431602665	-0.0894149112195	-0.1357421875	-0.01513671875	1.03173828125	-26.5625	-46.4375	-94.1875
19	01	29	08	46	45	-0.857211283118	0.217888521234	-0.0869723088959	0.04345703125	0.1640625	2.177734375	-29.125	47.9375	-83.4375
19	01	29	08	46	45	-0.863345221562	0.218872814742	-0.115967191302	-0.58642578125	-0.572265625	2.05419921875	87.125	170.8125	-71.3125
19	01	29	08	46	45	-0.866541783494	0.214896014909	-0.148370409612	-1.15966796875	-0.650390625	1.66796875	117.5	161.625	-35.6875
19	01	29	08	46	45	-0.868579925432	0.201962685212	-0.172422056732	-1.12841796875	-0.4921875	1.1796875	134.375	87.3125	0.8125
19	01	29	08	46	45	-0.865145160729	0.201348422239	-0.182550206401	-0.794921875	-0.37451171875	1.044921875	28.625	36.6875	37.8125
19	01	29	08	46	45	-0.860173740693	0.206590613896	-0.182300196073	-0.63037109375	-0.4404296875	0.7822265625	-25.0625	-2.6875	50.5625
19	01	29	08	46	45	-0.85465392971	0.20928431943	-0.173884813664	-0.22314453125	-0.53955078125	0.66162109375	-31.75	-35.125	79.9375
19	01	29	08	46	45	-0.850054623466	0.204640519276	-0.16484761186	0.12060546875	-0.486328125	0.38671875	3.375	-48.5	93.1875
19	01	29	08	46	45	-0.844830975403	0.199397687953	-0.156857073168	0.1640625	-0.3408203125	0.17578125	2.5625	-49.0625	93.125
19	01	29	08	46	45	-0.837597338078	0.199817377213	-0.148978075069	0.04736328125	-0.2666015625	0.0263671875	-29.625	-43.875	91.9375
19	01	29	08	46	45	-0.828819505553	0.205679067284	-0.13829933723	-0.0478515625	-0.31201171875	0.119140625	-64.0625	-44.0	90.3125
19	01	29	08	46	45	-0.818278256207	0.216547419484	-0.120480441393	-0.193359375	-0.04052734375	1.236328125	-133.0625	-59.25	81.25
19	01	29	08	46	45	-0.80648412364	0.248646611148	-0.111872665251	-0.4775390625	1.28271484375	2.29296875	-194.875	55.875	30.125
19	01	29	08	46	45	-0.809938761932	0.269877869434	-0.122976912463	-1.57568359375	0.083984375	1.9501953125	-48.0625	139.3125	-94.5
19	01	29	08	46	45	-0.810336725095	0.277700692866	-0.14446539341	-1.76318359375	-0.56494140625	1.4521484375	34.0625	127.0	-27.3125
19	01	29	08	46	45	-0.816746273553	0.263907553941	-0.167047866591	-1.3955078125	0.26171875	1.1318359375	137.6875	67.8125	-27.25
19	01	29	08	46	45	-0.820506249141	0.255172316845	-0.184681040606	-1.08056640625	0.16259765625	0.87451171875	78.5625	39.75	-38.6875
19	01	29	08	46	45	-0.823300267576	0.255248107273	-0.192687296667	-0.81982421875	-0.2041015625	0.53369140625	36.3125	21.8125	-40.0625
19	01	29	08	46	45	-0.828097395204	0.249686500868	-0.195794254408	-0.57080078125	-0.2705078125	0.2412109375	59.875	-18.125	-33.1875
19	01	29	08	46	45	-0.834573935182	0.237970145771	-0.193903860763	-0.23828125	-0.17333984375	0.05615234375	74.125	-52.0625	-26.375
19	01	29	08	46	45	-0.840742082794	0.230036799278	-0.185237910801	-0.01123046875	-0.06640625	-0.0048828125	31.375	-64.9375	-34.5
19	01	29	08	46	45	-0.844821446118	0.232170263042	-0.172846000246	-0.01953125	-0.00927734375	0.0390625	-33.1875	-52.9375	-47.5625
19	01	29	08	46	45	-0.847559956814	0.242177425552	-0.15752518532	-0.10986328125	-0.03515625	0.2841796875	-82.8125	-41.75	-61.375
19	01	29	08	46	45	-0.849158181022	0.2565845607	-0.138301763688	-0.02783203125	-0.01513671875	1.12158203125	-118.5	-42.75	-67.5
19	01	29	08	46	45	-0.850788963612	0.264940809974	-0.13329433978	0.1435546875	0.03271484375	1.892578125	-91.9375	75.625	-48.1875
19	01	29	08	46	45	-0.855452871865	0.264521457382	-0.152585058481	-0.46240234375	-0.51904296875	1.48486328125	67.875	118.9375	-56.125
19	01	29	08	46	45	-0.858058135927	0.259388795625	-0.173454813451	-0.73095703125	-0.2646484375	1.24365234375	85.0625	104.1875	-22.5
19	01	29	08	46	45	-0.859633041204	0.250413515659	-0.190175119375	-0.66650390625	-0.2177734375	0.97216796875	83.9375	66.0625	-0.375
19	01	29	08	46	45	-0.857818760008	0.250113217966	-0.195183521487	-0.69482421875	-0.2744140625	0.8037109375	8.875	14.9375	17.0
19	01	29	08	46	45	-0.855619525966	0.24956332418	-0.190300426704	-0.5537109375	-0.3046875	0.61376953125	-14.5625	-41.4375	35.3125
19	01	29	08	46	45	-0.855580048954	0.242245485397	-0.177426965495	-0.0703125	-0.50732421875	0.5009765625	13.8125	-81.0625	55.9375
19	01	29	08	46	46	-0.854669986313	0.231488378898	-0.163256370565	0.24853515625	-0.4892578125	0.3154296875	25.75	-88.0625	80.125
19	01	29	08	46	46	-0.850714430618	0.224900113123	-0.151113346023	0.228515625	-0.39208984375	0.19775390625	1.5625	-72.375	91.5625
19	01	29	08	46	46	-0.841594240704	0.224298994458	-0.142941019053	0.1064453125	-0.46728515625	0.3388671875	-41.6875	-54.4375	113.625
19	01	29	08	46	46	-0.826618637818	0.234424260769	-0.131280027314	0.05126953125	-0.3203125	1.26708984375	-120.5	-37.5625	137.0625
19	01	29	08	46	46	-0.8050071321	0.264633125458	-0.125114830994	-0.16796875	0.8154296875	2.96728515625	-206.3125	43.6875	132.3125
19	01	29	08	46	46	-0.796603335558	0.305287303437	-0.142634231934	-2.5478515625	1.01171875	2.4267578125	-138.3125	228.75	-42.8125
19	01	29	08	46	46	-0.789520671354	0.321337842817	-0.155206483245	-3.49560546875	-1.005859375	0.47021484375	-47.4375	113.6875	17.25
19	01	29	08	46	46	-0.784008556024	0.302288212517	-0.169545054385	-1.5859375	-0.3291015625	0.2666015625	106.5625	-31.625	124.875
19	01	29	08	46	46	-0.77897261076	0.284355824926	-0.17998826523	-0.93310546875	0.17919921875	-0.3212890625	86.0	-88.3125	89.375
19	01	29	08	46	46	-0.774818029949	0.274283751602	-0.161982438085	-0.31298828125	0.03662109375	-0.38134765625	-32.5625	-142.0	67.5625
19	01	29	08	46	46	-0.772554179539	0.268666732369	-0.137995338911	0.1884765625	0.12109375	-0.21875	-66.0	-140.75	29.8125
19	01	29	08	46	46	-0.77845463621	0.255416123288	-0.120536880166	0.32470703125	0.224609375	-0.140625	7.6875	-124.4375	-26.75
19	01	29	08	46	46	-0.789519572904	0.243032385537	-0.107844858173	0.26318359375	0.22607421875	-0.10595703125	24.5	-80.5	-80.6875
19	01	29	08	46	46	-0.801131382391	0.24297608055	-0.098447731205	0.2060546875	0.15283203125	0.13330078125	-6.75	-24.75	-118.625
19	01	29	08	46	46	-0.81471203748	0.248826202473	-0.0941718985566	0.0634765625	0.056640625	0.68701171875	-12.75	28.5	-155.9375
19	01	29	08	46	46	-0.824505252678	0.260370079793	-0.0980812747838	-0.046875	-0.0712890625	1.927734375	-26.1875	92.5	-134.3125
19	01	29	08	46	46	-0.829138273864	0.270133676859	-0.121334331133	-0.65771484375	-0.58740234375	2.53173828125	37.0	162.6875	-71.625
19	01	29	08	46	46	-0.835779982979	0.274036229267	-0.144586153036	-1.521484375	-0.84521484375	2.12158203125	69.3125	148.75	-83.9375
19	01	29	08	46	46	-0.840843322923	0.26549092362	-0.164238178267	-1.9072265625	-0.7705078125	1.15576171875	109.1875	85.0625	-28.4375
19	01	29	08	46	46	-0.839145956286	0.254081359809	-0.176447084124	-1.29541015625	-0.5888671875	0.89453125	95.625	-17.25	55.0625
19	01	29	08	46	46	-0.837555786588	0.236197689579	-0.172662342072	-0.494140625	-0.42529296875	0.79296875	71.3125	-83.625	91.125
19	01	29	08	46	46	-0.835039828389	0.218616625149	-0.161307576848	0.521484375	-0.4873046875	0.77685546875	38.0	-107.4375	96.5625
19	01	29	08	46	46	-0.832202974721	0.20068084935	-0.150449602691	0.87646484375	-0.65234375	0.4580078125	45.6875	-101.8125	95.875
19	01	29	08	46	46	-0.825740117786	0.184935513112	-0.133544192307	0.7216796875	-0.560546875	0.126953125	9.25	-132.25	120.625
19	01	29	08	46	46	-0.814653296822	0.178029942076	-0.0972847883678	0.810546875	-0.26123046875	0.5361328125	-105.5625	-196.5625	133.375
19	01	29	08	46	46	-0.800422512335	0.187304360683	-0.0533411571316	0.7021484375	0.2744140625	1.66796875	-220.0	-173.0625	105.0
19	01	29	08	46	46	-0.78378351685	0.21697168684	-0.0172722889946	0.29296875	0.7265625	2.21630859375	-275.8125	-79.6875	73.9375
19	01	29	08	46	46	-0.772750386997	0.254389354159	0.0103147314906	-0.927734375	0.05224609375	2.86669921875	-274.0	1.9375	-2.375
19	01	29	08	46	46	-0.769754139449	0.261772558206	0.00836158556173	-2.296875	-0.43798828125	2.287109375	-30.4375	31.875	16.3125
19	01	29	08	46	46	-0.766322819929	0.239430106927	-0.00323471722334	-1.93115234375	-0.13232421875	1.35205078125	132.8125	-44.5625	89.5
19	01	29	08	46	46	-0.762670699844	0.21569128147	-0.0111690731491	-1.07958984375	0.05810546875	1.07373046875	119.3125	-76.375	76.5
19	01	29	08	46	46	-0.75792377479	0.204281758272	-0.0164182231775	-0.85888671875	-0.1064453125	0.7626953125	53.6875	-68.6875	50.25
19	01	29	08	46	46	-0.751868227721	0.199090361135	-0.0200799291274	-0.60498046875	-0.302734375	0.39306640625	39.9375	-43.625	59.3125
19	01	29	08	46	46	-0.744316453304	0.191648516882	-0.0242917546876	-0.400390625	-0.2626953125	-0.052734375	55.3125	-46.6875	78.25
19	01	29	08	46	46	-0.736772422515	0.181690813604	-0.0253280778118	-0.29150390625	0.0	-0.3427734375	42.0	-68.4375	74.5
19	01	29	08	46	46	-0.729533515346	0.175166166573	-0.0206903590481	-0.16748046875	0.107421875	-0.73583984375	6.3125	-76.875	60.875
19	01	29	08	46	46	-0.723501268438	0.173581711442	0.000305171785236	0.00732421875	0.14501953125	-0.87548828125	-78.625	-103.9375	32.0625
19	01	29	08	46	46	-0.725860667762	0.176872464069	0.0286242876634	0.4404296875	0.6015625	-0.0810546875	-129.0	-93.9375	-54.1875
19	01	29	08	46	46	-0.746914278709	0.181449268721	0.0405255009857	0.7265625	0.775390625	0.41650390625	-61.5	10.9375	-196.8125
19	01	29	08	46	46	-0.776654493245	0.172969652955	0.0214838806776	-0.623046875	-0.13818359375	0.732421875	127.5	83.875	-235.6875
19	01	29	08	46	46	-0.793139047064	0.166867422445	-0.00775133966734	-0.00537109375	0.45361328125	2.57958984375	142.4375	130.625	-116.375
