18	12	13	15	35	16	-0.296311684384	-0.718227786166	0.0473610436833	-0.93701171875	0.3662109375	-0.0322265625	45.625	-16.4375	-13.5625
18	12	13	15	35	16	-0.288269499371	-0.719605631503	0.0512085771697	-0.8740234375	0.4423828125	-0.04150390625	48.3125	-11.5625	-14.5625
18	12	13	15	35	16	-0.282714777925	-0.720580886914	0.0534057492843	-0.79541015625	0.49560546875	-0.0625	31.75	-7.875	-17.5
18	12	13	15	35	17	-0.280748193904	-0.720668407308	0.0528538991132	-0.71484375	0.482421875	-0.052734375	5.6875	-4.0	-16.9375
18	12	13	15	35	17	-0.281307116372	-0.720387913764	0.0504753710652	-0.6708984375	0.439453125	-0.07275390625	-12.625	-0.5	-13.375
18	12	13	15	35	17	-0.283261785893	-0.719903633831	0.0470577110372	-0.654296875	0.427734375	-0.08837890625	-22.8125	0.625	-11.8125
18	12	13	15	35	17	-0.285573415819	-0.719334960214	0.0435165303439	-0.66845703125	0.42626953125	-0.10595703125	-25.75	0.25	-10.5
18	12	13	15	35	17	-0.287717963939	-0.718501457676	0.0400998519957	-0.6884765625	0.419921875	-0.11376953125	-25.1875	-3.25	-10.0625
18	12	13	15	35	17	-0.289731624982	-0.71715748758	0.037048050635	-0.69482421875	0.39453125	-0.119140625	-24.8125	-8.5625	-8.375
18	12	13	15	35	17	-0.291320812719	-0.715332060563	0.0346679701706	-0.6767578125	0.337890625	-0.10595703125	-21.1875	-13.5	-5.4375
18	12	13	15	35	17	-0.291805915981	-0.713493235269	0.0339351786834	-0.6474609375	0.2763671875	-0.078125	-10.5	-17.125	-0.4375
18	12	13	15	35	17	-0.291012938052	-0.712090593173	0.0357662713293	-0.63232421875	0.271484375	-0.0693359375	5.3125	-19.4375	5.4375
18	12	13	15	35	17	-0.289252602085	-0.711198843531	0.0399179577471	-0.63525390625	0.3046875	-0.07421875	18.5	-20.8125	9.6875
18	12	13	15	35	17	-0.287104788277	-0.710498903132	0.0454094307989	-0.64990234375	0.34228515625	-0.08544921875	24.9375	-22.6875	12.0
18	12	13	15	35	17	-0.284906538353	-0.709641885482	0.0515736985665	-0.67431640625	0.3720703125	-0.09130859375	26.875	-24.75	14.1875
18	12	13	15	35	17	-0.282462227874	-0.708474836033	0.0579206253786	-0.7021484375	0.3671875	-0.08837890625	28.1875	-27.6875	14.6875
18	12	13	15	35	17	-0.280090299685	-0.706787027752	0.0643310472583	-0.72998046875	0.392578125	-0.072265625	27.6875	-30.625	14.6875
18	12	13	15	35	17	-0.277952891636	-0.704586776689	0.0704342637127	-0.76611328125	0.390625	-0.056640625	24.9375	-33.0	14.875
18	12	13	15	35	17	-0.275447133976	-0.702075865749	0.0764147599685	-0.81591796875	0.353515625	-0.021484375	25.9375	-34.0625	17.125
18	12	13	15	35	17	-0.271970920188	-0.700007738697	0.0839228041423	-1.0224609375	0.46240234375	-0.04443359375	36.0	-35.4375	20.4375
18	12	13	15	35	17	-0.267215517138	-0.69825160257	0.09143189691	-1.3125	0.62939453125	-0.09619140625	39.375	-38.625	15.75
18	12	13	15	35	17	-0.262021706124	-0.695245575228	0.0950309332482	-1.41552734375	0.66845703125	-0.04052734375	25.125	-42.6875	-2.9375
18	12	13	15	35	17	-0.255800665961	-0.691656680188	0.0953377810142	-1.4267578125	0.64208984375	0.05224609375	17.625	-41.1875	-20.625
18	12	13	15	35	17	-0.246948771623	-0.688783214968	0.0952150478822	-1.462890625	0.57080078125	0.16015625	31.0	-33.9375	-29.4375
18	12	13	15	35	17	-0.235229748943	-0.687439715192	0.0972291100329	-1.57861328125	0.72021484375	0.20068359375	54.0	-26.75	-38.125
18	12	13	15	35	17	-0.223868728188	-0.686132018072	0.0974695634994	-1.5986328125	0.8779296875	0.21484375	45.4375	-22.375	-55.5625
18	12	13	15	35	17	-0.217283705325	-0.6832229768	0.0901483238104	-1.46337890625	0.81884765625	0.3017578125	-3.6875	-15.0	-69.5
18	12	13	15	35	17	-0.216616860616	-0.679636163134	0.0769053943016	-1.271484375	0.6767578125	0.37451171875	-49.3125	-0.8125	-67.3125
18	12	13	15	35	17	-0.22002486393	-0.676553569115	0.0601787838654	-1.0712890625	0.52392578125	0.3623046875	-78.3125	13.75	-60.0625
18	12	13	15	35	17	-0.225835750266	-0.674211269578	0.0417490954546	-0.86328125	0.39794921875	0.294921875	-94.8125	22.75	-53.75
18	12	13	15	35	17	-0.232970374297	-0.67260506281	0.0239867322763	-0.7158203125	0.3232421875	0.24853515625	-97.0	29.75	-43.5625
18	12	13	15	35	17	-0.240543864625	-0.671826013176	0.00836196636732	-0.6533203125	0.30029296875	0.18310546875	-90.5625	31.625	-32.375
18	12	13	15	35	17	-0.247918244675	-0.671368954068	-0.00530991809126	-0.61962890625	0.3046875	0.1201171875	-83.5	29.0625	-26.25
18	12	13	15	35	17	-0.254146856354	-0.670095661842	-0.0173337433248	-0.60498046875	0.2861328125	0.11962890625	-73.375	20.0	-25.125
18	12	13	15	35	17	-0.257390845534	-0.668471553304	-0.0263677603202	-0.60498046875	0.2646484375	0.11376953125	-50.25	8.9375	-26.625
18	12	13	15	35	17	-0.257386633681	-0.666995763069	-0.0313112030064	-0.6240234375	0.31884765625	0.09814453125	-22.0625	-1.4375	-28.9375
18	12	13	15	35	17	-0.25554726789	-0.665509292828	-0.0334463584437	-0.67138671875	0.39990234375	0.09423828125	-4.75	-9.1875	-31.8125
18	12	13	15	35	17	-0.252810491084	-0.663825905607	-0.0346073270025	-0.724609375	0.44140625	0.0966796875	2.25	-13.5	-34.1875
18	12	13	15	35	17	-0.250540558598	-0.66153693414	-0.0359484504298	-0.76708984375	0.44482421875	0.11767578125	-1.0	-16.75	-33.75
18	12	13	15	35	17	-0.249082859961	-0.658504037275	-0.0376584475854	-0.78466796875	0.4189453125	0.14990234375	-5.875	-19.0625	-30.6875
18	12	13	15	35	17	-0.248346838924	-0.655259686087	-0.0393668496206	-0.78857421875	0.3896484375	0.1611328125	-8.8125	-19.3125	-25.9375
18	12	13	15	35	17	-0.248902035723	-0.652162396199	-0.0415650530474	-0.79443359375	0.37451171875	0.1611328125	-15.875	-16.5	-20.6875
18	12	13	15	35	17	-0.251213934718	-0.649396565939	-0.0449206647116	-0.822265625	0.35302734375	0.15283203125	-27.0	-11.3125	-14.3125
18	12	13	15	35	17	-0.255011560869	-0.646867525633	-0.0494397712552	-0.8701171875	0.2861328125	0.15869140625	-36.5625	-6.5	-6.25
18	12	13	15	35	17	-0.259517606656	-0.644643688029	-0.0535270322288	-0.8876953125	0.21484375	0.16943359375	-36.125	-3.625	4.3125
18	12	13	15	35	17	-0.263850741658	-0.643178143786	-0.0556631682609	-0.85986328125	0.15234375	0.16650390625	-25.875	-1.375	15.5
18	12	13	15	35	17	-0.267695114911	-0.642810066175	-0.054930598135	-0.794921875	0.12060546875	0.17236328125	-10.1875	1.9375	26.375
18	12	13	15	35	17	-0.27062462735	-0.643969427869	-0.050658195918	-0.7412109375	0.119140625	0.1650390625	9.625	6.3125	37.375
18	12	13	15	35	17	-0.272828971298	-0.646732836661	-0.0431521437825	-0.71533203125	0.15380859375	0.13720703125	27.0625	10.5	46.4375
18	12	13	15	35	17	-0.274902236733	-0.650512442073	-0.0333251823392	-0.69873046875	0.1943359375	0.1171875	37.6875	13.625	54.0
18	12	13	15	35	17	-0.277463060016	-0.654717607742	-0.0223386449551	-0.66748046875	0.21240234375	0.103515625	41.3125	16.0	60.625
18	12	13	15	35	17	-0.280585893639	-0.659318865148	-0.0104983192747	-0.634765625	0.24365234375	0.08447265625	42.375	18.875	66.1875
18	12	13	15	35	17	-0.284413434928	-0.664343398968	0.00152582314875	-0.62158203125	0.28076171875	0.0556640625	40.5	22.75	69.3125
18	12	13	15	35	18	-0.288636153895	-0.669496716446	0.0125732813919	-0.640625	0.306640625	0.037109375	34.8125	26.375	68.5
18	12	13	15	35	18	-0.293090930589	-0.674560800681	0.0220336996965	-0.6982421875	0.3193359375	0.02880859375	27.8125	29.25	65.6875
18	12	13	15	35	18	-0.297362577822	-0.679319682093	0.0299681908273	-0.7470703125	0.30859375	0.0361328125	23.0	30.8125	62.25
18	12	13	15	35	18	-0.300835143591	-0.684065792123	0.0374746963208	-0.78759765625	0.318359375	0.04296875	24.3125	31.8125	59.0
18	12	13	15	35	18	-0.302373065751	-0.689708446304	0.0451057116654	-0.947265625	0.3837890625	0.0029296875	33.1875	33.4375	54.5625
18	12	13	15	35	18	-0.301151720737	-0.69587165953	0.0518195806456	-1.2216796875	0.439453125	-0.02685546875	40.8125	32.6875	46.3125
18	12	13	15	35	18	-0.297853642436	-0.701726091616	0.0565799849464	-1.37841796875	0.4658203125	-0.0419921875	40.875	29.5625	33.5
18	12	13	15	35	18	-0.293624430197	-0.706871367812	0.0593840304681	-1.38037109375	0.46923828125	-0.05126953125	35.9375	26.125	19.625
18	12	13	15	35	18	-0.290095147064	-0.711230538341	0.0605458417604	-1.384765625	0.521484375	-0.052734375	26.0	24.8125	11.6875
18	12	13	15	35	18	-0.286185255366	-0.715493655076	0.0604229905762	-1.47607421875	0.53857421875	-0.08544921875	21.6875	24.5625	6.5
18	12	13	15	35	18	-0.281376719686	-0.719372238226	0.0590219713528	-1.6103515625	0.6328125	-0.1591796875	18.25	18.0625	-5.5625
18	12	13	15	35	18	-0.276795754493	-0.72143898966	0.0540163710532	-1.6044921875	0.63671875	-0.1806640625	0.25	7.375	-24.6875
18	12	13	15	35	18	-0.272522287376	-0.721619485699	0.0463257370926	-1.44873046875	0.517578125	-0.12353515625	-13.25	-1.0	-37.1875
18	12	13	15	35	18	-0.266835203799	-0.721163030212	0.0394271595732	-1.25	0.3857421875	-0.04638671875	-3.25	-5.4375	-40.5625
18	12	13	15	35	18	-0.258729738171	-0.721318246216	0.0354616602684	-1.0771484375	0.3330078125	-0.01953125	18.625	-7.1875	-40.75
18	12	13	15	35	18	-0.249746309698	-0.721774158965	0.0335070195562	-0.955078125	0.35107421875	-0.01123046875	30.875	-8.0625	-41.0625
18	12	13	15	35	18	-0.241266688737	-0.722030085443	0.0322258567298	-0.8544921875	0.376953125	0.00048828125	31.3125	-8.375	-42.125
18	12	13	15	35	18	-0.234125157976	-0.722150382997	0.0305778686513	-0.76171875	0.39404296875	-0.01416015625	23.8125	-7.75	-42.375
18	12	13	15	35	18	-0.229181108429	-0.722027300323	0.027953381534	-0.70703125	0.41455078125	-0.0341796875	10.5625	-6.375	-40.875
18	12	13	15	35	18	-0.225946617584	-0.72147892125	0.0239251955951	-0.6962890625	0.4091796875	-0.05224609375	-2.625	-6.5	-40.5
18	12	13	15	35	18	-0.224423972929	-0.7203295427	0.0185544976259	-0.7119140625	0.404296875	-0.0732421875	-16.5	-8.5	-39.4375
18	12	13	15	35	18	-0.224423155717	-0.718740027664	0.0122068618829	-0.74951171875	0.419921875	-0.09228515625	-27.4375	-10.0625	-38.5625
18	12	13	15	35	18	-0.224733368362	-0.716864044382	0.005371139711	-0.7958984375	0.3916015625	-0.1064453125	-31.0625	-12.25	-37.0
18	12	13	15	35	18	-0.225644510578	-0.714408708767	-0.0014648277668	-0.8525390625	0.38916015625	-0.13427734375	-35.6875	-17.875	-34.3125
18	12	13	15	35	18	-0.226502884945	-0.711064028459	-0.00842290437144	-0.88037109375	0.3154296875	-0.13427734375	-36.8125	-25.4375	-31.125
18	12	13	15	35	18	-0.2260084338	-0.707077425214	-0.0136105538043	-0.86328125	0.21826171875	-0.1015625	-24.8125	-32.6875	-25.5
18	12	13	15	35	18	-0.222650658412	-0.703290443223	-0.0149532377497	-0.83203125	0.1455078125	-0.06640625	2.125	-38.1875	-17.8125
18	12	13	15	35	18	-0.216492854531	-0.700138013625	-0.0112915641636	-0.796875	0.138671875	-0.0400390625	34.5625	-41.625	-9.375
18	12	13	15	35	18	-0.208072190816	-0.697765117456	-0.00274662616213	-0.751953125	0.16455078125	-0.03076171875	63.5625	-43.375	-1.125
18	12	13	15	35	18	-0.198546575932	-0.695920091847	0.0095214466171	-0.71533203125	0.21728515625	-0.02734375	82.9375	-43.75	5.6875
18	12	13	15	35	18	-0.189209639192	-0.694460411202	0.0241089701551	-0.67822265625	0.29052734375	-0.04541015625	91.3125	-42.125	11.6875
18	12	13	15	35	18	-0.181278663874	-0.693192520409	0.0390634157842	-0.671875	0.37841796875	-0.07177734375	87.1875	-39.5	14.1875
18	12	13	15	35	18	-0.175166089903	-0.691814504895	0.0526108604516	-0.6904296875	0.44970703125	-0.08984375	73.0	-36.5	12.875
18	12	13	15	35	18	-0.171142412042	-0.690245912191	0.0632323605119	-0.73193359375	0.49462890625	-0.1015625	53.0	-33.625	8.3125
18	12	13	15	35	18	-0.168639291751	-0.688167938651	0.0705562871025	-0.76416015625	0.49267578125	-0.0927734375	33.0	-32.1875	3.0
18	12	13	15	35	18	-0.167234208706	-0.68553818693	0.0750722907695	-0.78515625	0.4482421875	-0.05517578125	17.3125	-31.5625	-0.25
18	12	13	15	35	18	-0.166444584623	-0.682502143474	0.0778816611583	-0.794921875	0.3837890625	-0.013671875	8.4375	-30.5625	-0.1875
18	12	13	15	35	18	-0.166073667973	-0.679309049813	0.0800766822421	-0.8173828125	0.3466796875	0.01953125	4.8125	-29.0625	2.1875
18	12	13	15	35	18	-0.166262285882	-0.676829107249	0.0830701068596	-0.99462890625	0.40771484375	0.01611328125	6.8125	-24.25	8.5625
18	12	13	15	35	18	-0.165893866779	-0.675477344976	0.0859376616722	-1.24853515625	0.47998046875	-0.009765625	8.375	-19.5625	8.125
18	12	13	15	35	18	-0.165344556731	-0.674195634423	0.0869142298948	-1.443359375	0.525390625	0.0078125	1.75	-18.5	1.875
18	12	13	15	35	18	-0.163267428156	-0.672844907662	0.0863028573507	-1.486328125	0.4912109375	0.07666015625	2.1875	-16.5625	-8.5625
18	12	13	15	35	18	-0.158629446274	-0.671993152551	0.0868525209881	-1.513671875	0.4345703125	0.173828125	20.3125	-10.375	-10.6875
18	12	13	15	35	18	-0.151369901842	-0.672436374432	0.0920426661199	-1.62744140625	0.58837890625	0.2041015625	51.0	-3.8125	-11.0625
18	12	13	15	35	18	-0.143917997433	-0.6728990338	0.0964336030298	-1.5517578125	0.67138671875	0.24609375	49.0625	0.375	-22.8125
18	12	13	15	35	18	-0.141232055394	-0.672286555819	0.0955788240047	-1.2724609375	0.5966796875	0.35595703125	10.8125	8.625	-25.375
18	12	13	15	35	18	-0.144960290589	-0.672188496948	0.0917980113874	-1.03125	0.54833984375	0.37109375	-24.5	24.375	-11.75
18	12	13	15	35	18	-0.15442299153	-0.673357487179	0.0846579799418	-0.880859375	0.50830078125	0.28662109375	-60.1875	38.0	-0.9375
18	12	13	15	35	18	-0.167968507216	-0.674925782267	0.0737303621793	-0.81884765625	0.4267578125	0.21875	-91.5	45.1875	6.5
18	12	13	15	35	18	-0.182798630369	-0.676995795676	0.0615839125349	-0.7880859375	0.33203125	0.1806640625	-102.6875	45.375	16.3125
18	12	13	15	35	18	-0.198055055091	-0.67778162921	0.0513295227524	-0.767578125	0.27490234375	0.13134765625	-97.0625	39.8125	26.4375
18	12	13	15	35	19	-0.211669487395	-0.678282299142	0.0441283273895	-0.7333984375	0.26708984375	0.09423828125	-79.3125	31.8125	31.875
18	12	13	15	35	19	-0.222229425292	-0.678712224457	0.040649491141	-0.71240234375	0.279296875	0.07470703125	-53.5	23.125	32.5625
18	12	13	15	35	19	-0.229249196389	-0.67883641167	0.0404054760408	-0.701171875	0.28662109375	0.08447265625	-26.9375	13.625	29.5
18	12	13	15	35	19	-0.23327207955	-0.678576394673	0.0429679602311	-0.70751953125	0.30859375	0.1044921875	-4.25	4.125	26.25
18	12	13	15	35	19	-0.235345578451	-0.677656109322	0.0470569089694	-0.7158203125	0.3427734375	0.12939453125	8.5	-3.875	21.5625
18	12	13	15	35	19	-0.23651001636	-0.676693303581	0.0510861635337	-0.74365234375	0.39404296875	0.130859375	11.6875	-5.5	15.25
18	12	13	15	35	19	-0.237671960031	-0.675906339338	0.054260496268	-0.79345703125	0.42529296875	0.12548828125	7.9375	-4.375	11.75
18	12	13	15	35	19	-0.239859641565	-0.675024843691	0.0551738208586	-0.8427734375	0.43359375	0.11572265625	-5.375	-1.625	8.3125
18	12	13	15	35	19	-0.243531548547	-0.673831653121	0.0532839703963	-0.85693359375	0.40673828125	0.12255859375	-22.25	1.5625	5.75
18	12	13	15	35	19	-0.248171494202	-0.672431222731	0.0493779485513	-0.8369140625	0.34912109375	0.14208984375	-33.9375	5.125	5.0625
18	12	13	15	35	19	-0.25317658923	-0.671638184158	0.0448613290945	-0.8291015625	0.330078125	0.12158203125	-36.8125	9.6875	6.0625
18	12	13	15	35	19	-0.258665366112	-0.671199393848	0.039855706482	-0.8095703125	0.31689453125	0.10595703125	-40.5625	13.0625	7.1875
18	12	13	15	35	19	-0.264894982007	-0.670904525857	0.034057926258	-0.79345703125	0.29736328125	0.08837890625	-46.4375	16.125	8.3125
18	12	13	15	35	19	-0.271356412829	-0.67063973553	0.0278924607879	-0.77099609375	0.248046875	0.0869140625	-49.0	17.375	10.875
18	12	13	15	35	19	-0.277520599744	-0.670578145897	0.0224604312087	-0.7490234375	0.21484375	0.08447265625	-43.8125	17.8125	14.3125
18	12	13	15	35	19	-0.282892722661	-0.670947076636	0.0186153787296	-0.70849609375	0.193359375	0.08203125	-34.0	18.0	18.0
18	12	13	15	35	19	-0.28748082989	-0.671948292199	0.0165408290658	-0.68115234375	0.19580078125	0.06982421875	-23.1875	18.5	21.375
18	12	13	15	35	19	-0.291198757046	-0.673461975529	0.0160522475588	-0.67041015625	0.19580078125	0.06689453125	-12.875	18.875	24.5625
18	12	13	15	35	19	-0.294252140221	-0.675357795384	0.0170899396934	-0.67578125	0.2080078125	0.06640625	-3.625	18.375	27.6875
18	12	13	15	35	19	-0.296573674	-0.677621100791	0.0194704675871	-0.67919921875	0.2255859375	0.06298828125	5.125	18.0	29.875
18	12	13	15	35	19	-0.298274420104	-0.680165774021	0.0228878468466	-0.6943359375	0.25537109375	0.05908203125	11.875	17.875	30.5625
18	12	13	15	35	19	-0.299369020374	-0.682964187153	0.0266716130282	-0.712890625	0.26904296875	0.05615234375	15.9375	18.1875	29.5625
18	12	13	15	35	19	-0.300040622919	-0.68583329531	0.0303336431227	-0.7314453125	0.27880859375	0.06787109375	17.8125	19.125	28.1875
18	12	13	15	35	19	-0.299619557864	-0.689387432486	0.0344235955664	-0.79638671875	0.30615234375	0.072265625	25.0625	22.75	26.6875
18	12	13	15	35	19	-0.296314731865	-0.694493374643	0.0395493195157	-1.0341796875	0.373046875	0.01806640625	41.9375	25.1875	24.375
18	12	13	15	35	19	-0.291250466302	-0.700233989918	0.0449814739449	-1.31103515625	0.47412109375	-0.06201171875	48.625	22.5	22.0
18	12	13	15	35	19	-0.286132961197	-0.70489538585	0.048584009623	-1.4580078125	0.57958984375	-0.09423828125	39.3125	15.75	11.125
18	12	13	15	35	19	-0.2813109225	-0.707946493833	0.0494384567639	-1.47802734375	0.5654296875	-0.06298828125	26.125	10.4375	-0.375
18	12	13	15	35	19	-0.276488748478	-0.710569980083	0.0493773504455	-1.5009765625	0.548828125	-0.07421875	21.9375	8.5	-3.4375
18	12	13	15	35	19	-0.270808751686	-0.712940506748	0.0491935663418	-1.51904296875	0.5478515625	-0.08544921875	24.5	5.25	-8.4375
18	12	13	15	35	19	-0.264950484454	-0.714774274003	0.0480341007292	-1.462890625	0.54931640625	-0.107421875	19.9375	0.5625	-17.0
18	12	13	15	35	19	-0.2597033302	-0.715633735981	0.0457151102985	-1.341796875	0.50341796875	-0.09033203125	12.0625	-3.3125	-22.4375
18	12	13	15	35	19	-0.254327748012	-0.716231370991	0.0433339815427	-1.22607421875	0.4384765625	-0.06787109375	12.3125	-4.3125	-23.8125
18	12	13	15	35	19	-0.248038824174	-0.717017742715	0.0421739240906	-1.1298828125	0.41650390625	-0.05322265625	21.625	-4.5	-24.75
18	12	13	15	35	19	-0.241086392439	-0.717949173231	0.0419307219255	-1.03955078125	0.4208984375	-0.05810546875	28.25	-5.625	-27.3125
18	12	13	15	35	19	-0.234014085128	-0.718705230145	0.0421152109385	-0.94580078125	0.43310546875	-0.0498046875	30.1875	-7.25	-30.3125
18	12	13	15	35	19	-0.227112796993	-0.719241386662	0.0424806521653	-0.8564453125	0.4345703125	-0.0498046875	29.75	-8.5	-32.125
18	12	13	15	35	19	-0.220831267454	-0.719502205844	0.0426647473605	-0.78369140625	0.43212890625	-0.04833984375	26.375	-9.5	-32.875
18	12	13	15	35	19	-0.21599980909	-0.71940936698	0.0421135541882	-0.7392578125	0.45556640625	-0.060546875	16.75	-9.9375	-33.4375
18	12	13	15	35	19	-0.21332131846	-0.718700579361	0.0397345288462	-0.7216796875	0.4541015625	-0.0615234375	0.3125	-9.9375	-33.625
18	12	13	15	35	19	-0.212585960815	-0.717469988339	0.0353394405145	-0.72119140625	0.42822265625	-0.0673828125	-16.0625	-9.875	-33.3125
18	12	13	15	35	19	-0.213250780549	-0.715799986914	0.0296012102365	-0.74365234375	0.4072265625	-0.0791015625	-28.125	-10.6875	-31.6875
18	12	13	15	35	19	-0.214599223244	-0.713743832939	0.0231322825965	-0.77783203125	0.38037109375	-0.09033203125	-34.75	-13.0	-30.1875
18	12	13	15	35	19	-0.215939901535	-0.711295537731	0.0166624061953	-0.81201171875	0.3466796875	-0.09814453125	-35.6875	-16.625	-28.3125
18	12	13	15	35	19	-0.216486000754	-0.708538478363	0.0111691395935	-0.83740234375	0.30078125	-0.09326171875	-29.0625	-21.25	-24.6875
18	12	13	15	35	19	-0.215384868335	-0.705844715867	0.00811736681455	-0.88427734375	0.27392578125	-0.09423828125	-12.75	-26.3125	-19.25
18	12	13	15	35	19	-0.212221936576	-0.703256011859	0.00799570713014	-0.91064453125	0.26220703125	-0.1005859375	6.4375	-32.5625	-14.8125
18	12	13	15	35	19	-0.207518839742	-0.700376084129	0.0106200817986	-0.873046875	0.24365234375	-0.0693359375	23.5625	-37.9375	-10.625
18	12	13	15	35	19	-0.201482554492	-0.697650893014	0.0160526845899	-0.7880859375	0.2255859375	-0.04345703125	40.375	-39.875	-5.5625
18	12	13	15	35	19	-0.194517991162	-0.69524770547	0.0242308260093	-0.70361328125	0.22265625	-0.0107421875	56.125	-38.6875	0.6875
18	12	13	15	35	20	-0.187562034682	-0.693424105442	0.0346071180165	-0.646484375	0.2666015625	-0.00927734375	65.75	-35.1875	6.5
18	12	13	15	35	20	-0.181700959239	-0.691952897177	0.0457761906044	-0.61181640625	0.33154296875	-0.0146484375	64.25	-30.9375	10.1875
18	12	13	15	35	20	-0.177794339163	-0.690669667685	0.0560909707143	-0.599609375	0.388671875	-0.02783203125	53.4375	-26.1875	11.6875
18	12	13	15	35	20	-0.176019509865	-0.689430091342	0.0643899385947	-0.60546875	0.4248046875	-0.04052734375	36.375	-22.1875	11.3125
18	12	13	15	35	20	-0.176455785449	-0.687939521893	0.0698865009819	-0.6201171875	0.4248046875	-0.041015625	16.3125	-19.125	9.875
18	12	13	15	35	20	-0.178648820214	-0.686214105112	0.0728145003467	-0.63916015625	0.408203125	-0.02490234375	-0.75	-16.4375	8.8125
18	12	13	15	35	20	-0.181883143197	-0.684197998402	0.0737908456795	-0.697265625	0.3564453125	0.009765625	-12.25	-13.625	10.5625
18	12	13	15	35	20	-0.185968262297	-0.682351549878	0.0744605447989	-0.82421875	0.38525390625	0.0087890625	-17.0625	-11.8125	14.6875
18	12	13	15	35	20	-0.189824022629	-0.681657454895	0.0753192424195	-1.14404296875	0.4931640625	-0.056640625	-15.75	-8.875	16.5
18	12	13	15	35	20	-0.192750998813	-0.680854145584	0.0740974390622	-1.4765625	0.541015625	-0.0712890625	-21.375	-12.25	10.0625
18	12	13	15	35	20	-0.193363978728	-0.678727097051	0.069764844598	-1.5078125	0.45068359375	0.037109375	-24.5	-17.625	-7.1875
18	12	13	15	35	20	-0.190978825332	-0.676635109502	0.0664672230062	-1.453125	0.31884765625	0.16357421875	-5.3125	-14.1875	-9.6875
18	12	13	15	35	20	-0.184382328204	-0.676617838618	0.0697613376818	-1.5751953125	0.396484375	0.22021484375	41.625	-5.625	-2.9375
18	12	13	15	35	20	-0.174862468876	-0.678149002333	0.0765366617699	-1.6318359375	0.59521484375	0.197265625	67.9375	-0.5625	-12.75
18	12	13	15	35	20	-0.167850767277	-0.678727466224	0.0794086720825	-1.48583984375	0.65966796875	0.2490234375	42.0	2.8125	-26.375
18	12	13	15	35	20	-0.166507792722	-0.678482633392	0.0777606040789	-1.287109375	0.62646484375	0.30029296875	2.3125	11.0625	-23.75
18	12	13	15	35	20	-0.170655812174	-0.678594892614	0.0721441952752	-1.11181640625	0.5400390625	0.2802734375	-34.875	22.8125	-14.3125
18	12	13	15	35	20	-0.178772756517	-0.679080125984	0.0629885574344	-0.98681640625	0.4560546875	0.2314453125	-64.3125	30.875	-8.4375
18	12	13	15	35	20	-0.188597941122	-0.679807077092	0.0524290069332	-0.87890625	0.35498046875	0.20654296875	-76.6875	35.8125	-2.0625
18	12	13	15	35	20	-0.198365631931	-0.680729813209	0.0428469764971	-0.79443359375	0.2734375	0.17529296875	-72.25	36.1875	5.1875
18	12	13	15	35	20	-0.207273096959	-0.681755151069	0.036071378181	-0.72412109375	0.24169921875	0.14013671875	-58.0625	32.125	13.4375
18	12	13	15	35	20	-0.214664836141	-0.68287466214	0.0325934098662	-0.6640625	0.25146484375	0.1044921875	-39.5625	26.25	19.0625
18	12	13	15	35	20	-0.220270452535	-0.683943111971	0.0321037013115	-0.63330078125	0.279296875	0.07958984375	-21.5	19.1875	20.4375
18	12	13	15	35	20	-0.224123167293	-0.684454574625	0.0335696465172	-0.64599609375	0.3115234375	0.07763671875	-7.75	10.4375	18.8125
18	12	13	15	35	20	-0.226557217941	-0.683638846487	0.0355216327699	-0.669921875	0.3330078125	0.1083984375	-1.4375	-0.9375	12.875
18	12	13	15	35	20	-0.228091465912	-0.682016066392	0.0372929851947	-0.6884765625	0.36767578125	0.1171875	0.0	-7.875	5.1875
18	12	13	15	35	20	-0.228635275978	-0.680046514936	0.038390707045	-0.71875	0.373046875	0.14306640625	0.6875	-10.25	-1.1875
18	12	13	15	35	20	-0.227416590195	-0.678526632635	0.0391845010481	-0.80419921875	0.3271484375	0.15478515625	8.0	-8.5625	-4.5625
18	12	13	15	35	20	-0.225886663929	-0.67741585597	0.04131998689	-0.8525390625	0.3515625	0.138671875	14.3125	-8.875	-0.875
18	12	13	15	35	20	-0.223637823748	-0.677017123638	0.044007333767	-0.875	0.35498046875	0.13427734375	20.125	-5.5625	-0.25
18	12	13	15	35	20	-0.223027198028	-0.676955296478	0.04699806855	-0.8671875	0.39111328125	0.11474609375	14.9375	-1.8125	5.75
18	12	13	15	35	20	-0.225340849127	-0.676571861476	0.0480955008428	-0.81494140625	0.3681640625	0.1142578125	-4.125	2.375	11.625
18	12	13	15	35	20	-0.230963523536	-0.676166467688	0.0471815020331	-0.73876953125	0.3271484375	0.10693359375	-24.5	9.0	19.3125
18	12	13	15	35	20	-0.238639748967	-0.67594251146	0.0452255892543	-0.7001953125	0.28271484375	0.09912109375	-36.125	14.8125	26.625
18	12	13	15	35	20	-0.247191633233	-0.676145410607	0.0427244798181	-0.69189453125	0.2451171875	0.080078125	-41.25	19.375	31.8125
18	12	13	15	35	20	-0.255433505823	-0.67688353156	0.0406496331847	-0.69580078125	0.2119140625	0.05322265625	-38.1875	21.4375	35.5625
18	12	13	15	35	20	-0.262387609482	-0.678155089313	0.0403438497017	-0.703125	0.20458984375	0.0341796875	-25.1875	20.3125	38.6875
18	12	13	15	35	20	-0.267576023259	-0.680048369332	0.0425411697563	-0.69873046875	0.2265625	0.0087890625	-8.8125	18.0	40.625
18	12	13	15	35	20	-0.27099642387	-0.682434913353	0.04669195141	-0.7099609375	0.26220703125	-0.013671875	5.875	15.5	40.125
18	12	13	15	35	20	-0.272704290802	-0.685117650906	0.0519407680108	-0.73779296875	0.2783203125	-0.02392578125	17.0625	13.0	37.8125
18	12	13	15	35	20	-0.273192911068	-0.687804047102	0.0577391630632	-0.7548828125	0.29248046875	-0.00927734375	24.3125	11.6875	34.75
18	12	13	15	35	20	-0.27245051764	-0.690891545629	0.0639013646885	-0.80126953125	0.310546875	-0.009765625	31.4375	12.875	32.4375
18	12	13	15	35	20	-0.270327157692	-0.694586374922	0.0703131374262	-0.92822265625	0.3642578125	-0.01806640625	38.75	14.875	29.5
18	12	13	15	35	20	-0.26647376789	-0.699081662256	0.076536441808	-1.14794921875	0.419921875	-0.05029296875	45.625	16.8125	26.4375
18	12	13	15	35	20	-0.261968553886	-0.703079164075	0.0813005856886	-1.2978515625	0.478515625	-0.07568359375	41.0625	13.4375	18.8125
18	12	13	15	35	20	-0.258487656662	-0.705942913095	0.0833752394335	-1.318359375	0.51904296875	-0.068359375	25.0625	10.6875	8.75
18	12	13	15	35	20	-0.255796627458	-0.708064107646	0.0828851873272	-1.2744140625	0.44140625	-0.03173828125	12.1875	11.5	3.625
18	12	13	15	35	20	-0.252683821911	-0.710688507809	0.0824579331888	-1.35546875	0.4501953125	-0.07568359375	14.0	12.75	4.3125
18	12	13	15	35	20	-0.248040223518	-0.713970111888	0.0822731843756	-1.5517578125	0.572265625	-0.16748046875	19.75	10.5625	-2.375
18	12	13	15	35	21	-0.242377396472	-0.716389700928	0.0792258525863	-1.62158203125	0.62646484375	-0.21240234375	9.9375	2.3125	-22.3125
18	12	13	15	35	21	-0.236385773371	-0.716725571056	0.0726918296115	-1.40576171875	0.49560546875	-0.1181640625	-2.875	-6.9375	-41.1875
18	12	13	15	35	21	-0.229064407221	-0.716367958315	0.0675657604034	-1.15234375	0.34423828125	-0.0244140625	9.3125	-10.6875	-41.375
18	12	13	15	35	21	-0.218922153333	-0.716944113522	0.0668911848489	-1.0263671875	0.32763671875	-0.01611328125	39.0	-11.25	-37.125
18	12	13	15	35	21	-0.207517435874	-0.718071362665	0.0686028229184	-0.9951171875	0.44091796875	-0.0546875	53.5625	-12.4375	-40.625
18	12	13	15	35	21	-0.197078937518	-0.718736936578	0.0689074389773	-0.95654296875	0.52587890625	-0.078125	43.5625	-14.25	-50.625
18	12	13	15	35	21	-0.188840024242	-0.718495399283	0.0661611461793	-0.8994140625	0.52978515625	-0.06591796875	21.9375	-14.625	-57.8125
18	12	13	15	35	21	-0.182856691635	-0.71745007015	0.0609115414726	-0.82177734375	0.49462890625	-0.05078125	2.1875	-15.375	-60.5625
18	12	13	15	35	21	-0.178582986932	-0.7157357101	0.0537091690021	-0.74853515625	0.4462890625	-0.04052734375	-13.3125	-16.4375	-61.3125
18	12	13	15	35	21	-0.175474688719	-0.713495343002	0.0453487630325	-0.68701171875	0.3974609375	-0.0224609375	-22.75	-17.0	-60.9375
18	12	13	15	35	21	-0.173282071113	-0.711011921943	0.0369269647846	-0.6611328125	0.37841796875	-0.0146484375	-27.0	-17.4375	-57.875
18	12	13	15	35	21	-0.17205733343	-0.70824877514	0.028564324954	-0.67333984375	0.36669921875	-0.02392578125	-31.5	-18.8125	-52.9375
18	12	13	15	35	21	-0.172111775705	-0.705170020034	0.0203238373439	-0.69580078125	0.34619140625	-0.0400390625	-36.9375	-20.875	-46.4375
18	12	13	15	35	21	-0.173401592383	-0.701540972492	0.0121460460698	-0.708984375	0.29150390625	-0.0478515625	-42.75	-24.5	-37.875
18	12	13	15	35	21	-0.17522932902	-0.697438363886	0.00482170567489	-0.71142578125	0.22705078125	-0.0419921875	-41.9375	-28.1875	-28.5
18	12	13	15	35	21	-0.176206470392	-0.693168300744	-0.000183103363761	-0.7021484375	0.154296875	-0.02734375	-29.0625	-32.125	-18.625
18	12	13	15	35	21	-0.175355910105	-0.689033369013	-0.00140382385396	-0.66943359375	0.1162109375	-0.00732421875	-6.1875	-35.0	-9.4375
18	12	13	15	35	21	-0.172547330014	-0.685550622822	0.00195313567756	-0.64501953125	0.13232421875	-0.00537109375	20.5	-36.6875	-0.375
18	12	13	15	35	21	-0.168580226333	-0.682743813091	0.00946051233945	-0.6259765625	0.18701171875	-0.0185546875	41.9375	-37.3125	7.75
18	12	13	15	35	21	-0.165156512305	-0.680156752818	0.0189203691111	-0.62158203125	0.248046875	-0.03564453125	47.125	-37.4375	14.1875
18	12	13	15	35	21	-0.162352693689	-0.677547839339	0.0294187963752	-0.61767578125	0.27734375	-0.037109375	49.0	-37.375	19.625
18	12	13	15	35	21	-0.160031279679	-0.675280731643	0.040343507196	-0.66064453125	0.30322265625	-0.04296875	49.0	-35.125	23.5
18	12	13	15	35	21	-0.158634820204	-0.673236655195	0.0508437111312	-0.7314453125	0.3408203125	-0.041015625	43.375	-31.625	25.8125
18	12	13	15	35	21	-0.158389068612	-0.671948075664	0.0608531411969	-0.95849609375	0.43798828125	-0.07568359375	36.75	-27.5	28.125
18	12	13	15	35	21	-0.158447493172	-0.671570788662	0.0694581075613	-1.38427734375	0.57275390625	-0.12451171875	28.875	-24.8125	26.1875
18	12	13	15	35	21	-0.157472526971	-0.670234813437	0.0736092509794	-1.60400390625	0.6025390625	-0.06787109375	13.75	-28.6875	7.0
18	12	13	15	35	21	-0.154423045321	-0.667681301489	0.0737934631593	-1.53662109375	0.4892578125	0.08642578125	7.3125	-28.375	-12.25
18	12	13	15	35	21	-0.148920365668	-0.665869339934	0.0766573685571	-1.5830078125	0.41064453125	0.22998046875	32.25	-18.0	-5.9375
18	12	13	15	35	21	-0.139648975942	-0.665468874431	0.0847171235174	-1.6533203125	0.50927734375	0.28564453125	70.9375	-10.0625	-6.8125
18	12	13	15	35	21	-0.130005558425	-0.665469766903	0.0928349551003	-1.54833984375	0.638671875	0.3203125	72.6875	-3.375	-18.6875
18	12	13	15	35	21	-0.125492782159	-0.665062915564	0.0964390057444	-1.34716796875	0.68212890625	0.39013671875	35.375	7.875	-21.9375
18	12	13	15	35	21	-0.128784570692	-0.665468329033	0.094543744077	-1.15673828125	0.66845703125	0.3623046875	-16.375	23.625	-13.0625
18	12	13	15	35	21	-0.139402366857	-0.666860884535	0.085814241594	-1.03466796875	0.59814453125	0.26416015625	-73.3125	36.9375	-5.375
18	12	13	15	35	21	-0.153563624485	-0.669246876979	0.0711666081676	-0.9677734375	0.45751953125	0.21728515625	-111.0	43.625	2.0625
18	12	13	15	35	21	-0.169368435408	-0.671065206238	0.0563951114656	-0.90283203125	0.28759765625	0.201171875	-118.125	43.8125	11.8125
18	12	13	15	35	21	-0.184321018644	-0.672344483902	0.0452257863627	-0.82177734375	0.193359375	0.185546875	-100.25	38.375	23.1875
18	12	13	15	35	21	-0.196468702805	-0.672839695471	0.0391838792174	-0.71630859375	0.1865234375	0.1669921875	-67.8125	31.1875	33.75
18	12	13	15	35	21	-0.205689282278	-0.673586622915	0.0385133344563	-0.62548828125	0.20068359375	0.15625	-34.1875	24.5625	39.6875
18	12	13	15	35	21	-0.212150090638	-0.674534753088	0.0421736802736	-0.59033203125	0.24658203125	0.140625	-6.5625	18.375	41.75
18	12	13	15	35	21	-0.217350494161	-0.675367373741	0.0481576916296	-0.60498046875	0.31689453125	0.1279296875	7.0	12.9375	42.0625
18	12	13	15	35	21	-0.223087338141	-0.675548743787	0.053772898742	-0.6298828125	0.37255859375	0.11376953125	2.1875	8.1875	40.25
18	12	13	15	35	21	-0.230037205887	-0.674853113688	0.0565174987135	-0.6513671875	0.390625	0.11279296875	-15.4375	6.25	33.5
18	12	13	15	35	21	-0.237180992311	-0.67412868247	0.0566402369699	-0.70263671875	0.3701171875	0.09375	-27.0	7.625	27.375
18	12	13	15	35	21	-0.244327256115	-0.672617127751	0.0552986495229	-0.76416015625	0.29248046875	0.1416015625	-32.5	5.75	28.1875
18	12	13	15	35	21	-0.249747038131	-0.671790236731	0.054624535466	-0.771484375	0.25634765625	0.14794921875	-22.125	8.1875	26.6875
18	12	13	15	35	21	-0.254576065275	-0.672237061361	0.0560299275767	-0.783203125	0.3056640625	0.10546875	-10.25	11.5625	31.25
18	12	13	15	35	21	-0.259824277146	-0.672906426012	0.0570673476936	-0.78564453125	0.3447265625	0.08544921875	-13.875	14.0	30.5
18	12	13	15	35	21	-0.265990965691	-0.674132679225	0.0568236780768	-0.80029296875	0.357421875	0.0556640625	-22.0625	19.3125	30.3125
18	12	13	15	35	21	-0.272641139699	-0.675163708831	0.0550531246941	-0.82666015625	0.33447265625	0.04296875	-30.6875	20.5625	29.0
18	12	13	15	35	21	-0.279416102612	-0.675957478469	0.0520624586126	-0.81494140625	0.29931640625	0.041015625	-36.0625	20.625	26.9375
18	12	13	15	35	22	-0.285575371046	-0.676799591693	0.0491319029049	-0.76123046875	0.23876953125	0.05810546875	-32.5625	21.625	26.5
18	12	13	15	35	22	-0.290465074499	-0.678097704914	0.0476072196069	-0.689453125	0.1982421875	0.07568359375	-20.125	22.6875	27.875
18	12	13	15	35	22	-0.294189448193	-0.680297840158	0.0484008780949	-0.61865234375	0.2099609375	0.07421875	-5.5625	24.625	30.4375
18	12	13	15	35	22	-0.297726582985	-0.683098793926	0.0504755810022	-0.56005859375	0.23193359375	0.06640625	1.4375	27.75	32.625
18	12	13	15	35	22	-0.30169517354	-0.686275648651	0.0526120250033	-0.52197265625	0.25048828125	0.05322265625	0.3125	31.375	34.0
18	12	13	15	35	22	-0.306459253131	-0.68951806067	0.0541995253496	-0.5146484375	0.2470703125	0.0458984375	-4.5	35.0	35.625
18	12	13	15	35	22	-0.311033440235	-0.693355549661	0.0554806509367	-0.564453125	0.25830078125	0.03564453125	-3.875	39.25	36.4375
18	12	13	15	35	22	-0.313294862824	-0.698794639483	0.0573122688859	-0.80615234375	0.337890625	-0.03466796875	8.0625	43.1875	35.3125
18	12	13	15	35	22	-0.312500965087	-0.705141337823	0.0592042844013	-1.158203125	0.412109375	-0.1416015625	18.6875	38.25	31.9375
18	12	13	15	35	22	-0.309803889165	-0.71048602714	0.0604837774157	-1.44091796875	0.52783203125	-0.24853515625	18.4375	21.8125	22.6875
18	12	13	15	35	22	-0.304499373379	-0.714221621022	0.0604238083073	-1.6611328125	0.63134765625	-0.28857421875	19.3125	3.875	4.1875
18	12	13	15	35	22	-0.295775787064	-0.716612363994	0.0588377752227	-1.78955078125	0.60986328125	-0.265625	25.4375	-10.75	-15.5
18	12	13	15	35	22	-0.283560977715	-0.718057447874	0.0570051556578	-1.7958984375	0.529296875	-0.20654296875	38.625	-21.0	-30.6875
18	12	13	15	35	22	-0.268559371202	-0.718640462848	0.0559091781866	-1.6611328125	0.43212890625	-0.0927734375	54.875	-27.0	-41.75
18	12	13	15	35	22	-0.252623452518	-0.719235265636	0.0568234922189	-1.53759765625	0.47314453125	-0.03662109375	68.375	-26.0	-46.1875
18	12	13	15	35	22	-0.237061434857	-0.719729258452	0.0570680848586	-1.3935546875	0.5068359375	0.02587890625	66.125	-19.8125	-56.1875
18	12	13	15	35	22	-0.223632466765	-0.719908554994	0.0552977660725	-1.2578125	0.5400390625	0.0751953125	51.375	-11.9375	-63.6875
18	12	13	15	35	22	-0.213198957861	-0.719859292589	0.0512092544075	-1.08203125	0.53662109375	0.07275390625	29.9375	-6.5	-67.1875
18	12	13	15	35	22	-0.20691063805	-0.719365421847	0.0441897645866	-0.88818359375	0.5107421875	0.04638671875	0.5	-2.125	-67.5625
18	12	13	15	35	22	-0.204586158823	-0.718676020327	0.0342401059366	-0.75048828125	0.466796875	0.02490234375	-27.5625	3.5	-65.375
18	12	13	15	35	22	-0.204832349526	-0.717950812714	0.0219724808788	-0.6669921875	0.404296875	0.013671875	-47.625	8.8125	-62.75
18	12	13	15	35	22	-0.206602110184	-0.71727858165	0.00842277435906	-0.62548828125	0.369140625	-0.00927734375	-59.125	12.0625	-60.5
18	12	13	15	35	22	-0.208800619644	-0.716611539096	-0.0052490071001	-0.65087890625	0.35107421875	-0.029296875	-62.125	12.625	-57.9375
18	12	13	15	35	22	-0.210939250006	-0.71564314419	-0.0185548414357	-0.68798828125	0.35400390625	-0.05419921875	-61.125	9.0	-57.1875
18	12	13	15	35	22	-0.212708695855	-0.713993206344	-0.0313112083138	-0.71630859375	0.34033203125	-0.07373046875	-58.875	1.875	-56.625
18	12	13	15	35	22	-0.214045586075	-0.711532204865	-0.0427236698752	-0.767578125	0.345703125	-0.0888671875	-52.9375	-7.3125	-54.0
18	12	13	15	35	22	-0.213923218816	-0.708357454373	-0.0520617705135	-0.8427734375	0.322265625	-0.103515625	-40.125	-18.5	-51.0625
18	12	13	15	35	22	-0.212157260638	-0.704159469499	-0.0588376292448	-0.89990234375	0.2646484375	-0.111328125	-24.3125	-33.125	-45.25
18	12	13	15	35	22	-0.208252056306	-0.698791850132	-0.0620727846611	-0.8837890625	0.1767578125	-0.08349609375	-2.6875	-48.1875	-37.3125
18	12	13	15	35	22	-0.201417399254	-0.692753782281	-0.0605472909271	-0.77880859375	0.0751953125	-0.01025390625	28.8125	-58.75	-27.0625
18	12	13	15	35	22	-0.191161814908	-0.68743790591	-0.0524291184566	-0.6689453125	0.02197265625	0.029296875	69.875	-62.5	-13.25
18	12	13	15	35	22	-0.178408672131	-0.683421793313	-0.0369879080779	-0.61376953125	0.041015625	0.0400390625	110.0	-61.6875	0.875
18	12	13	15	35	22	-0.164006346271	-0.680440174258	-0.0170903524213	-0.5869140625	0.1572265625	0.025390625	135.5	-57.375	11.25
18	12	13	15	35	22	-0.150083468604	-0.677969568628	0.00390619845086	-0.57373046875	0.28076171875	0.00390625	138.1875	-50.8125	16.5
18	12	13	15	35	22	-0.138119188694	-0.675825796027	0.0237420965099	-0.5986328125	0.3759765625	-0.0390625	125.3125	-43.5	20.3125
18	12	13	15	35	22	-0.131169131646	-0.674095807305	0.0422988404982	-0.62060546875	0.42431640625	-0.048828125	99.0625	-37.5625	23.0625
18	12	13	15	35	22	-0.127807560053	-0.671996769907	0.0574950914852	-0.60205078125	0.4306640625	-0.03662109375	70.75	-32.9375	25.625
18	12	13	15	35	22	-0.127805553493	-0.669666921169	0.0696399887946	-0.64453125	0.43310546875	-0.02197265625	45.8125	-28.3125	29.875
18	12	13	15	35	22	-0.129391454548	-0.667830799843	0.0803813894529	-0.8203125	0.50341796875	-0.04150390625	32.9375	-24.1875	31.3125
18	12	13	15	35	22	-0.131771085518	-0.66685080147	0.0886815133202	-1.1435546875	0.6083984375	-0.09326171875	19.0	-21.25	26.1875
18	12	13	15	35	22	-0.133667387311	-0.665407240396	0.0924074997211	-1.42529296875	0.61572265625	-0.0537109375	1.4375	-23.5625	12.625
18	12	13	15	35	22	-0.132753330774	-0.663461473799	0.0927137054923	-1.53271484375	0.53857421875	0.0615234375	-0.4375	-22.9375	-5.4375
18	12	13	15	35	22	-0.127442793273	-0.662787975168	0.0953379516726	-1.7607421875	0.53173828125	0.15576171875	29.5625	-14.8125	-9.875
18	12	13	15	35	22	-0.117066739544	-0.663093356833	0.101624672232	-1.912109375	0.619140625	0.24560546875	66.75	-8.5625	-20.875
18	12	13	15	35	22	-0.106447513562	-0.662672393773	0.106630622817	-1.666015625	0.63818359375	0.38525390625	63.875	-1.4375	-33.9375
18	12	13	15	35	22	-0.101439849813	-0.661739381268	0.109008165924	-1.34814453125	0.6416015625	0.49462890625	33.5	10.6875	-27.3125
18	12	13	15	35	22	-0.104063923007	-0.661614618998	0.107298754631	-1.07763671875	0.58447265625	0.4912109375	-11.1875	27.375	-12.3125
18	12	13	15	35	22	-0.114322869367	-0.662987190106	0.100467401484	-0.92431640625	0.52197265625	0.3837890625	-61.1875	42.0	1.6875
18	12	13	15	35	22	-0.128600806416	-0.665281817719	0.0903928781689	-0.81591796875	0.3818359375	0.30322265625	-89.5625	50.9375	14.125
18	12	13	15	35	22	-0.144532194669	-0.668156222567	0.0803838261734	-0.7080078125	0.29345703125	0.22119140625	-95.5625	54.375	25.6875
18	12	13	15	35	23	-0.1608905437	-0.671150386389	0.0722054298925	-0.60546875	0.279296875	0.15576171875	-90.0625	53.8125	34.875
18	12	13	15	35	23	-0.176268266217	-0.674189497451	0.0667109470137	-0.53125	0.29296875	0.11865234375	-75.8125	51.25	39.5625
18	12	13	15	35	23	-0.18944646008	-0.676856070324	0.0635963954263	-0.4814453125	0.30810546875	0.1123046875	-57.875	45.6875	38.0625
18	12	13	15	35	23	-0.19977003148	-0.679144864123	0.0628057935816	-0.45556640625	0.322265625	0.1025390625	-37.75	37.375	33.8125
18	12	13	15	35	23	-0.207765996176	-0.680732713088	0.0639655593397	-0.44775390625	0.36962890625	0.1025390625	-22.375	27.9375	28.4375
18	12	13	15	35	23	-0.215024527291	-0.681511175627	0.0657951860403	-0.45068359375	0.41064453125	0.0908203125	-18.25	19.6875	25.1875
18	12	13	15	35	23	-0.222717896638	-0.681520425831	0.0670778208838	-0.46142578125	0.43896484375	0.07373046875	-23.875	14.125	23.5625
18	12	13	15	35	23	-0.231263993411	-0.681157605297	0.0670171192308	-0.4931640625	0.4345703125	0.056640625	-33.5	12.5625	23.125
18	12	13	15	35	23	-0.24022275009	-0.680020803226	0.0656706501769	-0.4990234375	0.39453125	0.0546875	-41.5625	8.875	22.5
18	12	13	15	35	23	-0.250181208861	-0.678400618806	0.0634760812918	-0.5029296875	0.39697265625	0.04150390625	-49.9375	7.0625	23.8125
18	12	13	15	35	23	-0.259825001625	-0.677058666437	0.0607906275823	-0.521484375	0.35205078125	0.05126953125	-49.4375	10.25	24.8125
18	12	13	15	35	23	-0.268979233148	-0.676445845468	0.0587152308347	-0.59765625	0.33837890625	0.0224609375	-44.6875	12.875	29.5625
18	12	13	15	35	23	-0.279168775961	-0.67588872431	0.0565783680184	-0.70703125	0.3564453125	-0.01708984375	-50.5625	12.375	37.3125
18	12	13	15	35	23	-0.290648881349	-0.675535871225	0.0546873997667	-0.935546875	0.38720703125	-0.0517578125	-54.75	13.625	51.125
