18	12	13	20	06	22	0.74199253233	-0.10388017521	-0.584768483364	1.41015625	0.39306640625	0.54541015625	-40.75	3.5625	7.25
18	12	13	20	06	22	0.743264278402	-0.107601816622	-0.582868603936	1.4580078125	0.35546875	0.5830078125	-15.0	-2.9375	21.75
18	12	13	20	06	22	0.746950644973	-0.107117043792	-0.583009687922	1.27587890625	0.37109375	0.521484375	34.125	-0.875	51.0625
18	12	13	20	06	22	0.754316621942	-0.0979592344216	-0.585191987311	1.06396484375	0.30517578125	0.458984375	114.8125	16.75	68.375
18	12	13	20	06	22	0.764254442515	-0.0796479833478	-0.587564088651	0.888671875	0.27392578125	0.37451171875	179.875	35.6875	73.25
18	12	13	20	06	22	0.773924100409	-0.0572508522227	-0.589171083695	0.796875	0.283203125	0.32861328125	200.75	43.875	65.375
18	12	13	20	06	23	0.782222102629	-0.0350339799398	-0.589413143343	0.76171875	0.24658203125	0.30810546875	190.3125	45.9375	54.0
18	12	13	20	06	23	0.789011467334	-0.0155031262244	-0.588508437227	0.7373046875	0.2197265625	0.265625	165.375	43.875	46.0625
18	12	13	20	06	23	0.794323044714	0.000488288332389	-0.58686153949	0.69287109375	0.21337890625	0.2255859375	133.75	40.125	37.625
18	12	13	20	06	23	0.798490400909	0.0125126534312	-0.584310396568	0.63427734375	0.23583984375	0.224609375	92.5625	35.6875	27.75
18	12	13	20	06	23	0.801867659325	0.0191647469195	-0.58104583017	0.5810546875	0.2666015625	0.2294921875	46.0	30.375	19.25
18	12	13	20	06	23	0.804746707929	0.0207519060065	-0.577330232105	0.552734375	0.2431640625	0.24365234375	6.4375	24.9375	11.4375
18	12	13	20	06	23	0.807079960752	0.0195925786434	-0.573739063077	0.5830078125	0.185546875	0.26220703125	-14.5	20.25	2.4375
18	12	13	20	06	23	0.809099139628	0.0185550798466	-0.57044663239	0.64501953125	0.13671875	0.2822265625	-13.625	18.5625	-4.5
18	12	13	20	06	23	0.811033358558	0.0201415569178	-0.567564659936	0.7138671875	0.10693359375	0.298828125	5.125	19.375	-8.125
18	12	13	20	06	23	0.812752756105	0.0249636435301	-0.565313609721	0.79541015625	0.12744140625	0.3076171875	26.9375	20.4375	-9.75
18	12	13	20	06	23	0.814038477648	0.032227061273	-0.563790463975	0.88037109375	0.21630859375	0.28515625	40.125	21.6875	-8.3125
18	12	13	20	06	23	0.815010901688	0.0401005139227	-0.562749982294	0.93603515625	0.29638671875	0.26123046875	44.0625	21.9375	-2.8125
18	12	13	20	06	23	0.815883992343	0.0462051456724	-0.562030358457	0.95458984375	0.32373046875	0.23486328125	37.3125	21.3125	7.375
18	12	13	20	06	23	0.81686962557	0.0496200691563	-0.561384251046	0.9296875	0.3076171875	0.19287109375	25.4375	21.5625	17.4375
18	12	13	20	06	23	0.818120499357	0.0512698611951	-0.5605504824	0.90185546875	0.2705078125	0.15869140625	19.375	23.625	23.8125
18	12	13	20	06	23	0.819647389619	0.0523685650676	-0.559452526119	0.88525390625	0.21875	0.1572265625	19.75	25.5625	26.125
18	12	13	20	06	23	0.821374351978	0.0532852648641	-0.558060912546	0.85791015625	0.20263671875	0.14697265625	20.0625	27.375	28.4375
18	12	13	20	06	23	0.823318590508	0.0537119400732	-0.556345833826	0.79541015625	0.20751953125	0.14990234375	17.9375	27.9375	31.9375
18	12	13	20	06	23	0.825377209585	0.0529784380626	-0.554381512583	0.73681640625	0.21142578125	0.173828125	10.25	25.6875	34.4375
18	12	13	20	06	23	0.827300037879	0.0504168386667	-0.55244891861	0.68994140625	0.21630859375	0.1923828125	-3.625	21.5	33.875
18	12	13	20	06	23	0.828910604456	0.045531795223	-0.550776032296	0.6630859375	0.21728515625	0.1845703125	-22.0	17.5625	31.1875
18	12	13	20	06	23	0.830461985752	0.0390022937598	-0.549022898856	0.63671875	0.21435546875	0.2197265625	-34.125	13.875	29.875
18	12	13	20	06	23	0.831548871554	0.0325319692116	-0.547855451488	0.68603515625	0.15966796875	0.3095703125	-31.75	5.25	25.4375
18	12	13	20	06	23	0.830624080986	0.0281370931982	-0.549375218823	0.91259765625	0.05126953125	0.3349609375	-20.6875	-8.8125	3.8125
18	12	13	20	06	23	0.827705584348	0.0256350081429	-0.553349961485	1.171875	0.06103515625	0.32177734375	-18.5	-18.3125	-16.625
18	12	13	20	06	23	0.823813118755	0.0242926295669	-0.558547369766	1.28369140625	0.1064453125	0.2802734375	-15.125	-22.5625	-21.75
18	12	13	20	06	23	0.819818455756	0.0213011197929	-0.564021914059	1.14404296875	0.22021484375	0.18310546875	-23.875	-23.3125	-3.0
18	12	13	20	06	23	0.815992028064	0.0170290803972	-0.568978808109	1.0595703125	0.28662109375	0.18408203125	-35.5	-24.1875	0.9375
18	12	13	20	06	23	0.81102400773	0.0125730693552	-0.574699131305	1.23828125	0.21630859375	0.2890625	-45.3125	-35.4375	-23.6875
18	12	13	20	06	23	0.803677436509	0.00622579923475	-0.582844675418	1.54296875	0.10888671875	0.32177734375	-59.5625	-53.125	-44.6875
18	12	13	20	06	23	0.795477755332	-0.002197283756	-0.591801758283	1.54833984375	0.1044921875	0.27978515625	-66.625	-60.5	-35.125
18	12	13	20	06	23	0.787758251975	-0.00939914548727	-0.60032464294	1.330078125	0.15673828125	0.265625	-51.625	-62.0625	-18.75
18	12	13	20	06	23	0.780568008452	-0.0142209981992	-0.608023965924	1.1142578125	0.2197265625	0.28125	-40.0	-61.25	-16.5
18	12	13	20	06	23	0.773444448298	-0.0202638539169	-0.614995759237	0.97216796875	0.23828125	0.27685546875	-50.5	-62.5625	-15.3125
18	12	13	20	06	23	0.765957793058	-0.0285654830784	-0.621665481097	0.919921875	0.16845703125	0.27294921875	-63.875	-65.9375	-17.375
18	12	13	20	06	23	0.758681704685	-0.0364997312471	-0.628063937346	0.90234375	0.04736328125	0.30859375	-55.3125	-67.75	-20.4375
18	12	13	20	06	23	0.752305618948	-0.0407707409912	-0.634509915186	0.88916015625	-0.0556640625	0.330078125	-21.375	-65.0625	-20.625
18	12	13	20	06	23	0.746985564618	-0.0397936586429	-0.641153963257	0.84912109375	-0.056640625	0.30908203125	18.4375	-58.0	-18.5625
18	12	13	20	06	23	0.742417671098	-0.0349724864797	-0.647753924972	0.80810546875	0.00634765625	0.26953125	43.5625	-50.75	-15.6875
18	12	13	20	06	23	0.738096104314	-0.0292357590314	-0.653989891485	0.79052734375	0.07470703125	0.228515625	46.875	-45.5625	-13.625
18	12	13	20	06	23	0.734022551664	-0.0246586654642	-0.659375155964	0.78173828125	0.1201171875	0.1943359375	34.4375	-40.375	-12.5
18	12	13	20	06	23	0.73035981856	-0.0227665228416	-0.663586156392	0.76904296875	0.13037109375	0.15234375	13.4375	-34.0	-10.375
18	12	13	20	06	23	0.727482967846	-0.0236818014535	-0.666264290377	0.77783203125	0.1123046875	0.13671875	-7.875	-26.0	-9.375
18	12	13	20	06	23	0.725582377651	-0.0266111975653	-0.667294089406	0.81982421875	0.083984375	0.12890625	-24.9375	-16.375	-11.25
18	12	13	20	06	23	0.724549744757	-0.0309448842214	-0.666871410261	0.86767578125	0.064453125	0.11279296875	-38.125	-6.625	-13.5625
18	12	13	20	06	23	0.724133056382	-0.0361944455862	-0.665233157578	0.916015625	0.0830078125	0.09765625	-49.4375	1.625	-14.9375
18	12	13	20	06	23	0.724114978456	-0.0429073524827	-0.662469991248	0.947265625	0.10888671875	0.09375	-63.5	7.75	-14.875
18	12	13	20	06	23	0.724442794225	-0.0520641758762	-0.658340212193	0.95166015625	0.126953125	0.11328125	-82.625	11.9375	-11.9375
18	12	13	20	06	23	0.724783496178	-0.063536810065	-0.652946007757	0.939453125	0.13427734375	0.1455078125	-102.0625	14.125	-8.625
18	12	13	20	06	23	0.724830075547	-0.0773900754289	-0.64652450238	0.9296875	0.1142578125	0.18017578125	-119.5	14.875	-7.125
18	12	13	20	06	24	0.72452142674	-0.0925868927946	-0.639319513529	0.9189453125	0.06689453125	0.24169921875	-128.5625	14.5	-6.1875
18	12	13	20	06	24	0.723942840016	-0.107178452666	-0.632023278675	0.89599609375	0.0078125	0.31005859375	-123.6875	13.125	-6.25
18	12	13	20	06	24	0.723065714316	-0.119442863418	-0.62565600046	0.87841796875	-0.0537109375	0.373046875	-104.5625	9.75	-8.0625
18	12	13	20	06	24	0.723914734213	-0.128841076125	-0.619120737194	0.86767578125	-0.0830078125	0.4208984375	-72.5625	4.6875	-10.1875
18	12	13	20	06	24	0.724896633514	-0.133602654775	-0.61497503404	0.8466796875	-0.06396484375	0.42236328125	-35.9375	0.0625	-10.125
18	12	13	20	06	24	0.726134762938	-0.133850007155	-0.613036694876	0.796875	-0.00927734375	0.4189453125	-1.8125	-3.875	-8.25
18	12	13	20	06	24	0.727212609931	-0.131160713281	-0.612958140288	0.75341796875	0.04345703125	0.39453125	20.125	-8.1875	-7.3125
18	12	13	20	06	24	0.727886387471	-0.126888797548	-0.614302908762	0.73876953125	0.07568359375	0.3564453125	32.5625	-11.375	-6.4375
18	12	13	20	06	24	0.728488331161	-0.121638509049	-0.616370949765	0.7353515625	0.072265625	0.3125	41.625	-11.25	-6.3125
18	12	13	20	06	24	0.729371914566	-0.115295694277	-0.618653868288	0.74169921875	0.07568359375	0.25390625	49.3125	-5.9375	-5.9375
18	12	13	20	06	24	0.731215171949	-0.107668077072	-0.620129060685	0.7265625	0.08935546875	0.23681640625	55.6875	3.0	-5.8125
18	12	13	20	06	24	0.733338843422	-0.0981447241135	-0.621583252719	0.8505859375	0.08349609375	0.2802734375	65.875	5.9375	-12.6875
18	12	13	20	06	24	0.734180798572	-0.0875841255258	-0.623769869599	1.087890625	0.10205078125	0.24853515625	63.625	6.0625	-28.5625
18	12	13	20	06	24	0.733956318839	-0.0780648758249	-0.626105939181	1.3125	0.220703125	0.2265625	50.5625	5.6875	-30.8125
18	12	13	20	06	24	0.733235072945	-0.073122085856	-0.627275188933	1.2626953125	0.39599609375	0.14599609375	16.3125	8.125	-13.9375
18	12	13	20	06	24	0.733257553553	-0.0735454762803	-0.626143602622	1.2734375	0.5185546875	0.25830078125	-16.6875	6.375	7.1875
18	12	13	20	06	24	0.732660554169	-0.0737299191467	-0.624812237007	1.638671875	0.43505859375	0.39599609375	-20.625	2.625	-15.75
18	12	13	20	06	24	0.732452308211	-0.0779386382455	-0.622471551657	1.671875	0.40576171875	0.396484375	-39.125	3.3125	-2.9375
18	12	13	20	06	24	0.733942244619	-0.0827630506198	-0.619746324479	1.4716796875	0.435546875	0.37890625	-27.625	7.1875	25.0
18	12	13	20	06	24	0.739245470982	-0.081480573296	-0.61674995742	1.2001953125	0.3427734375	0.34228515625	29.125	25.4375	42.75
18	12	13	20	06	24	0.747739089167	-0.073730211388	-0.613523249066	0.97314453125	0.28125	0.25830078125	83.3125	47.0625	55.75
18	12	13	20	06	24	0.758125280077	-0.0621954480636	-0.609442148101	0.82763671875	0.2744140625	0.23779296875	116.25	61.3125	61.0
18	12	13	20	06	24	0.768486605506	-0.0474238815406	-0.604974921275	0.7978515625	0.19580078125	0.23388671875	133.75	67.0	53.625
18	12	13	20	06	24	0.778266915509	-0.0314944497218	-0.599798367085	0.82373046875	0.14453125	0.17724609375	135.125	70.9375	44.3125
18	12	13	20	06	24	0.787431104185	-0.0159915471123	-0.593579372777	0.8095703125	0.162109375	0.1513671875	124.9375	73.875	36.9375
18	12	13	20	06	24	0.795361325586	-0.00299076854836	-0.586923068593	0.73583984375	0.177734375	0.1884765625	99.1875	71.625	30.25
18	12	13	20	06	24	0.802325220888	0.00476084954197	-0.579602913469	0.64208984375	0.20361328125	0.232421875	57.25	63.0625	25.75
18	12	13	20	06	24	0.80802467085	0.0067747366466	-0.572556797133	0.5791015625	0.1953125	0.27197265625	14.5625	49.25	21.3125
18	12	13	20	06	24	0.812196104077	0.00390625615547	-0.566590248301	0.56396484375	0.1494140625	0.2900390625	-19.375	34.5	14.375
18	12	13	20	06	24	0.815119205355	-0.00158690373188	-0.561702886326	0.59814453125	0.08984375	0.31640625	-37.3125	22.9375	6.375
18	12	13	20	06	24	0.817229868642	-0.00671411498623	-0.557820880538	0.65771484375	0.0400390625	0.345703125	-34.4375	16.0	0.125
18	12	13	20	06	24	0.818733081392	-0.00903328582422	-0.555180863899	0.7177734375	0.0263671875	0.36767578125	-14.75	11.3125	-4.0625
18	12	13	20	06	24	0.81956023169	-0.00720197403481	-0.554307865967	0.7744140625	0.04931640625	0.337890625	14.0	7.375	-4.4375
18	12	13	20	06	24	0.819711425518	-0.00122071694046	-0.555182064521	0.83740234375	0.10986328125	0.3037109375	42.125	4.1875	-1.9375
18	12	13	20	06	24	0.819102833848	0.00799571320671	-0.557563665216	0.9130859375	0.1689453125	0.2568359375	63.5	2.3125	-0.0625
18	12	13	20	06	24	0.818124216144	0.0187379986837	-0.560553029026	0.9716796875	0.216796875	0.21630859375	74.5625	2.8125	3.8125
18	12	13	20	06	24	0.816863091834	0.0291758617572	-0.563741128011	1.0009765625	0.2626953125	0.16943359375	73.0625	4.0	8.625
18	12	13	20	06	24	0.815614179999	0.0377197907086	-0.56659031901	0.99072265625	0.31005859375	0.1201171875	60.6875	6.4375	14.875
18	12	13	20	06	24	0.814990752593	0.0435174422676	-0.568412257837	0.92578125	0.33837890625	0.103515625	44.375	10.875	24.125
18	12	13	20	06	24	0.815187063762	0.0468750872244	-0.569092855834	0.83447265625	0.32275390625	0.10205078125	31.9375	14.875	31.5625
18	12	13	20	06	24	0.816013496715	0.048586038102	-0.568810664664	0.76904296875	0.29541015625	0.12890625	22.6875	17.0	33.6875
18	12	13	20	06	24	0.817303296272	0.0491321897916	-0.567797219417	0.7099609375	0.2490234375	0.1611328125	16.1875	17.75	33.0625
18	12	13	20	06	24	0.818749776484	0.0488906046641	-0.566484022331	0.66650390625	0.21875	0.19384765625	11.5	16.25	31.375
18	12	13	20	06	24	0.820073901188	0.0484622415558	-0.565189366255	0.642578125	0.19140625	0.2109375	8.5	13.625	26.625
18	12	13	20	06	24	0.82115699222	0.0477899453626	-0.564080044752	0.63525390625	0.16943359375	0.21044921875	4.5	11.875	20.6875
18	12	13	20	06	24	0.822247826981	0.0471181207267	-0.562854027644	0.62451171875	0.16552734375	0.244140625	2.0	9.75	17.625
18	12	13	20	06	24	0.822309439763	0.0475453910469	-0.5629154578	0.74267578125	0.09716796875	0.30029296875	7.9375	-0.125	3.75
18	12	13	20	06	24	0.820405608061	0.0486469213321	-0.565390755708	0.95361328125	0.052734375	0.29248046875	3.4375	-12.875	-18.4375
18	12	13	20	06	24	0.816379967974	0.0501119965388	-0.570336779122	1.22509765625	0.072265625	0.232421875	-7.5	-22.6875	-41.6875
18	12	13	20	06	24	0.811476157039	0.0486458440887	-0.576242677593	1.22705078125	0.18505859375	0.09521484375	-33.5	-24.125	-38.4375
18	12	13	20	06	25	0.807244658417	0.0413815120525	-0.581477382484	1.06201171875	0.3095703125	0.041015625	-63.6875	-22.8125	-7.75
18	12	13	20	06	25	0.802557359694	0.0325930207678	-0.586674373821	1.1728515625	0.248046875	0.12890625	-76.875	-29.6875	-20.375
18	12	13	20	06	25	0.795668945581	0.0219730607862	-0.593516786348	1.39697265625	0.08056640625	0.1220703125	-96.4375	-43.0	-52.5
18	12	13	20	06	25	0.789850993177	0.00659175544882	-0.598079737435	1.35986328125	0.1455078125	0.0947265625	-123.25	-48.0625	-28.5625
18	12	13	20	06	25	0.784313431932	-0.00878919332282	-0.602609067196	1.17333984375	0.1728515625	0.14501953125	-105.6875	-48.5625	-3.75
18	12	13	20	06	25	0.77826652265	-0.0202028247978	-0.608159958567	1.09033203125	0.05712890625	0.2080078125	-73.0	-49.375	-10.25
18	12	13	20	06	25	0.771715754204	-0.0291132881015	-0.614125586745	1.08544921875	0.009765625	0.24267578125	-59.375	-54.1875	-20.3125
18	12	13	20	06	25	0.764398818098	-0.037963595086	-0.620723090071	1.06201171875	0.04052734375	0.2734375	-58.125	-63.75	-18.875
18	12	13	20	06	25	0.756359351031	-0.0469367608895	-0.628122504959	1.01220703125	0.0283203125	0.3154296875	-53.6875	-75.375	-14.125
18	12	13	20	06	25	0.747737303652	-0.0548702829143	-0.636531902684	0.98779296875	-0.02685546875	0.3388671875	-39.5	-84.875	-13.1875
18	12	13	20	06	25	0.738407965026	-0.0602420781518	-0.646061192743	0.98486328125	-0.060546875	0.306640625	-22.3125	-89.8125	-19.5
18	12	13	20	06	25	0.728452652266	-0.0636594986438	-0.656187219482	0.97314453125	-0.02001953125	0.25537109375	-14.1875	-90.875	-24.375
18	12	13	20	06	25	0.718317056854	-0.0660395152957	-0.666193446814	0.95849609375	0.05029296875	0.20947265625	-12.1875	-89.0	-25.125
18	12	13	20	06	25	0.708409910379	-0.0682959153713	-0.675513128981	0.93310546875	0.10888671875	0.15185546875	-14.9375	-82.625	-23.125
18	12	13	20	06	25	0.699280453345	-0.0706787784737	-0.683533367985	0.91357421875	0.13623046875	0.10595703125	-19.8125	-73.0	-22.1875
18	12	13	20	06	25	0.691173446408	-0.0739147866125	-0.689891687103	0.90234375	0.15576171875	0.07763671875	-28.9375	-61.6875	-20.5
18	12	13	20	06	25	0.684436016376	-0.0781236045087	-0.694262501005	0.9033203125	0.16796875	0.06298828125	-38.875	-48.875	-17.75
18	12	13	20	06	25	0.679323518593	-0.0832522263577	-0.696596524501	0.92138671875	0.15234375	0.0654296875	-46.0625	-36.1875	-15.25
18	12	13	20	06	25	0.675809573683	-0.0886187574269	-0.697170844413	0.93408203125	0.13427734375	0.0654296875	-48.625	-23.4375	-13.4375
18	12	13	20	06	25	0.67380387396	-0.0939297248211	-0.696202970132	0.9375	0.12353515625	0.0771484375	-49.5	-12.0	-11.5
18	12	13	20	06	25	0.673149677951	-0.0993031576776	-0.693718309873	0.939453125	0.12158203125	0.1103515625	-51.1875	-2.9375	-9.625
18	12	13	20	06	25	0.673510651356	-0.105222688078	-0.689867774561	0.93408203125	0.1083984375	0.1435546875	-56.25	4.5	-8.3125
18	12	13	20	06	25	0.674742723565	-0.111572112047	-0.684752475411	0.91015625	0.0888671875	0.177734375	-60.4375	10.625	-7.3125
18	12	13	20	06	25	0.676744947595	-0.117856646267	-0.678759069463	0.8818359375	0.052734375	0.21435546875	-60.0	15.0	-7.25
18	12	13	20	06	25	0.679202645951	-0.12323060228	-0.67254978035	0.87939453125	0.017578125	0.24755859375	-52.875	17.5	-9.5
18	12	13	20	06	25	0.681998343895	-0.127073613029	-0.666556641639	0.87060546875	0.00537109375	0.25830078125	-42.25	19.5	-11.5625
18	12	13	20	06	25	0.685098447328	-0.129207431002	-0.660929272705	0.84814453125	0.021484375	0.26708984375	-30.3125	21.1875	-11.6875
18	12	13	20	06	25	0.688259949348	-0.129876489511	-0.65579082697	0.8134765625	0.046875	0.25634765625	-20.375	22.5	-12.0
18	12	13	20	06	25	0.691640143721	-0.129636751259	-0.650808229129	0.767578125	0.0771484375	0.251953125	-14.6875	24.3125	-10.3125
18	12	13	20	06	25	0.695368397019	-0.128722193392	-0.645869251054	0.708984375	0.09130859375	0.2451171875	-8.8125	26.6875	-7.0625
18	12	13	20	06	25	0.699562066972	-0.126765870974	-0.641031267615	0.708984375	0.08349609375	0.2548828125	-0.3125	29.125	-6.4375
18	12	13	20	06	25	0.703709422567	-0.122615111009	-0.637122520571	0.873046875	0.04345703125	0.29150390625	15.375	27.9375	-16.125
18	12	13	20	06	25	0.707216712111	-0.11590614795	-0.634706704863	1.13671875	0.04345703125	0.3017578125	30.8125	26.25	-28.75
18	12	13	20	06	25	0.709656508558	-0.107666128932	-0.633850764718	1.365234375	0.17333984375	0.23486328125	38.5	26.1875	-30.4375
18	12	13	20	06	25	0.712885873956	-0.101134579893	-0.632075865641	1.23388671875	0.3896484375	0.2197265625	30.0625	29.3125	-2.6875
18	12	13	20	06	25	0.717278464081	-0.0969229238394	-0.629327624501	1.20166015625	0.4697265625	0.35546875	26.9375	24.0625	21.0625
18	12	13	20	06	25	0.721144902379	-0.0900286695733	-0.627942340725	1.51025390625	0.3759765625	0.4423828125	46.25	18.875	2.5625
18	12	13	20	06	25	0.725068949609	-0.0834927881368	-0.627538631303	1.642578125	0.43603515625	0.341796875	54.0625	22.375	17.3125
18	12	13	20	06	25	0.731780927734	-0.0752532013258	-0.626621750212	1.4404296875	0.482421875	0.2900390625	83.3125	35.1875	49.8125
18	12	13	20	06	25	0.741936198073	-0.0629266387145	-0.624322587207	1.20947265625	0.4306640625	0.20751953125	127.4375	55.9375	62.75
18	12	13	20	06	25	0.753834808932	-0.0470574558891	-0.62010862754	1.0224609375	0.42724609375	0.1689453125	151.1875	74.6875	67.125
18	12	13	20	06	25	0.765816130683	-0.0299685757683	-0.614386321149	0.91162109375	0.3564453125	0.19384765625	156.5625	81.8125	64.75
18	12	13	20	06	25	0.776538354348	-0.0131833910665	-0.607961844507	0.845703125	0.25048828125	0.181640625	147.75	80.875	54.25
18	12	13	20	06	25	0.78525034338	0.00158685752587	-0.60154106827	0.78857421875	0.19287109375	0.1552734375	123.3125	72.8125	38.875
18	12	13	20	06	25	0.791683168856	0.0136718086365	-0.595822303166	0.736328125	0.1875	0.16455078125	90.4375	62.1875	22.4375
18	12	13	20	06	25	0.796902842387	0.0216682375189	-0.590047470692	0.693359375	0.18994140625	0.19775390625	52.25	52.3125	9.5625
18	12	13	20	06	25	0.801020308833	0.0254514986881	-0.584652052599	0.67626953125	0.1845703125	0.21044921875	17.25	42.875	0.375
18	12	13	20	06	25	0.804246162107	0.0258174187274	-0.57976279076	0.67529296875	0.1806640625	0.21044921875	-10.25	34.9375	-6.0625
18	12	13	20	06	25	0.806792375525	0.0242318484705	-0.575399585722	0.68798828125	0.1650390625	0.21826171875	-24.8125	28.8125	-9.9375
18	12	13	20	06	25	0.808707761457	0.0225217482247	-0.571832680535	0.705078125	0.14208984375	0.22119140625	-24.6875	23.6875	-12.375
18	12	13	20	06	25	0.81005779406	0.0227660908065	-0.569335375451	0.74462890625	0.126953125	0.23193359375	-9.0	19.4375	-13.25
18	12	13	20	06	26	0.810845450721	0.0261838689017	-0.56811061011	0.8056640625	0.13330078125	0.224609375	15.5	16.4375	-12.4375
18	12	13	20	06	26	0.811275068779	0.0328367429283	-0.567929169048	0.84326171875	0.17333984375	0.20703125	39.625	15.375	-7.4375
18	12	13	20	06	26	0.811518296665	0.0411374347136	-0.568416809329	0.8359375	0.21923828125	0.18115234375	55.5625	15.25	2.25
18	12	13	20	06	26	0.811697069436	0.0496820373352	-0.569146189374	0.80224609375	0.23974609375	0.15869140625	61.3125	14.5625	10.8125
18	12	13	20	06	26	0.81170485567	0.0574339626427	-0.570006139341	0.78466796875	0.2294921875	0.15087890625	58.8125	12.8125	13.6875
18	12	13	20	06	26	0.811345887403	0.0637821750046	-0.57123193863	0.8115234375	0.20361328125	0.14208984375	51.375	9.75	13.25
18	12	13	20	06	26	0.8105395905	0.0686028990755	-0.572931862653	0.8603515625	0.19287109375	0.1337890625	41.1875	6.0625	11.6875
18	12	13	20	06	26	0.809471161934	0.0718404130295	-0.574906414889	0.88232421875	0.197265625	0.13720703125	30.8125	2.875	11.9375
18	12	13	20	06	26	0.808359617739	0.0732430943285	-0.576972475573	0.8671875	0.2041015625	0.1494140625	19.5	-0.6875	14.625
18	12	13	20	06	26	0.807070136548	0.073120322437	-0.579225258704	0.85107421875	0.2236328125	0.16650390625	8.0625	-5.5	15.1875
18	12	13	20	06	26	0.805623225541	0.0715960333025	-0.581618585967	0.8349609375	0.24365234375	0.18212890625	-3.4375	-9.4375	14.25
18	12	13	20	06	26	0.804183802418	0.0690904723996	-0.583973180141	0.81689453125	0.26318359375	0.1953125	-11.5	-11.875	15.375
18	12	13	20	06	26	0.802811453957	0.0660413588673	-0.586254391794	0.79736328125	0.2705078125	0.21240234375	-13.8125	-13.375	18.0
18	12	13	20	06	26	0.801533777995	0.063600228196	-0.588393665844	0.78759765625	0.2578125	0.2314453125	-9.125	-13.6875	17.875
18	12	13	20	06	26	0.800413934316	0.0624999137364	-0.590270181392	0.77783203125	0.25244140625	0.251953125	0.0625	-12.5625	17.125
18	12	13	20	06	26	0.799476354426	0.0631085235878	-0.591840767148	0.7509765625	0.2607421875	0.25537109375	10.75	-10.6875	17.0625
18	12	13	20	06	26	0.798694546043	0.064940470502	-0.593131101822	0.7158203125	0.27490234375	0.26220703125	18.1875	-9.375	16.8125
18	12	13	20	06	26	0.797900678375	0.0675649086637	-0.594290438716	0.6865234375	0.275390625	0.26708984375	21.125	-9.75	13.375
18	12	13	20	06	26	0.797053213637	0.0700068945587	-0.595394295048	0.65234375	0.28271484375	0.26220703125	16.8125	-10.6875	10.375
18	12	13	20	06	26	0.796284944754	0.0714129530402	-0.596328676242	0.60302734375	0.29052734375	0.2412109375	7.0	-10.125	8.6875
18	12	13	20	06	26	0.795953705444	0.0717157889653	-0.596675364191	0.55224609375	0.27001953125	0.2763671875	-1.3125	-10.125	6.8125
18	12	13	20	06	26	0.794751143784	0.0727550390439	-0.597909700062	0.69580078125	0.14306640625	0.33251953125	1.0625	-18.875	-13.25
18	12	13	20	06	26	0.791984438386	0.0742180238192	-0.600519026609	0.97119140625	0.06982421875	0.3134765625	-10.6875	-26.0	-45.8125
18	12	13	20	06	26	0.787849046275	0.0761725759027	-0.604131535484	1.2841796875	0.07861328125	0.244140625	-22.3125	-26.875	-72.0625
18	12	13	20	06	26	0.78351265712	0.0756229790584	-0.607608358778	1.3505859375	0.1943359375	0.1484375	-46.5625	-22.875	-71.0
18	12	13	20	06	26	0.778909479302	0.070676788672	-0.611250465069	1.5029296875	0.34326171875	0.21435546875	-73.0	-30.5	-57.625
18	12	13	20	06	26	0.772417127119	0.06390523367	-0.615919496623	1.71435546875	0.3037109375	0.2109375	-95.3125	-42.0625	-81.9375
18	12	13	20	06	26	0.76733032118	0.0457151137897	-0.617978006836	1.5146484375	0.484375	0.01904296875	-162.75	-44.875	-44.0
18	12	13	20	06	26	0.763937799801	0.0225226149031	-0.61775443207	1.20361328125	0.52587890625	0.0849609375	-174.375	-34.5625	-6.8125
18	12	13	20	06	26	0.761477274482	0.006042501617	-0.616945518633	1.111328125	0.25537109375	0.2314453125	-121.0625	-23.4375	-4.75
18	12	13	20	06	26	0.759939725124	-0.00506585793794	-0.616325704305	1.12890625	0.10546875	0.27197265625	-73.5625	-14.9375	-8.9375
18	12	13	20	06	26	0.75886088265	-0.0100099078866	-0.616707983455	1.15625	0.1279296875	0.34423828125	-26.5	-14.6875	-6.5625
18	12	13	20	06	26	0.758161558721	-0.0098264378485	-0.618516280476	1.0947265625	0.0947265625	0.4150390625	18.4375	-19.625	-1.5625
18	12	13	20	06	26	0.757071204072	-0.00689689181394	-0.622063020953	0.978515625	0.07763671875	0.35205078125	45.0	-24.0	5.6875
18	12	13	20	06	26	0.755794878126	-0.00250242994454	-0.626278869778	0.86328125	0.1142578125	0.2822265625	56.75	-23.75	12.5
18	12	13	20	06	26	0.75474490577	0.00122067751216	-0.630052697902	0.7548828125	0.15625	0.22607421875	51.8125	-20.5	20.0
18	12	13	20	06	26	0.753805368835	0.00274665923867	-0.633074436077	0.68408203125	0.18310546875	0.169921875	34.3125	-16.625	24.0625
18	12	13	20	06	26	0.753052421275	0.00225830277089	-0.635193430719	0.64453125	0.16748046875	0.14013671875	16.0625	-13.0	21.5625
18	12	13	20	06	26	0.752696570934	0.000488288401514	-0.636239787173	0.6259765625	0.13671875	0.1181640625	1.5	-7.0	15.625
18	12	13	20	06	26	0.752810660009	-0.0016479558797	-0.636233040371	0.63330078125	0.10009765625	0.10107421875	-7.1875	-0.125	7.4375
18	12	13	20	06	26	0.753155223613	-0.00335685067251	-0.635543382778	0.6904296875	0.0673828125	0.1005859375	-11.0	5.125	-3.75
18	12	13	20	06	26	0.753366903788	-0.00482184115687	-0.634407809931	0.75830078125	0.08056640625	0.1083984375	-18.8125	7.125	-14.25
18	12	13	20	06	26	0.753177815186	-0.00744632848077	-0.632876885386	0.8203125	0.126953125	0.13916015625	-35.4375	5.375	-21.4375
18	12	13	20	06	26	0.752317416158	-0.0132445951084	-0.630796730164	0.86181640625	0.18505859375	0.1630859375	-64.5	1.9375	-25.0
18	12	13	20	06	26	0.750961823748	-0.0234370400129	-0.627734261805	0.8701171875	0.20654296875	0.1962890625	-98.0	-2.125	-24.6875
18	12	13	20	06	26	0.748971422908	-0.0374150014051	-0.624030953289	0.830078125	0.181640625	0.25	-122.25	-6.3125	-20.3125
18	12	13	20	06	26	0.746575927905	-0.0531611864949	-0.619867979382	0.78125	0.1337890625	0.30322265625	-130.1875	-9.125	-15.875
18	12	13	20	06	26	0.744004445826	-0.067503602714	-0.615833048268	0.7412109375	0.06884765625	0.361328125	-118.6875	-9.8125	-15.1875
18	12	13	20	06	26	0.742906990637	-0.0789781174733	-0.610951279681	0.71337890625	0.0224609375	0.3935546875	-92.0	-9.25	-16.875
18	12	13	20	06	26	0.742568232678	-0.0855119261863	-0.607311681337	0.6748046875	0.0	0.4072265625	-53.5	-7.6875	-16.4375
18	12	13	20	06	27	0.74285327595	-0.086364093786	-0.605647281016	0.64453125	0.0009765625	0.404296875	-9.6875	-7.3125	-16.0625
18	12	13	20	06	27	0.743465248649	-0.0823970187732	-0.605831709883	0.642578125	0.03662109375	0.3759765625	25.1875	-6.6875	-16.25
18	12	13	20	06	27	0.744327398939	-0.074951541279	-0.60736383328	0.7001953125	0.07470703125	0.40185546875	51.9375	-7.6875	-15.25
18	12	13	20	06	27	0.744182072769	-0.0641462608448	-0.611006867095	0.96435546875	0.05810546875	0.45947265625	75.625	-15.5	-28.9375
18	12	13	20	06	27	0.742317072736	-0.0519414429286	-0.616278201234	1.2900390625	0.12744140625	0.45166015625	80.0	-21.125	-42.5625
18	12	13	20	06	27	0.7386587527	-0.0413214324556	-0.62281225521	1.54345703125	0.31787109375	0.33154296875	66.375	-23.8125	-37.5625
18	12	13	20	06	27	0.735432814186	-0.0365000267975	-0.627336580978	1.4716796875	0.556640625	0.2548828125	26.625	-18.9375	-9.0
18	12	13	20	06	27	0.73405143867	-0.0355826048678	-0.629500834659	1.4248046875	0.60595703125	0.34326171875	8.75	-15.25	13.1875
18	12	13	20	06	27	0.733930821787	-0.0339957977327	-0.630966888618	1.556640625	0.5595703125	0.349609375	18.375	-6.0625	15.125
18	12	13	20	06	27	0.736104060305	-0.031556036416	-0.631242801963	1.57666015625	0.5400390625	0.27001953125	33.25	13.125	30.5
18	12	13	20	06	27	0.741819622678	-0.0250853928682	-0.62969829251	1.45263671875	0.5244140625	0.23291015625	69.5625	39.375	49.125
18	12	13	20	06	27	0.751566351192	-0.0144649362703	-0.625227034401	1.248046875	0.51904296875	0.20361328125	109.6875	66.4375	61.125
18	12	13	20	06	27	0.763067029663	-0.00164796111029	-0.618595772327	1.056640625	0.505859375	0.20263671875	127.875	84.1875	69.75
18	12	13	20	06	27	0.774998769862	0.0107418320598	-0.610087234489	0.9150390625	0.42333984375	0.22705078125	124.6875	92.8125	72.0
18	12	13	20	06	27	0.786305695068	0.0211789238678	-0.600395026188	0.7822265625	0.30712890625	0.23974609375	107.0625	93.375	65.875
18	12	13	20	06	27	0.796204136797	0.0296631054414	-0.590271384205	0.666015625	0.25244140625	0.22998046875	77.375	87.3125	51.375
18	12	13	20	06	27	0.804761431027	0.0345464520259	-0.58008742059	0.58447265625	0.24560546875	0.24072265625	39.3125	78.375	34.125
18	12	13	20	06	27	0.812277678426	0.0360727463142	-0.57002263592	0.53857421875	0.22900390625	0.2646484375	6.25	68.9375	18.6875
18	12	13	20	06	27	0.818706951132	0.0349113147493	-0.560656184069	0.5283203125	0.17822265625	0.28466796875	-16.4375	59.1875	6.6875
18	12	13	20	06	27	0.824206790842	0.0323481634439	-0.55217704656	0.52587890625	0.14306640625	0.283203125	-26.6875	51.5625	1.4375
18	12	13	20	06	27	0.829107268829	0.030029503553	-0.544498376415	0.50390625	0.126953125	0.30126953125	-22.9375	45.25	2.0
18	12	13	20	06	27	0.833254874104	0.0298462960326	-0.53820989451	0.4833984375	0.0986328125	0.3115234375	-4.125	37.5625	3.5625
18	12	13	20	06	27	0.836035878827	0.0327139167069	-0.534103516981	0.55322265625	0.0810546875	0.28369140625	16.6875	29.4375	-1.375
18	12	13	20	06	27	0.837725534374	0.0389412670988	-0.531688679777	0.65478515625	0.10546875	0.25	37.0625	25.8125	-6.4375
18	12	13	20	06	27	0.838582662936	0.0480358509157	-0.53059167981	0.75634765625	0.13623046875	0.228515625	55.75	23.875	-7.6875
18	12	13	20	06	27	0.838601278611	0.0583523416808	-0.530664496415	0.8466796875	0.18994140625	0.19970703125	63.4375	21.25	-5.9375
18	12	13	20	06	27	0.838080005896	0.0679326375764	-0.531559156023	0.90673828125	0.23681640625	0.16650390625	60.875	18.8125	0.6875
18	12	13	20	06	27	0.837147765174	0.0755605813127	-0.533135442461	0.9365234375	0.275390625	0.13671875	50.3125	15.75	8.25
18	12	13	20	06	27	0.836039240734	0.0801372114968	-0.535082203498	0.94580078125	0.29541015625	0.1201171875	32.125	12.0625	13.1875
18	12	13	20	06	27	0.835150943594	0.0812384642201	-0.536930706044	0.908203125	0.30908203125	0.13037109375	11.3125	8.625	19.6875
18	12	13	20	06	27	0.834587417146	0.0791008697252	-0.538630536516	0.849609375	0.2998046875	0.1591796875	-5.4375	5.1875	27.5625
18	12	13	20	06	27	0.834255495254	0.0755029300285	-0.540117564933	0.79150390625	0.267578125	0.1953125	-11.9375	1.75	30.875
18	12	13	20	06	27	0.834029398377	0.0717149318034	-0.541493510604	0.7490234375	0.24462890625	0.2275390625	-10.3125	-0.75	33.4375
18	12	13	20	06	27	0.833810928278	0.0687263820541	-0.542852968019	0.69140625	0.2431640625	0.25048828125	-2.875	-3.0	37.1875
18	12	13	20	06	27	0.833574761031	0.0672011284979	-0.544139927846	0.63525390625	0.24609375	0.2861328125	7.6875	-5.625	39.5625
18	12	13	20	06	27	0.833153334987	0.0671405617938	-0.545547583012	0.60107421875	0.2392578125	0.3046875	17.625	-8.25	38.875
18	12	13	20	06	27	0.83239969051	0.0687868053383	-0.54724267672	0.62890625	0.22509765625	0.3349609375	28.9375	-11.125	35.875
18	12	13	20	06	27	0.830142484624	0.0737307640192	-0.550600349518	0.8759765625	0.17919921875	0.38134765625	45.3125	-19.625	15.75
18	12	13	20	06	27	0.826231441974	0.0808714383258	-0.555663075108	1.19921875	0.17529296875	0.337890625	44.1875	-24.125	-14.1875
18	12	13	20	06	27	0.821849206421	0.0867931356503	-0.561225655629	1.390625	0.26318359375	0.29248046875	28.3125	-22.8125	-20.1875
18	12	13	20	06	27	0.817308128023	0.0888046692758	-0.567373337174	1.38671875	0.29296875	0.22900390625	4.3125	-25.0625	-13.0
18	12	13	20	06	27	0.812869346618	0.0865481854261	-0.573671646558	1.2763671875	0.33447265625	0.1640625	-26.875	-28.25	-8.0
18	12	13	20	06	27	0.808001212045	0.0815447665276	-0.580335059988	1.3037109375	0.34423828125	0.19921875	-54.0	-36.9375	-21.125
18	12	13	20	06	27	0.802326108631	0.072816663948	-0.587721422595	1.3994140625	0.2666015625	0.2314453125	-83.0625	-48.25	-35.875
18	12	13	20	06	27	0.79704991634	0.0604852184006	-0.593927003286	1.3798828125	0.20263671875	0.19921875	-108.3125	-54.875	-36.375
18	12	13	20	06	27	0.791446065655	0.0482179680626	-0.59985593686	1.25244140625	0.16455078125	0.2373046875	-105.0625	-56.25	-33.625
18	12	13	20	06	27	0.785538301474	0.038086705526	-0.60578614158	1.11376953125	0.15283203125	0.27490234375	-85.25	-54.8125	-33.875
18	12	13	20	06	27	0.779906459543	0.0294189163797	-0.610961313197	1.0126953125	0.1630859375	0.2919921875	-75.5	-53.0625	-32.0625
18	12	13	20	06	27	0.774291927287	0.0202636701765	-0.615539499187	0.95556640625	0.15869140625	0.30615234375	-79.5	-53.375	-31.875
18	12	13	20	06	28	0.768441949546	0.0100098871903	-0.619880575027	0.90576171875	0.1064453125	0.31103515625	-84.5	-56.1875	-32.5
18	12	13	20	06	28	0.762477381074	6.10323686124e-05	-0.624239066167	0.865234375	0.02294921875	0.3232421875	-76.1875	-58.4375	-32.0625
18	12	13	20	06	28	0.756573756148	-0.00756817890951	-0.628952287601	0.818359375	-0.03076171875	0.29541015625	-54.625	-57.25	-30.375
18	12	13	20	06	28	0.751095813782	-0.0117797409443	-0.633847718684	0.775390625	-0.03466796875	0.26904296875	-28.8125	-52.375	-28.4375
18	12	13	20	06	28	0.746218910158	-0.0128174358853	-0.63867451954	0.751953125	-0.01171875	0.23974609375	-6.6875	-46.0	-27.3125
18	12	13	20	06	28	0.741695437552	-0.0115355857223	-0.643429336955	0.76220703125	0.0205078125	0.197265625	6.75	-39.4375	-27.9375
18	12	13	20	06	28	0.737611018738	-0.00958253454215	-0.647584022244	0.78515625	0.06884765625	0.16015625	7.25	-32.375	-28.25
18	12	13	20	06	28	0.734226933359	-0.00854461934083	-0.650550696814	0.81640625	0.09375	0.154296875	-2.1875	-25.5	-27.8125
18	12	13	20	06	28	0.731445240292	-0.00933837798436	-0.652343685601	0.87109375	0.08935546875	0.1494140625	-16.0	-19.4375	-27.6875
18	12	13	20	06	28	0.729254886164	-0.0123292171916	-0.652899189597	0.91015625	0.0966796875	0.1298828125	-33.25	-13.0625	-25.9375
18	12	13	20	06	28	0.727662920558	-0.0176392034928	-0.652101211478	0.91064453125	0.13525390625	0.1259765625	-51.125	-7.3125	-21.0
18	12	13	20	06	28	0.726687610417	-0.025451766634	-0.649844027223	0.87890625	0.16064453125	0.146484375	-69.125	-3.1875	-15.1875
18	12	13	20	06	28	0.725992836317	-0.0359486995032	-0.646283156264	0.85400390625	0.1689453125	0.14892578125	-88.625	0.1875	-10.5625
18	12	13	20	06	28	0.72527982687	-0.0486449568304	-0.641661770587	0.84228515625	0.1474609375	0.1943359375	-104.75	1.4375	-5.75
18	12	13	20	06	28	0.724374791198	-0.0626228965091	-0.636483006624	0.84423828125	0.09765625	0.255859375	-111.6875	0.5625	-3.0625
18	12	13	20	06	28	0.723140860807	-0.0765376974555	-0.631344451738	0.8515625	0.03271484375	0.30810546875	-108.8125	-1.75	-2.0
18	12	13	20	06	28	0.723126013932	-0.0903297181482	-0.625350197396	0.84130859375	-0.0380859375	0.35888671875	-94.9375	-4.875	-2.6875
18	12	13	20	06	28	0.723377735144	-0.101133724868	-0.620351949039	0.8056640625	-0.076171875	0.4013671875	-69.625	-7.5	-2.875
18	12	13	20	06	28	0.724104627049	-0.107602533504	-0.61705139746	0.75537109375	-0.08984375	0.4345703125	-34.8125	-10.625	-2.5
18	12	13	20	06	28	0.725156535677	-0.109191569929	-0.615903930774	0.70263671875	-0.0576171875	0.45263671875	1.9375	-14.25	-2.0625
18	12	13	20	06	28	0.726250494231	-0.10644431145	-0.616937557416	0.67236328125	0.00927734375	0.4326171875	33.8125	-17.125	-0.75
18	12	13	20	06	28	0.727501927537	-0.100397707282	-0.619475215143	0.65869140625	0.06640625	0.40771484375	57.875	-17.6875	1.8125
18	12	13	20	06	28	0.728926825593	-0.0922220910551	-0.622666957607	0.6591796875	0.10986328125	0.3515625	72.25	-13.875	3.3125
18	12	13	20	06	28	0.731175289042	-0.0826386762406	-0.62516097543	0.66162109375	0.15576171875	0.31787109375	79.125	-4.25	6.125
18	12	13	20	06	28	0.734122637185	-0.0709220572339	-0.627129206607	0.82568359375	0.16259765625	0.384765625	91.75	1.1875	0.6875
18	12	13	20	06	28	0.735974538415	-0.0573129948227	-0.629344291391	1.1962890625	0.19189453125	0.3681640625	91.6875	5.9375	-21.125
18	12	13	20	06	28	0.736563788352	-0.0444941168138	-0.631279355562	1.546875	0.37548828125	0.275390625	71.25	13.875	-28.875
18	12	13	20	06	28	0.736868301824	-0.0392451187007	-0.63115672237	1.54541015625	0.6181640625	0.14404296875	14.5625	21.1875	-5.0
18	12	13	20	06	28	0.738765935617	-0.0425412968544	-0.627926631331	1.32080078125	0.666015625	0.18798828125	-32.125	23.0	29.125
18	12	13	20	06	28	0.742940079071	-0.0470593822678	-0.622819632504	1.17529296875	0.546875	0.2880859375	-27.375	29.375	42.875
18	12	13	20	06	28	0.748698428556	-0.0487047644891	-0.617415285178	1.2763671875	0.3935546875	0.35205078125	1.5	37.5	39.875
18	12	13	20	06	28	0.755738129584	-0.042907761678	-0.612549496729	1.48974609375	0.27734375	0.39697265625	52.4375	50.5625	23.9375
18	12	13	20	06	28	0.764155076332	-0.0311277227579	-0.608028184538	1.4580078125	0.2578125	0.34814453125	98.375	64.5	29.1875
18	12	13	20	06	28	0.773754571787	-0.0159914567964	-0.602609362408	1.263671875	0.37060546875	0.22314453125	124.625	74.6875	41.6875
18	12	13	20	06	28	0.783933419381	-0.00122069981218	-0.595457368381	1.01220703125	0.44970703125	0.19580078125	122.3125	83.25	49.0
18	12	13	20	06	28	0.793659313532	0.0105593371715	-0.586623061013	0.8349609375	0.44189453125	0.240234375	88.75	87.25	53.375
18	12	13	20	06	28	0.80327939875	0.0148924985408	-0.576046726343	0.71923828125	0.3515625	0.26416015625	39.1875	84.8125	52.8125
18	12	13	20	06	28	0.811969245621	0.0132449316921	-0.565320540701	0.67626953125	0.21337890625	0.27197265625	0.3125	76.5	44.1875
18	12	13	20	06	28	0.819384842324	0.00982651468262	-0.55559480221	0.6806640625	0.08056640625	0.28466796875	-10.8125	67.0	31.625
18	12	13	20	06	28	0.82588780238	0.00787373634669	-0.546888974158	0.66943359375	0.00048828125	0.2919921875	-1.0625	60.5	21.3125
18	12	13	20	06	28	0.83146409405	0.00946024624369	-0.539478171277	0.642578125	0.021484375	0.2783203125	17.875	55.5	14.8125
18	12	13	20	06	28	0.836133097622	0.013611043198	-0.533211091381	0.6171875	0.08935546875	0.2763671875	28.8125	49.0625	10.1875
18	12	13	20	06	28	0.839784250909	0.0178222982241	-0.528077137791	0.6171875	0.150390625	0.2841796875	24.5625	40.5	6.9375
18	12	13	20	06	28	0.842268074822	0.0203853287674	-0.524403427454	0.65576171875	0.177734375	0.26708984375	11.8125	31.4375	4.8125
18	12	13	20	06	28	0.844010658761	0.0210575410235	-0.521738726576	0.693359375	0.17138671875	0.26123046875	0.8125	24.625	5.25
18	12	13	20	06	28	0.845333908238	0.0212401588496	-0.519956647241	0.73193359375	0.1435546875	0.27197265625	2.6875	19.75	8.0
18	12	13	20	06	28	0.846122456329	0.023071073252	-0.519282251926	0.78173828125	0.119140625	0.2705078125	16.3125	15.9375	8.125
18	12	13	20	06	28	0.846377355731	0.0271607357972	-0.519594031105	0.83203125	0.134765625	0.25390625	31.1875	13.875	6.9375
18	12	13	20	06	28	0.846305798112	0.0330197199465	-0.520442055423	0.85888671875	0.193359375	0.2294921875	40.125	13.3125	8.6875
18	12	13	20	06	28	0.846011668314	0.0388795492905	-0.521547486166	0.8623046875	0.25390625	0.21533203125	39.0625	12.5625	12.3125
18	12	13	20	06	28	0.845766973761	0.0429688929442	-0.522523710931	0.84375	0.2822265625	0.21337890625	27.75	11.4375	17.3125
18	12	13	20	06	29	0.84570774208	0.0448000492701	-0.523257251216	0.81201171875	0.27294921875	0.224609375	16.125	10.1875	22.1875
18	12	13	20	06	29	0.845889011392	0.0451051287552	-0.523683362273	0.76953125	0.2392578125	0.24072265625	9.625	8.75	25.1875
18	12	13	20	06	29	0.846314444463	0.0447998559235	-0.523743274768	0.7216796875	0.2158203125	0.26025390625	7.4375	8.75	26.75
18	12	13	20	06	29	0.847080323797	0.0447405877895	-0.523214622827	0.65869140625	0.2060546875	0.2783203125	9.0	9.375	26.875
18	12	13	20	06	29	0.848058101328	0.0452289515679	-0.522238744419	0.60498046875	0.21044921875	0.29833984375	11.0625	9.75	25.875
18	12	13	20	06	29	0.849021600175	0.0461438051569	-0.521132021732	0.5908203125	0.21240234375	0.32861328125	11.9375	8.125	22.1875
18	12	13	20	06	29	0.849533345351	0.047667615685	-0.520559659638	0.6689453125	0.1953125	0.40380859375	13.625	2.0	14.3125
18	12	13	20	06	29	0.848385097379	0.0502317219527	-0.522336666429	0.90185546875	0.130859375	0.4658203125	17.6875	-11.125	-4.4375
18	12	13	20	06	29	0.845585204889	0.0520022083561	-0.526430806422	1.12548828125	0.15380859375	0.46728515625	6.0	-22.125	-17.8125
18	12	13	20	06	29	0.841782043974	0.0519400028583	-0.532034083333	1.263671875	0.18408203125	0.43896484375	-7.25	-29.0	-19.375
18	12	13	20	06	29	0.837708401131	0.049011282048	-0.53808650378	1.2607421875	0.20703125	0.37890625	-24.9375	-30.8125	-13.5625
18	12	13	20	06	29	0.834015601988	0.0446183698078	-0.543416342542	1.20849609375	0.2255859375	0.35205078125	-35.5	-28.1875	-10.625
18	12	13	20	06	29	0.830394432673	0.0397344193804	-0.54828615867	1.24072265625	0.197265625	0.38232421875	-41.0625	-28.375	-17.875
18	12	13	20	06	29	0.825862528928	0.0343626194506	-0.554135385422	1.41064453125	0.12939453125	0.4072265625	-44.125	-34.3125	-29.25
18	12	13	20	06	29	0.82035325696	0.0291130498899	-0.561143355739	1.55517578125	0.10302734375	0.39453125	-42.25	-40.0625	-33.75
18	12	13	20	06	29	0.814726034243	0.0241097380526	-0.568318407614	1.48583984375	0.16748046875	0.35205078125	-38.375	-41.875	-22.3125
18	12	13	20	06	29	0.809819071876	0.0186158288304	-0.574405131551	1.26171875	0.25439453125	0.30810546875	-41.375	-38.6875	-7.9375
18	12	13	20	06	29	0.805908260168	0.0111694343843	-0.578796427686	1.03857421875	0.283203125	0.2880859375	-54.5625	-33.4375	0.625
18	12	13	20	06	29	0.802979740577	0.000244140997439	-0.581421785401	0.875	0.224609375	0.306640625	-73.5	-30.0625	7.1875
18	12	13	20	06	29	0.80063605591	-0.0130001128151	-0.582868907908	0.76904296875	0.1044921875	0.32373046875	-82.5625	-28.5625	9.125
18	12	13	20	06	29	0.798766095982	-0.0250854180063	-0.58380054314	0.7138671875	-0.0244140625	0.3544921875	-68.5	-27.25	7.5625
18	12	13	20	06	29	0.797532146657	-0.0332025321636	-0.584645322785	0.673828125	-0.126953125	0.3828125	-36.375	-25.125	4.3125
18	12	13	20	06	29	0.796873453369	-0.0357054971064	-0.585875327733	0.65283203125	-0.1572265625	0.39599609375	2.4375	-22.1875	1.1875
18	12	13	20	06	29	0.796488924224	-0.0328971287477	-0.587631828539	0.646484375	-0.1220703125	0.390625	34.9375	-19.6875	-3.0625
18	12	13	20	06	29	0.795835473797	-0.0270995437047	-0.589842320636	0.67236328125	-0.05908203125	0.37353515625	47.375	-19.0625	-9.5
18	12	13	20	06	29	0.794559710346	-0.021179307074	-0.592349207936	0.720703125	-0.00048828125	0.35009765625	39.8125	-19.8125	-16.375
18	12	13	20	06	29	0.792532360336	-0.0172117154882	-0.595024873386	0.7900390625	0.03076171875	0.33203125	19.8125	-21.6875	-24.0
18	12	13	20	06	29	0.789842619276	-0.0161130091561	-0.597646157789	0.86279296875	0.05712890625	0.3076171875	-6.625	-23.25	-30.3125
18	12	13	20	06	29	0.786779932514	-0.0178827492224	-0.599896048148	0.912109375	0.0771484375	0.29541015625	-30.1875	-23.1875	-34.0
18	12	13	20	06	29	0.783502979871	-0.0219725070307	-0.60161944945	0.9228515625	0.11328125	0.25927734375	-50.25	-20.8125	-35.0625
18	12	13	20	06	29	0.780288704173	-0.0280767212077	-0.602428778957	0.90625	0.16748046875	0.23193359375	-68.1875	-16.875	-33.25
18	12	13	20	06	29	0.777280249249	-0.0361937328468	-0.602170941428	0.861328125	0.20751953125	0.2294921875	-83.3125	-13.625	-28.9375
18	12	13	20	06	29	0.774595091788	-0.0462645244327	-0.600767432706	0.83154296875	0.20751953125	0.25830078125	-94.8125	-11.6875	-23.5625
18	12	13	20	06	29	0.772252340559	-0.0574932193793	-0.598490986447	0.83251953125	0.15234375	0.30859375	-97.625	-11.25	-20.0625
18	12	13	20	06	29	0.77036773987	-0.0682357101232	-0.595872305843	0.85693359375	0.06640625	0.37255859375	-86.5625	-11.875	-18.5625
18	12	13	20	06	29	0.769029284881	-0.0761705196453	-0.593678401114	0.876953125	-0.00927734375	0.43115234375	-61.0	-12.9375	-18.6875
18	12	13	20	06	29	0.768377222467	-0.0797735348133	-0.592533646494	0.8828125	-0.06787109375	0.4765625	-25.0625	-14.4375	-19.1875
18	12	13	20	06	29	0.768130328674	-0.0782473644306	-0.593080842568	0.86962890625	-0.06396484375	0.4873046875	14.0	-16.1875	-19.0
18	12	13	20	06	29	0.768049874364	-0.0722640695523	-0.595202032326	0.837890625	-0.01904296875	0.46484375	45.6875	-17.625	-17.3125
18	12	13	20	06	29	0.767965830147	-0.0635393760279	-0.598344383479	0.77880859375	0.0380859375	0.44091796875	65.5625	-19.3125	-13.625
18	12	13	20	06	29	0.767627341377	-0.0536490763354	-0.602163580347	0.73193359375	0.0751953125	0.39990234375	74.75	-20.75	-10.3125
18	12	13	20	06	29	0.767150977502	-0.0434570368352	-0.606018144293	0.70703125	0.09228515625	0.36328125	76.5	-19.625	-9.25
18	12	13	20	06	29	0.76688960144	-0.0334465182323	-0.609239315684	0.67236328125	0.1083984375	0.33349609375	73.875	-14.8125	-7.875
18	12	13	20	06	29	0.767229734856	-0.0235601175541	-0.6114033615	0.6650390625	0.1201171875	0.306640625	71.1875	-7.125	-6.75
18	12	13	20	06	29	0.768316949651	-0.0138550959303	-0.612187718859	0.65625	0.1416015625	0.26513671875	66.0625	4.25	-6.8125
18	12	13	20	06	29	0.770429990456	-0.00469960463163	-0.611192737418	0.6630859375	0.16845703125	0.2568359375	58.0625	15.875	-6.3125
18	12	13	20	06	29	0.773048180221	0.00439439988757	-0.609173684414	0.82666015625	0.1630859375	0.345703125	55.8125	19.5	-11.875
18	12	13	20	06	29	0.774716659605	0.013854934352	-0.607419853178	1.12890625	0.1650390625	0.35107421875	48.6875	20.6875	-31.5
18	12	13	20	06	29	0.775709561861	0.0224002997248	-0.605540527439	1.44580078125	0.259765625	0.4189453125	34.5	20.0	-42.5625
18	12	13	20	06	30	0.77618783524	0.027404917671	-0.603823720534	1.6103515625	0.41455078125	0.380859375	8.8125	19.8125	-33.125
18	12	13	20	06	30	0.776866922056	0.0263065401796	-0.601205152597	1.56494140625	0.603515625	0.27392578125	-35.0	24.875	-11.875
18	12	13	20	06	30	0.780022827113	0.0220335086532	-0.595820253386	1.39794921875	0.619140625	0.38671875	-46.75	33.0625	11.1875
18	12	13	20	06	30	0.784845065883	0.0186766148348	-0.589411991697	1.3818359375	0.5087890625	0.52099609375	-25.8125	37.3125	22.1875
18	12	13	20	06	30	0.790163443533	0.0202637311334	-0.58380297678	1.544921875	0.39404296875	0.55029296875	18.0	44.5625	20.5
18	12	13	20	06	30	0.796378005484	0.0288082785552	-0.578545916155	1.54248046875	0.3681640625	0.44921875	70.5	62.0625	26.5625
18	12	13	20	06	30	0.805000646794	0.0429081397146	-0.570867469062	1.2734375	0.42333984375	0.30908203125	114.3125	83.1875	44.75
18	12	13	20	06	30	0.814814148423	0.0606075242984	-0.560909514907	0.9833984375	0.455078125	0.234375	141.5625	101.75	54.5
18	12	13	20	06	30	0.825022547714	0.0766000811852	-0.548529824392	0.7568359375	0.4521484375	0.197265625	127.6875	112.125	54.8125
18	12	13	20	06	30	0.835214894706	0.0871592275388	-0.534613217095	0.58642578125	0.37255859375	0.21875	88.875	113.125	51.8125
18	12	13	20	06	30	0.844616867239	0.0918592560481	-0.521003727327	0.4921875	0.2607421875	0.25341796875	48.8125	102.9375	47.3125
18	12	13	20	06	30	0.852887738351	0.0933208352611	-0.508473432675	0.45068359375	0.15771484375	0.265625	23.125	89.375	38.75
18	12	13	20	06	30	0.860031575368	0.0937483854776	-0.497122786273	0.455078125	0.08935546875	0.2822265625	13.8125	78.8125	25.5625
18	12	13	20	06	30	0.866181378513	0.0951572665141	-0.486650985194	0.47021484375	0.041015625	0.31298828125	15.875	70.625	9.875
18	12	13	20	06	30	0.871220354356	0.0988164322336	-0.477297405847	0.50732421875	0.02978515625	0.3408203125	26.875	62.75	-1.75
18	12	13	20	06	30	0.875055345132	0.104308403769	-0.469418334339	0.56201171875	0.0517578125	0.36767578125	35.0	53.9375	-8.9375
18	12	13	20	06	30	0.877620840199	0.11053420555	-0.463376967716	0.6337890625	0.10986328125	0.38818359375	34.9375	42.75	-14.875
18	12	13	20	06	30	0.878742859841	0.115908362217	-0.459910220803	0.75341796875	0.1708984375	0.39013671875	25.375	29.125	-20.75
18	12	13	20	06	30	0.878443438651	0.119815485691	-0.459241831046	0.88818359375	0.2265625	0.39453125	12.75	14.875	-24.5625
18	12	13	20	06	30	0.877029963703	0.122011475916	-0.461067878475	0.9921875	0.28759765625	0.39404296875	2.6875	2.125	-19.5
18	12	13	20	06	30	0.874738098576	0.12305296258	-0.464988823875	1.0341796875	0.3466796875	0.36865234375	-0.9375	-7.75	-6.5
18	12	13	20	06	30	0.8721012013	0.123478494557	-0.469865274888	1.021484375	0.3916015625	0.31396484375	-1.6875	-10.6875	6.625
18	12	13	20	06	30	0.86976033729	0.123963736494	-0.474309303935	0.97119140625	0.43408203125	0.2529296875	0.0	-6.125	17.75
18	12	13	20	06	30	0.868191098133	0.124820781474	-0.477370822448	0.89697265625	0.453125	0.22705078125	4.0625	2.6875	26.8125
