19	01	14	15	48	19	-0.595162165098	-0.328923075347	-0.106202663037	-0.51025390625	-0.05029296875	0.48388671875	-69.25	-59.75	100.6875
19	01	14	15	48	19	-0.609854015445	-0.318842811918	-0.105161976442	-0.453125	-0.04052734375	0.4345703125	-53.125	-46.5	91.875
19	01	14	15	48	19	-0.622230221134	-0.31132872565	-0.104610357923	-0.43017578125	-0.02734375	0.3916015625	-42.875	-34.6875	81.25
19	01	14	15	48	19	-0.633242290293	-0.305115971968	-0.104492607323	-0.42333984375	-0.01025390625	0.43505859375	-37.5625	-26.1875	73.875
19	01	14	15	48	19	-0.641954713765	-0.300897198979	-0.105405570515	-0.4990234375	0.2041015625	0.59619140625	-39.3125	-12.5	54.1875
19	01	14	15	48	20	-0.647021767545	-0.300165366738	-0.108640576005	-0.71826171875	0.49951171875	0.68310546875	-44.1875	0.75	24.5
19	01	14	15	48	20	-0.648422384799	-0.301689744735	-0.115292722598	-0.94775390625	0.62744140625	0.77294921875	-47.625	12.625	-3.0
19	01	14	15	48	20	-0.646789851966	-0.301880023386	-0.127258360041	-1.08935546875	0.41748046875	0.75390625	-56.125	17.75	-24.8125
19	01	14	15	48	20	-0.642219697961	-0.303714618614	-0.137635945533	-1.130859375	0.14501953125	0.94140625	-19.875	24.0	-30.125
19	01	14	15	48	20	-0.631888511374	-0.315425463806	-0.141355529059	-1.2919921875	0.53515625	1.09521484375	35.625	39.875	-56.125
19	01	14	15	48	20	-0.614482728196	-0.336171123054	-0.14385536257	-1.39599609375	0.57373046875	1.0361328125	85.8125	71.125	-81.9375
19	01	14	15	48	20	-0.594770409671	-0.356923279195	-0.147761843182	-1.2568359375	0.32275390625	0.98388671875	99.4375	86.5	-86.8125
19	01	14	15	48	20	-0.574192866119	-0.375959614721	-0.149224230194	-1.01220703125	0.2099609375	0.84521484375	107.5	83.625	-92.1875
19	01	14	15	48	20	-0.5527871123	-0.39287740332	-0.153256976812	-0.83251953125	0.1220703125	0.7763671875	97.3125	87.9375	-98.3125
19	01	14	15	48	20	-0.531623960509	-0.409246688314	-0.158937863739	-0.72021484375	0.0859375	0.72216796875	82.875	93.3125	-101.5625
19	01	14	15	48	20	-0.509440556721	-0.425459460992	-0.166680503223	-0.65673828125	0.05859375	0.6396484375	75.25	101.75	-109.125
19	01	14	15	48	20	-0.485642382818	-0.441759402644	-0.176264320922	-0.63232421875	0.0205078125	0.55322265625	71.3125	110.25	-118.1875
19	01	14	15	48	20	-0.460510381714	-0.458496220998	-0.186340383747	-0.64111328125	0.03173828125	0.44287109375	72.0625	115.9375	-122.75
19	01	14	15	48	20	-0.4346365662	-0.475347504222	-0.196291419309	-0.64599609375	0.08740234375	0.31494140625	73.0	118.125	-124.125
19	01	14	15	48	20	-0.408629927354	-0.491515579534	-0.206359639191	-0.61767578125	0.142578125	0.21630859375	69.3125	117.4375	-124.1875
19	01	14	15	48	20	-0.383479401743	-0.506158631013	-0.217221580583	-0.599609375	0.18994140625	0.1728515625	58.5625	114.5625	-123.75
19	01	14	15	48	20	-0.359555701165	-0.518734324258	-0.229368583429	-0.619140625	0.21630859375	0.1171875	43.5	109.3125	-123.6875
19	01	14	15	48	20	-0.337384905314	-0.528842294599	-0.243761814729	-0.64306640625	0.2109375	0.0908203125	22.6875	103.5	-124.3125
19	01	14	15	48	20	-0.316949108483	-0.536854295825	-0.260431705353	-0.67626953125	0.16796875	0.1142578125	2.125	100.4375	-124.5
19	01	14	15	48	20	-0.297477879675	-0.543321314089	-0.277702985745	-0.703125	0.0986328125	0.1611328125	-6.5	96.5625	-123.1875
19	01	14	15	48	20	-0.277589099491	-0.54950190473	-0.293519344646	-0.736328125	0.00634765625	0.23388671875	0.9375	94.75	-119.8125
19	01	14	15	48	20	-0.25616725766	-0.556463399592	-0.305545220835	-0.7685546875	-0.07177734375	0.31298828125	23.1875	94.4375	-113.25
19	01	14	15	48	20	-0.232664096234	-0.564326399208	-0.312497422015	-0.80078125	-0.123046875	0.328125	54.9375	91.125	-105.5625
19	01	14	15	48	20	-0.207761584482	-0.571588495499	-0.313717551187	-0.8115234375	-0.14697265625	0.28271484375	84.6875	82.6875	-99.1875
19	01	14	15	48	20	-0.182065033677	-0.578665298121	-0.312312027264	-0.78076171875	-0.13916015625	0.23876953125	101.25	70.1875	-93.3125
19	01	14	15	48	20	-0.158203054867	-0.584167221502	-0.309448105006	-0.72705078125	-0.1171875	0.23095703125	100.25	57.0	-84.3125
19	01	14	15	48	20	-0.139217916833	-0.587571628825	-0.30547377192	-0.7275390625	-0.0908203125	0.24365234375	84.3125	45.25	-71.25
19	01	14	15	48	20	-0.126341856124	-0.590022571572	-0.30187769101	-0.91015625	-0.02880859375	0.31640625	57.3125	37.25	-56.5
19	01	14	15	48	20	-0.121461659107	-0.593208977315	-0.299076447046	-1.3681640625	0.13232421875	0.34375	21.3125	33.8125	-43.0625
19	01	14	15	48	20	-0.120605825263	-0.595521779907	-0.299805573732	-1.4833984375	0.095703125	0.318359375	-9.8125	28.1875	-38.625
19	01	14	15	48	20	-0.122864700739	-0.597599744131	-0.3027977051	-1.48828125	-0.11962890625	0.314453125	-30.5	28.5625	-18.1875
19	01	14	15	48	20	-0.126282807831	-0.598759954	-0.303225224411	-1.60595703125	-0.376953125	0.2666015625	-18.5625	11.8125	8.0
19	01	14	15	48	20	-0.129881727719	-0.599604367065	-0.297360797673	-1.74462890625	-0.50927734375	0.375	11.0	2.0	35.8125
19	01	14	15	48	20	-0.134031585881	-0.60112800061	-0.284969706046	-1.91943359375	-0.4169921875	0.47314453125	38.1875	-3.25	53.6875
19	01	14	15	48	20	-0.139950428354	-0.6019760466	-0.269525116272	-1.82080078125	-0.3798828125	0.4384765625	47.8125	-18.4375	72.625
19	01	14	15	48	20	-0.150940224241	-0.600037745458	-0.256836418766	-1.4814453125	-0.36669921875	0.3896484375	18.3125	-37.5	88.5
19	01	14	15	48	20	-0.169739746167	-0.596072765578	-0.248719692784	-1.12890625	-0.3623046875	0.38818359375	-30.9375	-55.0625	103.0625
19	01	14	15	48	20	-0.193298518787	-0.588684626997	-0.241150125585	-0.95703125	-0.35791015625	0.369140625	-51.375	-78.125	116.9375
19	01	14	15	48	20	-0.217038287256	-0.578422904477	-0.231198265502	-0.84228515625	-0.30322265625	0.33740234375	-41.9375	-101.0	119.5
19	01	14	15	48	20	-0.240164670521	-0.565714442454	-0.219413466461	-0.78857421875	-0.14794921875	0.3349609375	-33.375	-118.4375	116.125
19	01	14	15	48	20	-0.26324384487	-0.551206854398	-0.20788512303	-0.7158203125	-0.05908203125	0.34716796875	-36.8125	-126.5	111.3125
19	01	14	15	48	20	-0.285700140575	-0.535329188845	-0.197444980722	-0.65380859375	-0.08935546875	0.3388671875	-41.625	-129.3125	104.9375
19	01	14	15	48	20	-0.307013063517	-0.51899246105	-0.18744276701	-0.6123046875	-0.1494140625	0.37841796875	-40.75	-127.375	99.875
19	01	14	15	48	20	-0.327267117332	-0.502741373641	-0.177549430123	-0.60107421875	-0.18408203125	0.376953125	-38.3125	-123.9375	97.125
19	01	14	15	48	20	-0.347343969173	-0.487477821435	-0.168331517656	-0.685546875	-0.14794921875	0.37646484375	-40.5	-114.75	98.0625
19	01	14	15	48	20	-0.368330826839	-0.471963924432	-0.159843982683	-0.76513671875	-0.0498046875	0.37109375	-48.8125	-112.625	101.5625
19	01	14	15	48	20	-0.390440129496	-0.455381242171	-0.153075479877	-0.8125	0.0615234375	0.4130859375	-63.6875	-111.8125	102.375
19	01	14	15	48	20	-0.414010735774	-0.437143578006	-0.149478444923	-0.80078125	0.10986328125	0.4775390625	-87.0625	-109.625	102.125
19	01	14	15	48	20	-0.437682636702	-0.417663126893	-0.147094569021	-0.7822265625	0.06298828125	0.533203125	-95.8125	-109.9375	100.875
19	01	14	15	48	20	-0.459107636544	-0.398133357243	-0.143005742146	-0.73779296875	-0.0048828125	0.52783203125	-81.6875	-114.125	94.5625
19	01	14	15	48	21	-0.478396094278	-0.379884829139	-0.135193588776	-0.63232421875	-0.05517578125	0.54248046875	-56.125	-115.9375	94.6875
19	01	14	15	48	21	-0.496459212834	-0.363768983094	-0.124938776576	-0.5146484375	-0.01220703125	0.53515625	-37.5625	-110.125	97.1875
19	01	14	15	48	21	-0.514342764497	-0.348266264889	-0.115783579477	-0.416015625	0.087890625	0.52685546875	-40.875	-98.5	97.9375
19	01	14	15	48	21	-0.532175778007	-0.334051844596	-0.1093771068	-0.39453125	0.1591796875	0.50537109375	-54.0	-82.75	94.875
19	01	14	15	48	21	-0.548934092678	-0.320547237574	-0.105709789695	-0.41796875	0.1728515625	0.50146484375	-63.0625	-71.875	87.5
19	01	14	15	48	21	-0.56439208669	-0.307861326405	-0.104064940825	-0.4951171875	0.107421875	0.4189453125	-65.1875	-69.5625	83.5625
19	01	14	15	48	21	-0.579286000541	-0.294800482838	-0.103027580751	-0.53076171875	0.05419921875	0.38818359375	-65.3125	-72.9375	83.0
19	01	14	15	48	21	-0.59441103692	-0.281672341656	-0.102110038481	-0.5673828125	0.10107421875	0.5556640625	-67.875	-68.9375	84.75
19	01	14	15	48	21	-0.607218877243	-0.272879244161	-0.103085001876	-0.75537109375	0.36083984375	0.71826171875	-70.75	-47.9375	68.75
19	01	14	15	48	21	-0.614877618577	-0.270511971961	-0.106752129729	-0.99951171875	0.42724609375	0.67822265625	-55.625	-25.75	42.8125
19	01	14	15	48	21	-0.62083682205	-0.269220529106	-0.113095815106	-1.04052734375	0.29443359375	0.76513671875	-51.9375	-10.4375	35.375
19	01	14	15	48	21	-0.624444837784	-0.269406657607	-0.119932959266	-1.0654296875	0.279296875	0.8759765625	-42.1875	0.25	21.625
19	01	14	15	48	21	-0.623154568852	-0.276177710485	-0.124447812526	-1.208984375	0.47607421875	0.9775390625	-10.5	16.875	-4.3125
19	01	14	15	48	21	-0.616771969759	-0.289861463076	-0.128420408152	-1.28955078125	0.47265625	1.00830078125	27.1875	43.875	-24.5625
19	01	14	15	48	21	-0.60686457595	-0.308467622131	-0.131345928537	-1.26123046875	0.32568359375	0.9453125	64.75	65.125	-30.4375
19	01	14	15	48	21	-0.593263750922	-0.329468902004	-0.13201949519	-1.10791015625	0.2109375	0.79345703125	95.8125	72.6875	-42.1875
19	01	14	15	48	21	-0.57816780101	-0.349659382665	-0.130794214881	-0.947265625	0.123046875	0.7119140625	105.375	81.375	-53.0625
19	01	14	15	48	21	-0.561841677038	-0.370369939845	-0.130129978864	-0.8115234375	0.08544921875	0.68017578125	107.8125	89.25	-57.8125
19	01	14	15	48	21	-0.54424984354	-0.391417993341	-0.131408535734	-0.7080078125	0.06396484375	0.705078125	103.4375	101.125	-65.0625
19	01	14	15	48	21	-0.525033931577	-0.41284928077	-0.135378430625	-0.68310546875	0.03466796875	0.66650390625	96.8125	114.4375	-75.9375
19	01	14	15	48	21	-0.504996777471	-0.433952995868	-0.142575836617	-0.65234375	0.015625	0.63720703125	83.5	126.0625	-84.0
19	01	14	15	48	21	-0.484988364282	-0.454470596582	-0.152100554215	-0.60400390625	0.02587890625	0.59619140625	70.6875	134.9375	-86.4375
19	01	14	15	48	21	-0.466306687256	-0.473569841155	-0.16412286414	-0.572265625	0.0908203125	0.5302734375	50.1875	139.1875	-85.25
19	01	14	15	48	21	-0.44987883607	-0.489855859218	-0.179621952863	-0.5546875	0.17333984375	0.4287109375	19.25	138.1875	-85.4375
19	01	14	15	48	21	-0.436706168792	-0.502257870438	-0.199523754826	-0.56298828125	0.23583984375	0.3251953125	-20.3125	133.4375	-85.5625
19	01	14	15	48	21	-0.426940245993	-0.510497243386	-0.223876600758	-0.5947265625	0.22998046875	0.2265625	-61.0625	126.25	-85.4375
19	01	14	15	48	21	-0.419424893173	-0.515248100723	-0.251581695236	-0.63623046875	0.17529296875	0.1669921875	-91.0625	119.8125	-87.5
19	01	14	15	48	21	-0.412227894094	-0.518061943303	-0.280148953789	-0.7060546875	0.08642578125	0.13037109375	-99.9375	114.4375	-89.5625
19	01	14	15	48	21	-0.403676073593	-0.520860540073	-0.305839250798	-0.73779296875	-0.01416015625	0.099609375	-83.25	107.3125	-86.625
19	01	14	15	48	21	-0.391102891722	-0.524949433786	-0.327017680063	-0.73583984375	-0.103515625	0.1123046875	-44.625	99.5625	-87.5
19	01	14	15	48	21	-0.373712269099	-0.530387002853	-0.341181052468	-0.7470703125	-0.158203125	0.134765625	8.125	88.0	-89.9375
19	01	14	15	48	21	-0.350833725209	-0.537542209101	-0.347232613555	-0.7412109375	-0.166015625	0.16064453125	69.0625	76.5	-95.0
19	01	14	15	48	21	-0.323048609179	-0.546857271536	-0.345813984433	-0.7431640625	-0.12060546875	0.1865234375	123.75	68.5	-99.75
19	01	14	15	48	21	-0.291567401056	-0.556828427849	-0.339480402904	-0.75830078125	-0.04150390625	0.2041015625	159.9375	63.1875	-102.9375
19	01	14	15	48	21	-0.258903304166	-0.566755323546	-0.330739510909	-0.779296875	0.04638671875	0.248046875	172.625	62.4375	-102.25
19	01	14	15	48	21	-0.227603675355	-0.57618093198	-0.321904474074	-0.81640625	0.0927734375	0.26123046875	163.875	63.8125	-95.4375
19	01	14	15	48	21	-0.199276375144	-0.584645757275	-0.313654300724	-0.8837890625	0.0361328125	0.21826171875	147.3125	60.875	-84.25
19	01	14	15	48	21	-0.175414207852	-0.591427861547	-0.305784683834	-1.09765625	-0.0517578125	0.1630859375	126.8125	49.125	-68.4375
19	01	14	15	48	21	-0.155515739596	-0.596489530249	-0.297176662517	-1.4453125	0.01708984375	0.11474609375	114.625	32.8125	-55.0
19	01	14	15	48	21	-0.137997577071	-0.600573267748	-0.288018826271	-1.40087890625	-0.0322265625	0.19189453125	107.3125	26.4375	-44.0625
19	01	14	15	48	21	-0.126705731757	-0.605880442751	-0.276909395463	-1.5302734375	-0.06982421875	0.21826171875	89.75	28.625	-24.9375
19	01	14	15	48	21	-0.120296590271	-0.610332776617	-0.266227157161	-1.65478515625	-0.08740234375	0.31640625	67.5	24.9375	-6.6875
19	01	14	15	48	21	-0.121274830138	-0.614125486085	-0.258784740708	-1.79443359375	-0.04736328125	0.603515625	19.5625	39.125	9.8125
19	01	14	15	48	21	-0.130186773161	-0.618463465747	-0.255856986915	-2.0400390625	-0.1435546875	0.748046875	-32.8125	54.8125	35.625
19	01	14	15	48	21	-0.142515802386	-0.621271243036	-0.256223271271	-1.89599609375	-0.4267578125	0.55029296875	-55.6875	36.625	61.125
19	01	14	15	48	21	-0.155454290528	-0.620901648032	-0.258236004406	-1.431640625	-0.61376953125	0.42236328125	-60.4375	11.8125	72.625
19	01	14	15	48	21	-0.169977966384	-0.617291616521	-0.258964636039	-1.1640625	-0.59765625	0.427734375	-59.625	-12.8125	80.625
19	01	14	15	48	21	-0.182794425551	-0.612407100495	-0.253409834687	-1.02001953125	-0.5	0.28173828125	-21.6875	-44.4375	86.75
19	01	14	15	48	21	-0.192802885238	-0.606544815922	-0.244680837898	-0.81298828125	-0.33447265625	0.228515625	4.0	-59.125	74.375
19	01	14	15	48	21	-0.201292507811	-0.599421988845	-0.235166777622	-0.6689453125	-0.14501953125	0.25244140625	11.625	-66.0625	55.9375
19	01	14	15	48	21	-0.207885932311	-0.591187064113	-0.225403038176	-0.59033203125	-0.0419921875	0.30224609375	18.1875	-69.5	40.4375
19	01	14	15	48	22	-0.212462608793	-0.582883629409	-0.215758495284	-0.55029296875	-0.0224609375	0.33935546875	24.5	-65.9375	30.375
19	01	14	15	48	22	-0.21637497355	-0.575026410668	-0.206303924006	-0.5048828125	-0.00537109375	0.39501953125	25.875	-57.9375	27.8125
19	01	14	15	48	22	-0.221376881075	-0.567877171635	-0.197817058606	-0.4677734375	0.041015625	0.43115234375	16.5625	-48.0	29.0625
19	01	14	15	48	22	-0.228266227948	-0.561327405999	-0.192317348734	-0.48291015625	0.0986328125	0.435546875	-5.3125	-38.4375	27.625
19	01	14	15	48	22	-0.238152165255	-0.554793229669	-0.191705779361	-0.51611328125	0.1552734375	0.43310546875	-39.75	-29.1875	24.25
19	01	14	15	48	22	-0.2521380696	-0.547794523036	-0.196961885887	-0.56640625	0.14111328125	0.392578125	-82.25	-23.75	27.875
19	01	14	15	48	22	-0.268743471036	-0.540416691473	-0.208622571883	-0.58935546875	0.0771484375	0.3642578125	-119.3125	-21.0625	32.125
19	01	14	15	48	22	-0.287591433849	-0.531970912018	-0.223627974029	-0.6328125	0.00634765625	0.3330078125	-143.875	-18.8125	33.8125
19	01	14	15	48	22	-0.307671564078	-0.522632732235	-0.239740905316	-0.6611328125	-0.05517578125	0.30859375	-155.3125	-19.9375	37.75
19	01	14	15	48	22	-0.32842716663	-0.512568545876	-0.254941511803	-0.66015625	-0.08056640625	0.26904296875	-154.9375	-24.6875	43.4375
19	01	14	15	48	22	-0.349293082439	-0.501876116878	-0.268912339896	-0.65283203125	-0.0810546875	0.21142578125	-151.8125	-29.875	47.375
19	01	14	15	48	22	-0.370730018104	-0.490359724308	-0.280946702886	-0.6865234375	-0.0361328125	0.18017578125	-147.0625	-38.9375	53.5
19	01	14	15	48	22	-0.393918821251	-0.476376882532	-0.291441334284	-0.68603515625	-0.0087890625	0.1416015625	-150.4375	-56.8125	60.25
19	01	14	15	48	22	-0.418628011697	-0.459886582321	-0.300284271403	-0.76220703125	-0.0380859375	0.1884765625	-153.1875	-74.0	66.8125
19	01	14	15	48	22	-0.444388687899	-0.442252497256	-0.308343860908	-1.07958984375	0.14404296875	0.44921875	-158.4375	-78.3125	70.9375
19	01	14	15	48	22	-0.467150606616	-0.423755769759	-0.313895423286	-1.58935546875	0.421875	0.34130859375	-140.875	-94.625	53.375
19	01	14	15	48	22	-0.487013065374	-0.404491237528	-0.317818903547	-1.67724609375	0.28515625	0.40087890625	-125.4375	-102.0	41.125
19	01	14	15	48	22	-0.502192384699	-0.391109479965	-0.319515937518	-1.9365234375	0.146484375	0.60546875	-93.6875	-98.8125	27.25
19	01	14	15	48	22	-0.507507632389	-0.386718984824	-0.311096380311	-2.134765625	0.1630859375	0.6474609375	6.0	-95.125	7.6875
19	01	14	15	48	22	-0.504999173195	-0.386958515598	-0.290707162428	-2.02099609375	0.0009765625	0.53173828125	106.5	-87.75	4.25
19	01	14	15	48	22	-0.497922435979	-0.392942466638	-0.2612902609	-1.701171875	-0.08154296875	0.43017578125	176.0	-87.6875	10.3125
19	01	14	15	48	22	-0.49022193678	-0.400258399079	-0.228448793497	-1.3623046875	0.02392578125	0.384765625	193.625	-87.6875	18.5625
19	01	14	15	48	22	-0.486635995606	-0.404238078377	-0.201172989027	-1.13232421875	0.19140625	0.408203125	144.25	-79.1875	28.875
19	01	14	15	48	22	-0.490280928537	-0.403857700004	-0.186517928247	-0.96044921875	0.24560546875	0.45556640625	48.8125	-66.25	38.5
19	01	14	15	48	22	-0.499624020416	-0.396476623091	-0.184871873667	-0.83056640625	0.10205078125	0.51123046875	-37.5625	-50.1875	42.4375
19	01	14	15	48	22	-0.510494690313	-0.385800685972	-0.19116085247	-0.72021484375	-0.0869140625	0.56982421875	-77.5	-32.6875	40.8125
19	01	14	15	48	22	-0.519470752824	-0.377136621043	-0.198791709781	-0.65966796875	-0.177734375	0.56884765625	-70.125	-14.6875	37.3125
19	01	14	15	48	22	-0.524709035858	-0.375542014381	-0.201473133345	-0.5732421875	-0.1591796875	0.48974609375	-21.375	3.8125	37.5
19	01	14	15	48	22	-0.527025275824	-0.381093899507	-0.199030622404	-0.47021484375	-0.05810546875	0.32421875	22.75	18.5	39.75
19	01	14	15	48	22	-0.529490546303	-0.388862740115	-0.195682615729	-0.3564453125	0.044921875	0.1572265625	25.875	23.5625	42.0625
19	01	14	15	48	22	-0.534962102047	-0.39391276744	-0.195674671895	-0.2490234375	0.1455078125	0.07275390625	-9.875	23.5	43.4375
19	01	14	15	48	22	-0.542781152638	-0.394283846401	-0.201475383432	-0.19287109375	0.17529296875	0.0390625	-55.9375	21.5625	35.6875
19	01	14	15	48	22	-0.550462746287	-0.391164845433	-0.212275133783	-0.1875	0.13525390625	0.00537109375	-85.4375	20.875	20.6875
19	01	14	15	48	22	-0.555838086136	-0.386651397351	-0.225521217555	-0.2255859375	0.046875	-0.01025390625	-89.25	20.4375	4.4375
19	01	14	15	48	22	-0.558101000807	-0.381832880692	-0.2387065851	-0.25830078125	0.017578125	0.046875	-78.1875	19.25	-14.375
19	01	14	15	48	22	-0.555473421727	-0.37914524731	-0.24993557433	-0.3291015625	-0.005859375	0.10693359375	-47.375	22.1875	-35.6875
19	01	14	15	48	22	-0.546242047157	-0.380843617236	-0.257740800575	-0.4462890625	-0.07373046875	0.1259765625	2.4375	26.5	-56.75
19	01	14	15	48	22	-0.529802600806	-0.387158743884	-0.260811810282	-0.56689453125	-0.08984375	0.16943359375	58.9375	29.125	-81.75
19	01	14	15	48	22	-0.50688150032	-0.397143639083	-0.257011197814	-0.6865234375	-0.076171875	0.23388671875	116.25	32.0625	-106.4375
19	01	14	15	48	22	-0.477423592401	-0.411748856345	-0.248721700209	-0.7998046875	-0.11328125	0.2998046875	166.3125	43.0625	-122.0625
19	01	14	15	48	22	-0.442991583105	-0.429563896651	-0.237425910482	-0.9423828125	-0.15234375	0.4541015625	200.625	56.125	-131.25
19	01	14	15	48	22	-0.403617180274	-0.450735351024	-0.225093022962	-1.302734375	0.0166015625	0.56494140625	222.125	77.4375	-144.4375
19	01	14	15	48	22	-0.360538184246	-0.473576396067	-0.21161095053	-1.56640625	0.14501953125	0.5322265625	237.125	90.625	-153.375
19	01	14	15	48	22	-0.319275950203	-0.497560226736	-0.201538747385	-1.6259765625	0.1083984375	0.76904296875	212.5625	120.625	-140.3125
19	01	14	15	48	22	-0.278734715319	-0.52426783547	-0.200979508988	-2.205078125	0.314453125	1.04736328125	162.4375	173.4375	-151.6875
19	01	14	15	48	22	-0.244374634822	-0.552467331271	-0.214102452287	-2.49169921875	0.29736328125	1.01513671875	76.5	221.3125	-142.3125
19	01	14	15	48	22	-0.225707830398	-0.579406282847	-0.241699028766	-2.21875	-0.23583984375	0.76171875	-52.6875	256.8125	-104.4375
19	01	14	15	48	22	-0.220937624548	-0.598362561069	-0.282702507433	-1.7666015625	-0.5595703125	0.275390625	-173.875	236.5625	-88.4375
19	01	14	15	48	22	-0.223014714328	-0.606363214792	-0.327015008038	-1.42578125	-0.70849609375	0.08251953125	-221.8125	177.875	-89.1875
19	01	14	15	48	22	-0.228261703536	-0.609348889867	-0.365096660575	-1.1787109375	-0.6162109375	0.06982421875	-210.125	135.1875	-69.3125
19	01	14	15	48	23	-0.233700021647	-0.61504181722	-0.391900715329	-1.0927734375	-0.35498046875	-0.19921875	-161.25	122.75	-29.3125
19	01	14	15	48	23	-0.242181214487	-0.618514220667	-0.418263070282	-1.2138671875	-0.08740234375	-0.1416015625	-175.0	112.125	-25.625
19	01	14	15	48	23	-0.248720461372	-0.62103820723	-0.435611762654	-1.1484375	-0.248046875	0.06884765625	-123.625	82.6875	-8.625
19	01	14	15	48	23	-0.244865191187	-0.622294488869	-0.439805226245	-0.9150390625	-0.4033203125	0.23193359375	-13.8125	56.0625	-8.0625
19	01	14	15	48	23	-0.23076670851	-0.624309087899	-0.434922921142	-0.73291015625	-0.2470703125	0.2734375	80.375	36.75	-31.1875
19	01	14	15	48	23	-0.214108463904	-0.627738184509	-0.428338996488	-0.61767578125	-0.03759765625	0.27099609375	103.6875	24.9375	-37.4375
19	01	14	15	48	23	-0.204582716053	-0.628457108353	-0.421616170196	-0.50341796875	0.017578125	0.27685546875	71.375	15.6875	-26.3125
19	01	14	15	48	23	-0.201468899438	-0.627049825153	-0.418073905226	-0.4501953125	0.068359375	0.31787109375	28.4375	6.4375	-20.5625
19	01	14	15	48	23	-0.201832671692	-0.623868633214	-0.415139350726	-0.43017578125	0.04248046875	0.33447265625	11.625	-8.0	-12.25
19	01	14	15	48	23	-0.204587226174	-0.619559944179	-0.412470308616	-0.3603515625	0.0361328125	0.30078125	1.625	-20.8125	-5.875
19	01	14	15	48	23	-0.209714060189	-0.615043243459	-0.410517103851	-0.33154296875	0.08251953125	0.24755859375	-11.0	-26.4375	-1.6875
19	01	14	15	48	23	-0.217163368277	-0.610535461742	-0.408875043308	-0.3447265625	0.11962890625	0.220703125	-22.125	-29.5625	5.0625
19	01	14	15	48	23	-0.226619040142	-0.605700876481	-0.408072960515	-0.37353515625	0.11181640625	0.1943359375	-34.625	-32.6875	9.8125
19	01	14	15	48	23	-0.23778996844	-0.600151119012	-0.408075905798	-0.43994140625	0.12353515625	0.17578125	-45.8125	-37.25	10.8125
19	01	14	15	48	23	-0.249873119567	-0.593677536401	-0.408012165194	-0.5322265625	0.09228515625	0.17041015625	-49.0625	-44.5	13.0
19	01	14	15	48	23	-0.262506436432	-0.586168755055	-0.407156576944	-0.64013671875	0.0478515625	0.17822265625	-47.625	-54.0	15.4375
19	01	14	15	48	23	-0.275201424754	-0.57774599395	-0.404654124222	-0.72119140625	-0.0068359375	0.18017578125	-39.6875	-65.5625	19.75
19	01	14	15	48	23	-0.287651635636	-0.568589568764	-0.400136669473	-0.783203125	-0.09619140625	0.1767578125	-28.5625	-77.875	27.3125
19	01	14	15	48	23	-0.300343354727	-0.559367373719	-0.392747304951	-0.92236328125	-0.1513671875	0.21728515625	-15.5625	-87.0625	38.0
19	01	14	15	48	23	-0.315670881757	-0.551935766382	-0.381283062323	-1.3798828125	-0.01806640625	0.31884765625	-8.8125	-88.8125	53.75
19	01	14	15	48	23	-0.330446439738	-0.5430332424	-0.370363686061	-1.76220703125	0.119140625	0.1181640625	-7.8125	-108.3125	54.125
19	01	14	15	48	23	-0.347777745726	-0.531432227455	-0.360900282639	-1.8447265625	-0.08935546875	0.04052734375	-26.9375	-122.125	59.0625
19	01	14	15	48	23	-0.369570077352	-0.516787753086	-0.354067055114	-1.9560546875	-0.17236328125	0.13720703125	-61.3125	-131.25	68.5
19	01	14	15	48	23	-0.395065197402	-0.500957074043	-0.346788266899	-2.1748046875	-0.23095703125	0.12939453125	-76.875	-140.6875	88.0625
19	01	14	15	48	23	-0.421138244165	-0.483515531924	-0.339413010986	-2.3408203125	-0.17919921875	0.0576171875	-83.0625	-150.5	88.375
19	01	14	15	48	23	-0.445798129907	-0.465512368127	-0.332517553632	-2.23779296875	-0.07763671875	0.11669921875	-83.5625	-148.25	80.625
19	01	14	15	48	23	-0.471673725624	-0.446954799786	-0.326656027373	-1.9873046875	-0.09619140625	0.1513671875	-96.625	-142.5625	88.75
19	01	14	15	48	23	-0.498160251933	-0.426506228928	-0.322198967159	-1.67138671875	-0.18505859375	0.1259765625	-111.25	-143.3125	89.5
19	01	14	15	48	23	-0.523308920422	-0.406305981251	-0.315853004803	-1.4609375	-0.17431640625	0.17431640625	-99.125	-144.1875	89.5
19	01	14	15	48	23	-0.546251046026	-0.387624624951	-0.306388854866	-1.3017578125	-0.119140625	0.1767578125	-76.625	-145.0	88.125
19	01	14	15	48	23	-0.566584320438	-0.371334590708	-0.29351545804	-1.13232421875	-0.09375	0.17138671875	-48.6875	-143.375	86.5625
19	01	14	15	48	23	-0.584528544817	-0.357540797278	-0.278134758142	-0.9619140625	-0.06298828125	0.18994140625	-25.0	-137.625	84.9375
19	01	14	15	48	23	-0.600154851516	-0.346494365103	-0.260801554005	-0.837890625	-0.01953125	0.1748046875	-3.4375	-130.375	82.875
19	01	14	15	48	23	-0.614117760603	-0.33739246478	-0.242790742564	-0.71240234375	0.00439453125	0.16064453125	8.75	-121.25	80.9375
19	01	14	15	48	23	-0.626866111802	-0.329454120485	-0.225576589351	-0.60302734375	0.013671875	0.16552734375	11.1875	-110.375	78.75
19	01	14	15	48	23	-0.637688628854	-0.323421903168	-0.211606668859	-0.51318359375	0.01220703125	0.16162109375	9.25	-99.3125	73.9375
19	01	14	15	48	23	-0.64708472515	-0.31774411235	-0.199398773539	-0.4404296875	-0.00439453125	0.1640625	7.0	-87.125	65.9375
19	01	14	15	48	23	-0.655262976486	-0.312556045323	-0.189144929595	-0.37451171875	-0.01513671875	0.15771484375	4.75	-74.25	57.9375
19	01	14	15	48	23	-0.662346714179	-0.307308856053	-0.181638759804	-0.32373046875	-0.001953125	0.169921875	-4.5625	-60.375	47.875
19	01	14	15	48	23	-0.667890524878	-0.30211624766	-0.176875330448	-0.2919921875	0.0498046875	0.2314453125	-13.5625	-45.25	32.25
19	01	14	15	48	23	-0.669986279621	-0.298524450544	-0.176331453204	-0.3525390625	0.162109375	0.31591796875	-20.625	-22.25	3.5625
19	01	14	15	48	23	-0.66698134933	-0.298945337575	-0.180416990174	-0.49658203125	0.322265625	0.39697265625	-19.5	8.9375	-33.125
19	01	14	15	48	23	-0.657525522772	-0.305478069384	-0.187925469657	-0.65966796875	0.369140625	0.39208984375	1.9375	39.4375	-68.375
19	01	14	15	48	23	-0.642572852742	-0.31725813911	-0.195738140078	-0.66455078125	0.1689453125	0.40771484375	43.5625	63.9375	-85.0625
19	01	14	15	48	23	-0.623148879363	-0.333485355224	-0.201287463677	-0.61083984375	0.0009765625	0.412109375	87.6875	78.875	-92.875
19	01	14	15	48	23	-0.598753542265	-0.354064148693	-0.203002475186	-0.5986328125	-0.01171875	0.4013671875	127.25	91.75	-111.875
19	01	14	15	48	23	-0.5688471021	-0.378844845787	-0.203307907414	-0.58349609375	0.017578125	0.3798828125	159.25	107.875	-130.0
19	01	14	15	48	23	-0.534601821317	-0.405757838579	-0.203794437879	-0.6044921875	0.03857421875	0.349609375	174.375	123.1875	-144.5625
19	01	14	15	48	23	-0.498239516206	-0.432137176864	-0.205936558579	-0.578125	0.04150390625	0.38818359375	169.0625	133.3125	-153.125
19	01	14	15	48	23	-0.45971550474	-0.45660272052	-0.212523816716	-0.49267578125	0.041015625	0.40966796875	148.6875	146.5	-171.25
19	01	14	15	48	24	-0.4197268394	-0.479539592433	-0.225640559148	-0.55419921875	0.02685546875	0.47216796875	117.125	168.25	-188.1875
19	01	14	15	48	24	-0.37944667034	-0.50188032334	-0.242181822086	-0.7421875	-0.09130859375	0.46240234375	97.75	184.4375	-189.4375
19	01	14	15	48	24	-0.34245066095	-0.52157963794	-0.26286490763	-0.84716796875	-0.14111328125	0.33935546875	58.875	188.3125	-181.25
19	01	14	15	48	24	-0.309140691736	-0.538753185776	-0.286557857394	-1.0478515625	-0.1279296875	0.328125	23.4375	189.375	-172.4375
19	01	14	15	48	24	-0.279974737179	-0.553906854132	-0.312629301032	-1.734375	-0.0478515625	0.28955078125	-9.875	188.625	-162.5625
19	01	14	15	48	24	-0.255368569905	-0.564630650141	-0.339840391308	-1.6201171875	-0.05029296875	0.111328125	-37.9375	167.125	-154.75
19	01	14	15	48	24	-0.237483539835	-0.573537091706	-0.368950911926	-1.65185546875	-0.2841796875	-0.05078125	-77.375	161.625	-128.3125
19	01	14	15	48	24	-0.225028919781	-0.57993620715	-0.39451774816	-1.73583984375	-0.5634765625	-0.06494140625	-83.9375	135.4375	-97.75
19	01	14	15	48	24	-0.215208961601	-0.586362023284	-0.410764694151	-2.005859375	-0.62744140625	-0.00927734375	-49.8125	109.0	-61.75
19	01	14	15	48	24	-0.207155951109	-0.592231642196	-0.419133740798	-1.96826171875	-0.60009765625	0.005859375	-18.5625	86.25	-37.375
19	01	14	15	48	24	-0.200860247427	-0.596660522287	-0.421861449473	-1.74609375	-0.5654296875	0.05029296875	3.25	59.9375	-18.3125
19	01	14	15	48	24	-0.193296373301	-0.598138445959	-0.41949036113	-1.4228515625	-0.59521484375	0.0830078125	37.625	25.1875	-11.625
19	01	14	15	48	24	-0.186521691009	-0.596979273482	-0.413143104202	-1.138671875	-0.5283203125	0.16162109375	56.8125	-4.0	-4.75
19	01	14	15	48	24	-0.181695202279	-0.594644392277	-0.403916307922	-0.93310546875	-0.388671875	0.20166015625	64.9375	-23.125	2.625
19	01	14	15	48	24	-0.178526444383	-0.591792275124	-0.392575073597	-0.81640625	-0.21142578125	0.21240234375	69.875	-34.75	5.0
19	01	14	15	48	24	-0.177856371768	-0.589050049392	-0.379943690547	-0.75830078125	-0.04296875	0.22314453125	65.5	-40.8125	10.3125
19	01	14	15	48	24	-0.180479676566	-0.586177481819	-0.36755110324	-0.72216796875	0.03125	0.21875	50.9375	-45.6875	19.9375
19	01	14	15	48	24	-0.187008779904	-0.582388308697	-0.356866950425	-0.6376953125	0.07177734375	0.27099609375	25.875	-48.125	29.625
19	01	14	15	48	24	-0.197196569486	-0.577674258801	-0.348435535499	-0.591796875	0.07958984375	0.30859375	-0.4375	-49.875	37.3125
19	01	14	15	48	24	-0.209838605315	-0.571593524949	-0.342345764169	-0.5791015625	0.0341796875	0.3447265625	-21.625	-52.5625	42.375
19	01	14	15	48	24	-0.223749659126	-0.564684082442	-0.337455500629	-0.58837890625	-0.017578125	0.3837890625	-32.875	-53.1875	46.5
19	01	14	15	48	24	-0.238281109305	-0.557860998731	-0.333190721234	-0.6025390625	-0.01708984375	0.38671875	-39.0625	-50.6875	49.0
19	01	14	15	48	24	-0.253288750964	-0.551070875291	-0.329336409688	-0.67822265625	-0.05078125	0.37353515625	-42.4375	-51.25	52.5625
19	01	14	15	48	24	-0.26873374901	-0.543754024514	-0.325861795586	-0.7373046875	-0.09423828125	0.35693359375	-45.25	-55.375	55.6875
19	01	14	15	48	24	-0.284547254208	-0.535708118872	-0.322450266834	-0.79638671875	-0.109375	0.3115234375	-46.875	-63.9375	57.4375
19	01	14	15	48	24	-0.301210472112	-0.526980996194	-0.31933803244	-0.8173828125	-0.12109375	0.2626953125	-51.375	-71.75	60.6875
19	01	14	15	48	24	-0.319756326014	-0.517444957425	-0.317498073664	-0.83203125	-0.1142578125	0.23681640625	-65.3125	-75.4375	65.75
19	01	14	15	48	24	-0.340326725482	-0.507133206964	-0.317072693486	-0.845703125	-0.091796875	0.19677734375	-81.1875	-79.4375	71.25
19	01	14	15	48	24	-0.363396440583	-0.494863678241	-0.318109212012	-0.853515625	-0.0849609375	0.16015625	-100.8125	-83.75	76.5
19	01	14	15	48	24	-0.388925910029	-0.480664083722	-0.321480346535	-0.86083984375	-0.10986328125	0.1611328125	-125.125	-85.8125	81.75
19	01	14	15	48	24	-0.416499779061	-0.464717074702	-0.326656919334	-0.9580078125	-0.1220703125	0.1611328125	-146.0	-87.9375	86.75
19	01	14	15	48	24	-0.444700921697	-0.446837146273	-0.331786194118	-1.08984375	-0.10888671875	0.14501953125	-153.0	-96.8125	87.5
19	01	14	15	48	24	-0.473928436909	-0.426688178033	-0.333916610216	-1.1484375	-0.232421875	0.08642578125	-147.6875	-118.25	95.875
19	01	14	15	48	24	-0.503126937526	-0.405101720777	-0.33075881044	-1.17236328125	-0.33935546875	0.08154296875	-126.8125	-143.1875	103.8125
19	01	14	15	48	24	-0.532211639356	-0.383106933514	-0.321646254519	-1.34912109375	-0.2236328125	0.2119140625	-102.4375	-165.25	111.375
19	01	14	15	48	24	-0.557363440768	-0.362847750259	-0.30370570316	-1.4208984375	-0.07177734375	0.2275390625	-47.375	-188.875	103.75
19	01	14	15	48	24	-0.579146590387	-0.345876670642	-0.279167088674	-1.328125	-0.06103515625	0.31005859375	-1.0	-194.875	104.375
19	01	14	15	48	24	-0.597605658295	-0.33118254539	-0.249882296503	-1.28564453125	0.07861328125	0.4326171875	33.4375	-198.625	97.875
19	01	14	15	48	24	-0.612165401982	-0.319510057764	-0.217584213167	-1.2373046875	0.27880859375	0.611328125	62.5	-192.25	87.625
19	01	14	15	48	24	-0.622547914056	-0.309992240734	-0.187801954074	-1.3984375	0.6357421875	0.744140625	63.625	-171.1875	65.875
19	01	14	15	48	24	-0.629157536895	-0.301333989101	-0.163270897477	-1.40087890625	0.755859375	0.779296875	51.375	-146.625	41.0625
19	01	14	15	48	24	-0.63372549892	-0.294798628506	-0.144774813006	-1.2333984375	0.4365234375	0.80517578125	41.6875	-110.4375	33.3125
19	01	14	15	48	24	-0.635071990794	-0.293274475326	-0.131592043455	-1.04345703125	0.12060546875	0.70361328125	49.3125	-88.1875	27.6875
19	01	14	15	48	24	-0.634572113441	-0.293879458134	-0.118711432206	-0.85693359375	0.02197265625	0.673828125	65.125	-69.8125	22.25
19	01	14	15	48	24	-0.633172738605	-0.296628061463	-0.107542930926	-0.728515625	0.03857421875	0.66943359375	67.0	-46.6875	17.9375
19	01	14	15	48	24	-0.631446643648	-0.300953353937	-0.0999108984779	-0.63623046875	0.037109375	0.66455078125	59.0625	-20.25	14.8125
19	01	14	15	48	24	-0.630045391723	-0.305593071428	-0.0976530685611	-0.56884765625	0.02978515625	0.65625	37.6875	5.875	11.0
19	01	14	15	48	24	-0.628793196964	-0.309696824053	-0.100465307921	-0.50439453125	0.0400390625	0.61962890625	13.8125	25.9375	3.4375
19	01	14	15	48	24	-0.626951087214	-0.314085893186	-0.106811176268	-0.44775390625	0.056640625	0.58203125	-0.6875	42.75	-6.5625
19	01	14	15	48	24	-0.624197684734	-0.319819680063	-0.115293773977	-0.41259765625	0.09326171875	0.521484375	-6.0	57.4375	-14.8125
19	01	14	15	48	25	-0.620120869859	-0.327028309124	-0.125122813308	-0.39599609375	0.12109375	0.42724609375	-6.75	66.9375	-23.625
19	01	14	15	48	25	-0.615034225672	-0.334951655303	-0.136104626699	-0.3720703125	0.134765625	0.345703125	-9.1875	73.3125	-31.125
19	01	14	15	48	25	-0.60900111975	-0.342830155305	-0.148923905812	-0.35205078125	0.16552734375	0.29541015625	-17.0625	79.5625	-41.125
19	01	14	15	48	25	-0.602033837506	-0.350942271458	-0.16472925055	-0.3681640625	0.21728515625	0.28076171875	-29.6875	92.375	-51.875
19	01	14	15	48	25	-0.593863566238	-0.358393305339	-0.185055943765	-0.4248046875	0.2275390625	0.2646484375	-42.75	109.6875	-61.625
19	01	14	15	48	25	-0.583785932153	-0.366689584984	-0.208978884651	-0.48828125	0.2216796875	0.24462890625	-51.5625	128.3125	-73.4375
19	01	14	15	48	25	-0.570864084466	-0.376161162468	-0.234864214373	-0.572265625	0.1904296875	0.2236328125	-48.6875	142.0625	-87.375
19	01	14	15	48	25	-0.554576283302	-0.387214609429	-0.26025899978	-0.6630859375	0.162109375	0.2373046875	-33.375	150.0625	-99.5625
19	01	14	15	48	25	-0.534491874122	-0.400334840969	-0.283206839777	-0.73779296875	0.0927734375	0.24853515625	-6.25	153.125	-109.4375
19	01	14	15	48	25	-0.510371154937	-0.416377902294	-0.301632892574	-0.787109375	-0.01513671875	0.23779296875	33.5	153.8125	-114.0
19	01	14	15	48	25	-0.482111234009	-0.435358834306	-0.314083353615	-0.8037109375	-0.10400390625	0.2265625	79.75	151.0625	-116.3125
19	01	14	15	48	25	-0.449957794682	-0.456244508309	-0.320561358881	-0.8232421875	-0.1669921875	0.1875	122.625	143.1875	-118.6875
19	01	14	15	48	25	-0.414676084818	-0.47778692846	-0.322085030849	-0.876953125	-0.21240234375	0.169921875	155.0	134.8125	-120.4375
19	01	14	15	48	25	-0.377991044413	-0.498718686243	-0.320617948701	-0.94775390625	-0.177734375	0.19677734375	169.5625	128.6875	-119.875
19	01	14	15	48	25	-0.342463809286	-0.517632430325	-0.319026613997	-1.0927734375	-0.134765625	0.205078125	158.6875	122.375	-116.6875
19	01	14	15	48	25	-0.310783931949	-0.534045444728	-0.320305199306	-1.32666015625	0.00146484375	0.26220703125	123.5	121.8125	-110.5
19	01	14	15	48	25	-0.283441932307	-0.546986778065	-0.324884023615	-1.6328125	0.1025390625	0.20947265625	85.875	111.5	-108.0625
19	01	14	15	48	25	-0.260676516374	-0.557546236731	-0.331842242923	-1.7060546875	0.00048828125	0.2275390625	54.0	104.6875	-96.75
19	01	14	15	48	25	-0.24083784745	-0.566451105469	-0.336721339174	-1.5849609375	-0.31591796875	0.2001953125	52.25	87.8125	-78.25
19	01	14	15	48	25	-0.218263741335	-0.574346142607	-0.335574398731	-1.43212890625	-0.556640625	0.19970703125	93.25	71.0625	-60.1875
19	01	14	15	48	25	-0.196708714764	-0.58322943788	-0.326769611805	-1.65087890625	-0.3427734375	0.3447265625	123.4375	59.25	-47.1875
19	01	14	15	48	25	-0.177305536082	-0.59185259325	-0.316525476807	-1.828125	0.05712890625	0.42333984375	119.625	55.75	-41.0625
19	01	14	15	48	25	-0.170471212046	-0.599914623414	-0.308166541217	-1.7939453125	0.14990234375	0.3291015625	56.25	53.5	-24.8125
19	01	14	15	48	25	-0.172173404377	-0.603308792012	-0.309314006871	-1.60009765625	-0.169921875	0.197265625	-16.3125	29.4375	-2.25
19	01	14	15	48	25	-0.176201354922	-0.601110891799	-0.313830054384	-1.26318359375	-0.4814453125	0.20654296875	-37.375	-0.9375	10.125
19	01	14	15	48	25	-0.180295527322	-0.596061651937	-0.314693208825	-0.99072265625	-0.56640625	0.2724609375	-18.6875	-24.4375	23.5625
19	01	14	15	48	25	-0.183346399899	-0.591237208995	-0.30901558678	-0.8056640625	-0.47265625	0.26806640625	17.125	-38.625	36.625
19	01	14	15	48	25	-0.185297564196	-0.587141820673	-0.29918598804	-0.6923828125	-0.28271484375	0.21044921875	41.5	-46.4375	35.4375
19	01	14	15	48	25	-0.186827816029	-0.582822219948	-0.288511952424	-0.6142578125	-0.14501953125	0.18896484375	46.0	-50.75	27.8125
19	01	14	15	48	25	-0.188777084937	-0.577744547693	-0.278862754955	-0.5625	-0.0830078125	0.17724609375	39.0625	-53.9375	22.375
19	01	14	15	48	25	-0.192139538681	-0.572024064968	-0.270692139152	-0.5537109375	-0.0537109375	0.18896484375	26.5625	-55.3125	21.5
19	01	14	15	48	25	-0.197686204228	-0.566448181983	-0.263296784514	-0.57568359375	0.001953125	0.2333984375	12.875	-51.5	26.1875
19	01	14	15	48	25	-0.205571069332	-0.561414102052	-0.256414507798	-0.5791015625	0.05859375	0.29833984375	0.1875	-44.3125	34.0
19	01	14	15	48	25	-0.215395802648	-0.556952875932	-0.250796642981	-0.57666015625	0.1162109375	0.35888671875	-14.5	-34.5	37.75
19	01	14	15	48	25	-0.226679310318	-0.552782583077	-0.247919051834	-0.58935546875	0.18017578125	0.42138671875	-34.625	-23.125	34.3125
19	01	14	15	48	25	-0.23975212301	-0.548292596995	-0.24848036985	-0.64208984375	0.19873046875	0.46142578125	-58.8125	-16.4375	31.1875
19	01	14	15	48	25	-0.254946131811	-0.542607400479	-0.252931953609	-0.66796875	0.1328125	0.46826171875	-84.625	-15.25	33.3125
19	01	14	15	48	25	-0.270562265999	-0.537035276004	-0.262383754011	-0.67236328125	0.0	0.47265625	-105.5	-14.25	35.75
19	01	14	15	48	25	-0.286614529468	-0.531359900671	-0.271600224901	-0.736328125	-0.021484375	0.42626953125	-106.5625	-15.25	39.875
19	01	14	15	48	25	-0.303027910693	-0.526041805089	-0.279652343766	-0.80224609375	0.02001953125	0.3330078125	-102.8125	-16.25	45.25
19	01	14	15	48	25	-0.321776060534	-0.519346073423	-0.288939277422	-0.85693359375	0.06689453125	0.2353515625	-119.375	-22.625	50.375
19	01	14	15	48	25	-0.343997054102	-0.509281657103	-0.300661726137	-0.87548828125	0.03173828125	0.16015625	-147.375	-36.8125	54.8125
19	01	14	15	48	25	-0.369746110888	-0.495171706443	-0.313594506065	-0.87890625	-0.09619140625	0.13232421875	-171.125	-56.0	62.4375
19	01	14	15	48	25	-0.397159769061	-0.47791009555	-0.324893414893	-0.86572265625	-0.220703125	0.11474609375	-174.4375	-76.9375	69.375
19	01	14	15	48	25	-0.424553863144	-0.458977149344	-0.331781886148	-0.87255859375	-0.298828125	0.099609375	-156.8125	-98.625	76.375
19	01	14	15	48	25	-0.451209777536	-0.439674724384	-0.33238042046	-0.900390625	-0.318359375	0.1591796875	-126.3125	-118.875	84.8125
19	01	14	15	48	25	-0.477954651673	-0.421742643731	-0.329093536179	-1.2470703125	-0.10302734375	0.37060546875	-110.25	-122.125	95.5625
19	01	14	15	48	25	-0.501707913435	-0.403563591683	-0.321837691915	-1.5732421875	0.22705078125	0.35205078125	-84.625	-138.6875	80.5625
19	01	14	15	48	25	-0.524887817585	-0.383839474976	-0.314200288945	-1.6806640625	0.27880859375	0.36669921875	-87.0625	-147.125	75.6875
19	01	14	15	48	25	-0.547474362842	-0.361931212001	-0.305413791712	-1.7099609375	0.185546875	0.44775390625	-85.8125	-160.0	71.125
19	01	14	15	48	26	-0.566273048854	-0.342705666018	-0.289300954038	-1.6201171875	0.03662109375	0.5419921875	-33.1875	-172.0	68.375
19	01	14	15	48	26	-0.580117530047	-0.329028259283	-0.265370964823	-1.67578125	0.18115234375	0.64599609375	29.3125	-174.375	61.6875
19	01	14	15	48	26	-0.589534844004	-0.320432542812	-0.23644869921	-1.7470703125	0.4716796875	0.689453125	74.3125	-169.125	52.4375
19	01	14	15	48	26	-0.597468547275	-0.313413115769	-0.207823107924	-1.59228515625	0.44970703125	0.67041015625	79.9375	-157.5625	52.9375
19	01	14	15	48	26	-0.604963884249	-0.306449118524	-0.181086344286	-1.3115234375	0.24560546875	0.640625	74.1875	-145.5	56.0625
19	01	14	15	48	26	-0.612848256386	-0.299496702927	-0.156004396307	-1.04296875	0.123046875	0.58349609375	66.5625	-135.125	62.625
19	01	14	15	48	26	-0.622683672691	-0.290589782953	-0.134949382505	-0.8388671875	0.05810546875	0.56201171875	38.375	-124.5	72.25
19	01	14	15	48	26	-0.63505443465	-0.278007972112	-0.120907528596	-0.68408203125	-0.04052734375	0.5732421875	-8.25	-109.375	78.8125
19	01	14	15	48	26	-0.647748460847	-0.263237455162	-0.116573971565	-0.56982421875	-0.16259765625	0.58984375	-43.125	-88.0625	80.5625
19	01	14	15	48	26	-0.660024032376	-0.248226164201	-0.1162701851	-0.47314453125	-0.28466796875	0.580078125	-53.6875	-68.4375	77.5
19	01	14	15	48	26	-0.670467140174	-0.235655314357	-0.117369896273	-0.3720703125	-0.283203125	0.52685546875	-47.9375	-49.0625	67.625
19	01	14	15	48	26	-0.679252410938	-0.227109194097	-0.12066511065	-0.3369140625	-0.171875	0.4296875	-47.5	-24.875	58.0625
19	01	14	15	48	26	-0.686281492996	-0.221436255478	-0.125549718169	-0.318359375	-0.05126953125	0.35693359375	-48.125	-7.5625	45.375
19	01	14	15	48	26	-0.69127638201	-0.218015118889	-0.132688932941	-0.31005859375	0.0009765625	0.283203125	-49.3125	8.5	31.625
19	01	14	15	48	26	-0.694202346184	-0.217098447809	-0.142148519805	-0.3076171875	0.056640625	0.24462890625	-49.0	27.5	17.75
19	01	14	15	48	26	-0.694023623357	-0.219358095361	-0.153196666487	-0.30615234375	0.1259765625	0.24365234375	-41.5	46.8125	-2.875
19	01	14	15	48	26	-0.68975438739	-0.226072936102	-0.16491605652	-0.341796875	0.18408203125	0.255859375	-22.75	66.0625	-27.5
19	01	14	15	48	26	-0.680952837141	-0.237604140449	-0.176509420544	-0.38671875	0.185546875	0.251953125	5.1875	83.375	-50.4375
19	01	14	15	48	26	-0.667779600757	-0.253110502179	-0.187254164621	-0.3896484375	0.15869140625	0.28173828125	34.5	98.375	-71.9375
19	01	14	15	48	26	-0.649501401862	-0.270981603483	-0.196766821989	-0.42236328125	0.16015625	0.30224609375	65.0	110.875	-97.8125
19	01	14	15	48	26	-0.624680923335	-0.293023264576	-0.204524257362	-0.498046875	0.1787109375	0.31787109375	101.375	122.6875	-129.25
19	01	14	15	48	26	-0.593859887299	-0.319024216949	-0.209651460727	-0.5927734375	0.1435546875	0.326171875	139.625	131.1875	-151.625
19	01	14	15	48	26	-0.557019849832	-0.347908518962	-0.211552794162	-0.69970703125	0.05712890625	0.33349609375	176.375	135.6875	-171.4375
19	01	14	15	48	26	-0.514210424026	-0.378715214372	-0.20946827006	-0.81103515625	-0.03857421875	0.3544921875	213.5625	135.9375	-188.25
19	01	14	15	48	26	-0.465393563986	-0.410706005516	-0.203857639831	-0.87158203125	-0.1328125	0.40625	246.0625	138.5625	-202.875
19	01	14	15	48	26	-0.411686106447	-0.443241587105	-0.194704029587	-0.9736328125	-0.2216796875	0.45703125	273.375	142.125	-210.0
19	01	14	15	48	26	-0.355390651738	-0.474342460126	-0.182852548962	-1.08935546875	-0.16796875	0.50341796875	285.0625	139.625	-210.3125
19	01	14	15	48	26	-0.29931886383	-0.501591032413	-0.173219195666	-1.38671875	0.041015625	0.5810546875	260.4375	137.0625	-215.375
19	01	14	15	48	26	-0.247983976521	-0.522151838331	-0.171751639166	-1.728515625	0.2763671875	0.58056640625	192.125	126.125	-221.9375
19	01	14	15	48	26	-0.208433582131	-0.536861431456	-0.1823107203	-1.66845703125	0.2080078125	0.6083984375	88.25	123.1875	-202.25
19	01	14	15	48	26	-0.18047564911	-0.548323717147	-0.204156593261	-1.6025390625	-0.06396484375	0.44580078125	-7.4375	125.625	-178.1875
19	01	14	15	48	26	-0.159910325226	-0.55919786249	-0.230649282073	-1.55712890625	-0.31591796875	0.24169921875	-56.0	130.5	-152.4375
19	01	14	15	48	26	-0.145263171585	-0.571653304649	-0.256957122846	-1.87158203125	-0.35302734375	0.23681640625	-78.3125	142.9375	-121.6875
19	01	14	15	48	26	-0.134028265196	-0.584329057828	-0.279530717031	-2.08544921875	-0.27783203125	0.287109375	-75.4375	140.75	-96.5
19	01	14	15	48	26	-0.123961126883	-0.596002168396	-0.295224013163	-1.93994140625	-0.384765625	0.2197265625	-46.8125	123.6875	-70.125
19	01	14	15	48	26	-0.112730739459	-0.604363715279	-0.302914271756	-1.5244140625	-0.52685546875	0.20849609375	-3.25	92.3125	-51.125
19	01	14	15	48	26	-0.100646695952	-0.60833572987	-0.303893207487	-1.119140625	-0.53759765625	0.28125	33.5625	57.75	-34.75
19	01	14	15	48	26	-0.0902061835435	-0.609227418221	-0.298388383859	-0.8818359375	-0.44482421875	0.31396484375	60.25	24.3125	-15.25
19	01	14	15	48	26	-0.0809316356803	-0.607719680595	-0.288631753493	-0.7265625	-0.306640625	0.296875	78.1875	-2.5	-6.5625
19	01	14	15	48	26	-0.0732428634913	-0.604436730962	-0.277468381193	-0.59912109375	-0.1337890625	0.3056640625	79.4375	-18.0625	-7.1875
19	01	14	15	48	26	-0.0683605910269	-0.600535584923	-0.267094594941	-0.5126953125	0.0263671875	0.32080078125	63.625	-22.625	-7.125
19	01	14	15	48	26	-0.0670779047206	-0.596865177673	-0.258668025665	-0.486328125	0.11669921875	0.3154296875	40.4375	-22.4375	-2.875
19	01	14	15	48	26	-0.0689705176705	-0.593451631248	-0.252505337702	-0.47314453125	0.14404296875	0.3095703125	17.4375	-20.8125	3.375
19	01	14	15	48	26	-0.0744621369518	-0.590265021689	-0.248288502557	-0.45703125	0.15966796875	0.34716796875	-5.4375	-17.875	12.4375
19	01	14	15	48	26	-0.0836177581784	-0.587643631928	-0.245543241717	-0.45703125	0.189453125	0.39794921875	-27.6875	-12.5625	23.5
19	01	14	15	48	26	-0.0971683698251	-0.585695776911	-0.244996128441	-0.5009765625	0.20703125	0.4267578125	-54.6875	-7.125	35.625
19	01	14	15	48	26	-0.115661361494	-0.583494784105	-0.24755803811	-0.54345703125	0.1962890625	0.412109375	-86.875	-9.0	47.6875
19	01	14	15	48	26	-0.136470394363	-0.580731575299	-0.256705938592	-0.59619140625	0.138671875	0.4052734375	-119.875	-16.3125	55.125
19	01	14	15	48	26	-0.16076743584	-0.576113829496	-0.268372974711	-0.68994140625	0.03857421875	0.3984375	-144.9375	-25.125	60.75
19	01	14	15	48	26	-0.18694846232	-0.56951227617	-0.280331141834	-0.8037109375	-0.03857421875	0.38818359375	-153.8125	-36.4375	66.0
19	01	14	15	48	27	-0.213916463113	-0.560577093777	-0.291609946006	-0.89794921875	-0.07470703125	0.31005859375	-154.5	-52.0625	68.3125
19	01	14	15	48	27	-0.241516830809	-0.549195967557	-0.301392496977	-0.95166015625	-0.10546875	0.228515625	-151.3125	-70.0625	71.0
