19	01	29	08	43	51	-0.909122551513	0.044247707428	-0.277753540007	0.29638671875	-0.4345703125	0.00830078125	4.9375	68.1875	57.6875
19	01	29	08	43	51	-0.902387692978	0.0476065201571	-0.287714276949	0.373046875	-0.6298828125	-0.25830078125	16.1875	77.5625	81.9375
19	01	29	08	43	51	-0.892585816509	0.0496796481804	-0.299359550768	0.6044921875	-0.6396484375	-0.53369140625	-11.0625	79.375	106.3125
19	01	29	08	43	51	-0.883821718473	0.0569439723317	-0.307485243952	0.4697265625	-0.2216796875	-0.529296875	-40.9375	71.0	85.625
19	01	29	08	43	51	-0.879634828539	0.0709786516056	-0.305519458244	0.3681640625	0.615234375	-0.06103515625	-102.0625	26.5	25.125
19	01	29	08	43	51	-0.876693486004	0.104063101757	-0.295954240715	-0.4267578125	1.4833984375	1.46923828125	-200.1875	21.9375	-20.3125
19	01	29	08	43	51	-0.871696377841	0.164915530943	-0.283078546452	-2.70263671875	2.705078125	3.05810546875	-335.75	71.1875	-101.5625
19	01	29	08	43	51	-0.874612544321	0.218927787612	-0.27147778068	-4.09765625	-0.173828125	2.81201171875	-246.875	76.25	-243.5625
19	01	29	08	43	51	-0.88666482219	0.196826407734	-0.273054681613	-3.18359375	-1.267578125	1.712890625	159.625	-28.8125	-85.75
19	01	29	08	43	51	-0.904611438023	0.129387144016	-0.275374902737	-1.8369140625	-0.22998046875	1.2958984375	398.625	-131.3125	-19.625
19	01	29	08	43	51	-0.914528047406	0.0854470946589	-0.267876641756	-0.78857421875	0.36376953125	0.994140625	229.4375	-126.25	3.5
19	01	29	08	43	51	-0.92044653944	0.0737895276297	-0.253106014128	-0.22412109375	-0.0244140625	0.6845703125	43.25	-102.125	-10.875
19	01	29	08	43	51	-0.926177606248	0.0797702887226	-0.234245117152	0.0	-0.458984375	0.3798828125	-27.125	-83.625	-31.875
19	01	29	08	43	51	-0.93295953565	0.0859353019884	-0.215326523732	0.08642578125	-0.52880859375	0.15087890625	-16.3125	-85.5	-59.625
19	01	29	08	43	51	-0.939464879305	0.0923413475209	-0.193776456298	0.1572265625	-0.41162109375	0.05322265625	-29.25	-97.8125	-60.4375
19	01	29	08	43	51	-0.944566724429	0.102110372833	-0.171506364412	0.23681640625	-0.33349609375	-0.07861328125	-71.75	-104.25	-62.25
19	01	29	08	43	52	-0.948786235848	0.119925701366	-0.146168984617	0.28662109375	-0.2841796875	-0.10498046875	-119.375	-106.25	-77.375
19	01	29	08	43	52	-0.952037823699	0.142875860329	-0.119439580805	0.2041015625	-0.19384765625	-0.111328125	-149.4375	-105.1875	-96.75
19	01	29	08	43	52	-0.954628216862	0.163936537977	-0.0926491677768	-0.05029296875	-0.0302734375	0.31005859375	-142.75	-108.375	-105.9375
19	01	29	08	43	52	-0.954984102632	0.191155506451	-0.0627419733819	-0.27294921875	0.41455078125	2.669921875	-181.5	-116.0	-112.625
19	01	29	08	43	52	-0.952739795535	0.212215007628	-0.087949906814	-0.205078125	0.36669921875	3.81396484375	-79.25	186.4375	-82.5625
19	01	29	08	43	52	-0.953439247188	0.211109099733	-0.134514153169	-2.30908203125	-1.16357421875	1.8232421875	75.0	290.125	-110.5625
19	01	29	08	43	52	-0.955837728581	0.183465181797	-0.157770291066	-2.87939453125	-0.20849609375	1.27294921875	177.625	100.3125	39.5
19	01	29	08	43	52	-0.955781194049	0.156367268145	-0.172724187686	-1.1865234375	0.015625	1.169921875	146.3125	32.3125	104.1875
19	01	29	08	43	52	-0.955825382715	0.147881035842	-0.178214042368	-1.02294921875	-0.208984375	0.93310546875	49.375	-18.875	11.5625
19	01	29	08	43	52	-0.956767602504	0.148129304113	-0.169613241092	-0.4384765625	-0.4931640625	0.8876953125	5.0	-54.5	14.5
19	01	29	08	43	52	-0.958236103754	0.140378537493	-0.162106693731	0.00830078125	-0.5	0.73486328125	51.4375	-35.5625	41.0
19	01	29	08	43	52	-0.960035410544	0.118585429287	-0.16496984836	0.12548828125	-0.43115234375	0.486328125	126.75	-7.5	41.75
19	01	29	08	43	52	-0.960565999313	0.0916074442448	-0.173449937737	0.0986328125	-0.3603515625	0.28466796875	159.0	16.6875	58.375
19	01	29	08	43	52	-0.958865424341	0.0691486554502	-0.182667189552	0.15966796875	-0.25927734375	0.12890625	128.25	25.875	80.125
19	01	29	08	43	52	-0.95594308157	0.0620694703414	-0.18480467669	0.3984375	-0.25	0.02490234375	41.25	27.125	93.625
19	01	29	08	43	52	-0.951471703157	0.0714671818087	-0.184496405301	0.515625	-0.48779296875	0.005859375	-40.1875	42.5	98.3125
19	01	29	08	43	52	-0.94333479352	0.086789730615	-0.191950564546	0.53125	-0.76953125	-0.033203125	-86.75	69.9375	116.5625
19	01	29	08	43	52	-0.931515303787	0.104790131468	-0.202317580558	0.41796875	-0.8671875	-0.01416015625	-104.6875	88.9375	155.875
19	01	29	08	43	52	-0.917534971971	0.120848749052	-0.213011178885	0.42822265625	-0.64453125	0.22705078125	-102.0625	89.9375	175.375
19	01	29	08	43	52	-0.902050485026	0.139274641869	-0.220141819993	0.26220703125	0.0498046875	1.0322265625	-135.625	81.0	172.25
19	01	29	08	43	52	-0.888428990883	0.177234168409	-0.212998363549	-0.365234375	2.49462890625	2.28125	-248.875	37.6875	85.875
19	01	29	08	43	52	-0.884184808467	0.23332908972	-0.206962841548	-2.93115234375	2.1669921875	1.8740234375	-281.0625	110.5	-158.4375
19	01	29	08	43	52	-0.881458271492	0.270504297137	-0.184262742116	-2.8154296875	-0.400390625	1.7744140625	-228.75	-27.75	-106.5
19	01	29	08	43	52	-0.894618079243	0.244008942612	-0.177361177397	-1.65185546875	-0.24169921875	1.23486328125	148.625	-96.9375	-70.375
19	01	29	08	43	52	-0.914215606689	0.198846014193	-0.163446785147	-1.25927734375	0.31201171875	0.55078125	242.75	-167.875	-105.1875
19	01	29	08	43	52	-0.927586255555	0.167353698693	-0.139339348693	-0.5966796875	0.228515625	0.1708984375	141.75	-192.875	-75.125
19	01	29	08	43	52	-0.938049281818	0.150991146598	-0.108147256173	0.009765625	-0.02392578125	0.0400390625	51.8125	-191.625	-93.875
19	01	29	08	43	52	-0.946157091329	0.14275973659	-0.0762931469592	0.20556640625	-0.234375	-0.08740234375	9.375	-176.8125	-100.0
19	01	29	08	43	52	-0.950722711236	0.144161715603	-0.0458973793959	0.29541015625	-0.400390625	-0.20068359375	-41.0625	-152.375	-82.625
19	01	29	08	43	52	-0.952883633968	0.148611519164	-0.0218492500455	0.24169921875	-0.5390625	-0.017578125	-48.875	-115.1875	-60.8125
19	01	29	08	43	52	-0.953791955521	0.149220714823	-0.00225814578668	0.14404296875	-0.40283203125	0.62353515625	-28.1875	-100.5	-31.9375
19	01	29	08	43	52	-0.953353419959	0.160702916437	0.00415032218676	0.8447265625	0.27880859375	2.49609375	-72.625	-13.625	-33.75
19	01	29	08	43	52	-0.95487011612	0.164119254858	-0.0301505808478	0.083984375	0.1064453125	3.20849609375	32.6875	201.75	-24.0625
19	01	29	08	43	52	-0.957477539272	0.156304180142	-0.0729948455487	-1.466796875	-0.52001953125	1.7734375	107.875	236.9375	-41.0625
19	01	29	08	43	52	-0.954998213163	0.150692822158	-0.102109798084	-2.044921875	-0.5712890625	1.14404296875	66.0625	150.6875	47.4375
19	01	29	08	43	52	-0.950148952203	0.145744841846	-0.114252237829	-0.82958984375	-0.30908203125	1.310546875	29.625	41.0625	109.5625
19	01	29	08	43	52	-0.946570521021	0.146785872916	-0.115292521388	-0.2275390625	-0.291015625	1.17236328125	-14.375	9.0	73.9375
19	01	29	08	43	52	-0.941230504154	0.15032101749	-0.114373360445	0.162109375	-0.65869140625	0.9326171875	-29.25	-2.6875	101.1875
19	01	29	08	43	52	-0.934996998274	0.145437196272	-0.115592970935	0.623046875	-0.59912109375	0.53857421875	15.625	-3.375	138.8125
19	01	29	08	43	52	-0.928603292678	0.138359754486	-0.11980599826	0.544921875	-0.35400390625	0.287109375	30.8125	7.5625	133.8125
19	01	29	08	43	52	-0.92007513216	0.14208523434	-0.121578087115	0.35546875	-0.29638671875	0.1064453125	-33.6875	11.5	131.375
19	01	29	08	43	52	-0.908407080563	0.157646834795	-0.120233939043	0.23779296875	-0.54150390625	0.06640625	-102.625	16.875	140.625
19	01	29	08	43	52	-0.894420839635	0.175283292489	-0.117242062978	-0.16796875	-0.6005859375	0.345703125	-121.0625	7.3125	154.6875
19	01	29	08	43	52	-0.87974951743	0.190122085944	-0.113340839036	-0.4912109375	0.0888671875	1.02392578125	-122.75	-4.75	152.0
19	01	29	08	43	52	-0.869426686819	0.210749761291	-0.110043967451	-0.7490234375	1.42529296875	2.17724609375	-131.375	26.5	69.6875
19	01	29	08	43	52	-0.867055981886	0.236691756846	-0.115050015899	-2.0634765625	1.28466796875	1.96826171875	-113.375	102.875	-54.5
19	01	29	08	43	52	-0.868547171409	0.244128219074	-0.121026564606	-1.99658203125	-0.06689453125	1.49365234375	-14.5625	59.0	-45.375
19	01	29	08	43	52	-0.871559516522	0.227044916069	-0.137508654813	-1.2666015625	0.1953125	1.162109375	94.1875	0.3125	-13.25
19	01	29	08	43	52	-0.876916601651	0.210074258274	-0.142022893377	-0.86572265625	0.42626953125	1.02978515625	60.75	-39.0625	-41.4375
19	01	29	08	43	52	-0.881299053013	0.204578561337	-0.137687719086	-0.39501953125	0.02294921875	0.75439453125	12.4375	-34.3125	-44.9375
19	01	29	08	43	53	-0.887540164478	0.196770010334	-0.132746517517	-0.14208984375	-0.16650390625	0.3779296875	45.375	-36.9375	-53.5625
19	01	29	08	43	53	-0.895606995428	0.183589058351	-0.127804351126	-0.12109375	-0.13330078125	0.01318359375	81.0	-56.6875	-64.875
19	01	29	08	43	53	-0.903053094204	0.175166422031	-0.114865228663	0.095703125	-0.1416015625	-0.0732421875	39.3125	-76.25	-67.75
19	01	29	08	43	53	-0.90957765963	0.175409393664	-0.0967376092407	0.19287109375	-0.20458984375	0.013671875	-13.5625	-74.1875	-81.1875
19	01	29	08	43	53	-0.915688859945	0.178462589247	-0.077940056932	0.16943359375	-0.1962890625	0.21484375	-33.5	-67.875	-92.125
19	01	29	08	43	53	-0.92179955258	0.179196417028	-0.0592642101275	0.31396484375	-0.12890625	0.79638671875	-37.0	-52.75	-91.4375
19	01	29	08	43	53	-0.927351649236	0.174557438253	-0.0506582775349	0.337890625	0.07470703125	1.67431640625	-21.625	3.625	-73.1875
19	01	29	08	43	53	-0.931492722029	0.166377221875	-0.062559300228	-0.1953125	-0.1416015625	2.07373046875	42.0	76.4375	-46.0625
19	01	29	08	43	53	-0.933462085543	0.155699083315	-0.0812369580134	-0.80029296875	-0.1552734375	1.9736328125	70.3125	65.5625	-17.6875
19	01	29	08	43	53	-0.933067447877	0.148492484346	-0.0960654214389	-0.97900390625	-0.1884765625	1.48095703125	54.1875	29.5	7.9375
19	01	29	08	43	53	-0.930432399539	0.148856977532	-0.0992990169925	-0.8056640625	-0.39892578125	1.072265625	8.5	-18.625	38.3125
19	01	29	08	43	53	-0.926463896161	0.147208887848	-0.0958810791086	-0.3984375	-0.58935546875	0.63623046875	21.0625	-43.4375	80.4375
19	01	29	08	43	53	-0.921683696993	0.138609607037	-0.0881950163667	-0.03125	-0.54931640625	0.35693359375	24.5	-69.0625	108.375
19	01	29	08	43	53	-0.914611099998	0.135366837034	-0.0775704462897	0.158203125	-0.353515625	0.22265625	-15.9375	-72.6875	123.5625
19	01	29	08	43	53	-0.906458002626	0.140497328444	-0.0662815372241	0.2197265625	-0.22998046875	0.130859375	-62.8125	-55.6875	111.1875
19	01	29	08	43	53	-0.897437575414	0.14977637446	-0.0543198750081	0.11962890625	-0.3564453125	0.0361328125	-83.9375	-50.4375	105.875
19	01	29	08	43	53	-0.888219738232	0.160273828942	-0.0424792783488	-0.1044921875	-0.19091796875	0.1162109375	-84.8125	-53.125	97.3125
19	01	29	08	43	53	-0.879929880234	0.16790504963	-0.0328363928394	-0.21337890625	0.25	0.4609375	-98.375	-49.8125	77.3125
19	01	29	08	43	53	-0.873034852925	0.182858810079	-0.018066157471	-0.13623046875	0.734375	1.5078125	-141.125	-40.5	39.875
19	01	29	08	43	53	-0.8671584122	0.211662821897	-0.0115352575947	-0.16748046875	0.90771484375	2.390625	-167.125	43.625	-0.0625
19	01	29	08	43	53	-0.868757936213	0.230037140761	-0.0188595055704	-1.0654296875	0.1181640625	2.10400390625	-69.5	98.6875	-58.5
19	01	29	08	43	53	-0.872709065341	0.228934310378	-0.0414413214467	-1.1396484375	-0.03564453125	1.86181640625	20.8125	84.375	-53.1875
19	01	29	08	43	53	-0.879950711065	0.213487833771	-0.0599328338372	-0.94091796875	0.08154296875	1.556640625	92.3125	36.8125	-59.25
19	01	29	08	43	53	-0.889423644297	0.195852636694	-0.0663421053558	-0.80517578125	-0.01806640625	0.96826171875	115.375	-6.375	-76.125
19	01	29	08	43	53	-0.899041851505	0.172301096185	-0.0670771890566	-0.4423828125	-0.267578125	0.4580078125	139.0625	-47.875	-68.25
19	01	29	08	43	53	-0.907122357889	0.148064242766	-0.0598726389752	-0.14453125	-0.22314453125	0.19873046875	122.0	-89.5625	-54.6875
19	01	29	08	43	53	-0.913568370185	0.131041641554	-0.04528779601	0.02783203125	-0.1630859375	0.12841796875	66.0625	-109.1875	-57.0625
19	01	29	08	43	53	-0.918595593166	0.125604260895	-0.024840104074	0.0283203125	-0.26611328125	0.14013671875	-6.375	-113.0625	-68.25
19	01	29	08	43	53	-0.921547774112	0.127438357	-0.00158687609291	0.17919921875	-0.40576171875	0.31787109375	-50.875	-110.5625	-59.5625
19	01	29	08	43	53	-0.923383628109	0.12627937911	0.0225825859211	0.580078125	-0.19775390625	1.02734375	-47.75	-83.0	-37.3125
19	01	29	08	43	53	-0.925498783237	0.121882159729	0.0261219651296	0.9619140625	-0.19970703125	1.50439453125	4.5625	45.9375	-11.75
19	01	29	08	43	53	-0.926167323544	0.112604857459	0.000488259544537	0.67138671875	-0.47705078125	1.92919921875	103.75	129.4375	30.4375
19	01	29	08	43	53	-0.926121480539	0.100827249628	-0.0344228624637	0.5283203125	0.3076171875	1.83935546875	124.0	173.0625	34.25
19	01	29	08	43	53	-0.925683175906	0.104854202954	-0.0709200138724	-0.234375	0.27880859375	0.96826171875	47.875	204.8125	-8.75
19	01	29	08	43	53	-0.924232144685	0.127621304533	-0.0950293501469	-0.94482421875	-0.30908203125	0.3349609375	-64.4375	166.75	-42.875
19	01	29	08	43	53	-0.918067165726	0.158443183235	-0.104367428094	-0.716796875	-0.85986328125	0.3095703125	-98.5	73.8125	14.375
19	01	29	08	43	53	-0.91011584865	0.176627901421	-0.105097873617	-0.396484375	-0.8125	0.38037109375	-62.875	17.8125	78.75
19	01	29	08	43	53	-0.902255536883	0.178400387899	-0.10381767356	-0.38037109375	-0.52587890625	0.37353515625	-24.3125	-20.9375	113.0625
19	01	29	08	43	53	-0.892390371687	0.179430152699	-0.0971608173796	-0.25	-0.24951171875	0.51806640625	-42.375	-51.9375	138.0625
19	01	29	08	43	53	-0.879712462395	0.188588282836	-0.085993815701	-0.16455078125	0.05712890625	0.98583984375	-105.25	-52.75	141.875
19	01	29	08	43	53	-0.865934084089	0.214408404102	-0.0753755704715	-0.43994140625	1.00244140625	1.95849609375	-180.0	-2.125	98.0
19	01	29	08	43	53	-0.860073237236	0.244191954455	-0.079403582291	-1.29833984375	1.2734375	2.25390625	-142.75	104.3125	-16.25
19	01	29	08	43	53	-0.860217728325	0.259701038316	-0.104307655577	-1.63916015625	-0.12451171875	1.421875	-14.0	168.125	-53.375
19	01	29	08	43	53	-0.862031637469	0.257193523102	-0.132258748116	-1.3271484375	-0.181640625	0.69287109375	87.625	131.6875	-17.125
19	01	29	08	43	53	-0.865876300832	0.250052527279	-0.158197742423	-0.96044921875	0.185546875	0.33740234375	94.0	83.625	-56.6875
19	01	29	08	43	53	-0.869243593471	0.253473433765	-0.164791300546	-0.60107421875	-0.21923828125	0.03271484375	25.25	21.9375	-67.75
19	01	29	08	43	53	-0.871319807797	0.263788470811	-0.154842977892	-0.23583984375	-0.6337890625	0.00244140625	-28.375	-30.9375	-50.4375
19	01	29	08	43	53	-0.873137866393	0.267019304171	-0.140864126635	0.0244140625	-0.58837890625	0.265625	-16.5	-53.0625	-13.5
19	01	29	08	43	53	-0.876961506893	0.259322809019	-0.129569857271	0.0078125	-0.1474609375	0.486328125	15.4375	-62.5625	-12.5
19	01	29	08	43	53	-0.882475222596	0.247122358136	-0.119136291203	-0.03515625	0.3642578125	1.10546875	-0.6875	-52.3125	-36.1875
19	01	29	08	43	54	-0.880172715303	0.261164901795	-0.115293409556	0.31982421875	0.2939453125	2.23828125	-80.875	16.9375	-24.5625
19	01	29	08	43	54	-0.880722724276	0.266108875803	-0.133054437902	-0.099609375	-0.76123046875	2.5283203125	21.625	115.75	-31.625
19	01	29	08	43	54	-0.889051550812	0.245470264115	-0.16557951928	-1.29443359375	-0.91455078125	1.78173828125	203.6875	139.875	-50.1875
19	01	29	08	43	54	-0.893554119631	0.212265639511	-0.195848314316	-1.326171875	-0.013671875	0.9296875	237.5625	80.0625	31.625
19	01	29	08	43	54	-0.890280076234	0.195486877643	-0.214345898933	-0.84423828125	0.2080078125	0.66259765625	88.6875	31.5625	65.75
19	01	29	08	43	54	-0.885116704681	0.195614331713	-0.217098339439	-0.5185546875	-0.2578125	0.41845703125	-4.875	-6.625	72.5625
19	01	29	08	43	54	-0.879002572983	0.201654249489	-0.208673086865	-0.203125	-0.5703125	0.2509765625	-45.6875	-42.8125	95.625
19	01	29	08	43	54	-0.871123714651	0.202019161739	-0.198357182976	0.0546875	-0.64013671875	0.19140625	-52.4375	-65.25	125.9375
19	01	29	08	43	54	-0.860852131833	0.203540720288	-0.188710017131	0.13427734375	-0.53515625	0.21240234375	-63.5	-58.4375	141.875
19	01	29	08	43	54	-0.848110569335	0.204398553303	-0.182915038594	0.01318359375	-0.4619140625	0.2119140625	-56.25	-41.875	159.6875
19	01	29	08	43	54	-0.833594336815	0.205926731031	-0.177057927303	-0.0869140625	-0.427734375	0.40087890625	-63.625	-39.3125	167.1875
19	01	29	08	43	54	-0.818154882946	0.210870952673	-0.170771903206	-0.18115234375	-0.0068359375	1.01318359375	-88.625	-25.75	153.5625
19	01	29	08	43	54	-0.807706609952	0.226553342613	-0.161675593907	-0.40234375	1.29541015625	2.0703125	-125.1875	-2.3125	64.125
19	01	29	08	43	54	-0.807958830656	0.254508862656	-0.161799279353	-1.30029296875	1.42041015625	2.33251953125	-116.25	101.125	-89.3125
19	01	29	08	43	54	-0.812302498166	0.273676790275	-0.180233622142	-1.84814453125	-0.2666015625	1.3876953125	-10.1875	160.0625	-119.375
19	01	29	08	43	54	-0.816134143318	0.272451601538	-0.205864527775	-1.62060546875	-0.1962890625	0.99072265625	91.375	90.75	-67.125
19	01	29	08	43	54	-0.82857982981	0.259327909315	-0.21526230552	-1.1923828125	0.14697265625	0.47900390625	124.3125	13.0	-98.8125
19	01	29	08	43	54	-0.842148267283	0.249812498767	-0.205501755033	-0.85791015625	-0.05712890625	0.1142578125	59.625	-74.625	-115.125
19	01	29	08	43	54	-0.851545176503	0.24810286285	-0.185237930812	-0.39990234375	-0.35888671875	0.06640625	-13.9375	-106.25	-88.875
19	01	29	08	43	54	-0.862052296841	0.238278969617	-0.165464725059	-0.18798828125	-0.22607421875	0.08642578125	25.625	-123.0	-78.875
19	01	29	08	43	54	-0.873748730008	0.226371475245	-0.143488632596	-0.10693359375	0.0048828125	0.10888671875	30.8125	-135.6875	-95.125
19	01	29	08	43	54	-0.883334652277	0.220879438029	-0.12047969347	0.052734375	-0.021484375	0.12744140625	-5.1875	-120.625	-99.1875
19	01	29	08	43	54	-0.89229126977	0.219960173478	-0.0945999636213	0.23681640625	-0.013671875	0.51904296875	-36.5	-116.625	-115.875
19	01	29	08	43	54	-0.89830063022	0.226619801604	-0.0755602785849	0.775390625	0.13037109375	1.69580078125	-72.6875	-47.5	-108.625
19	01	29	08	43	54	-0.903903333766	0.227471149558	-0.0961884979079	0.87060546875	-0.2685546875	2.0400390625	54.9375	131.0	-85.875
19	01	29	08	43	54	-0.911711024607	0.209648371236	-0.132258521243	0.234375	-0.6806640625	1.7890625	188.125	190.375	-65.0
19	01	29	08	43	54	-0.91728499498	0.188168849526	-0.173459575203	-0.529296875	-0.00048828125	0.61669921875	210.875	195.0	-64.5625
19	01	29	08	43	54	-0.917401698194	0.181331943672	-0.200679714168	-0.88330078125	0.2333984375	0.205078125	78.75	99.6875	-54.5
19	01	29	08	43	54	-0.910728537644	0.201346565185	-0.203909934611	-0.5859375	-0.4736328125	0.416015625	-107.75	47.75	21.9375
19	01	29	08	43	54	-0.903210900655	0.216724231923	-0.197926410624	-0.498046875	-0.78076171875	0.3427734375	-107.875	-18.4375	74.3125
19	01	29	08	43	54	-0.895649227036	0.21831259183	-0.187857466495	-0.1923828125	-0.73291015625	0.45751953125	-56.6875	-71.5625	138.0
19	01	29	08	43	54	-0.887620287046	0.211666585675	-0.178036744641	0.10546875	-0.42724609375	0.58056640625	-22.9375	-84.9375	165.375
19	01	29	08	43	54	-0.875579179223	0.215263332296	-0.166864176495	0.07421875	0.0224609375	1.3681640625	-94.5	-62.3125	164.125
19	01	29	08	43	54	-0.85811638766	0.241810606537	-0.159355753071	-0.2138671875	0.5576171875	2.521484375	-195.875	8.75	131.0625
19	01	29	08	43	54	-0.845715405451	0.277022604124	-0.161489713706	-1.462890625	0.287109375	2.3935546875	-187.75	103.6875	13.25
19	01	29	08	43	54	-0.84393376726	0.287109600144	-0.170471325085	-2.0693359375	-0.4658203125	1.708984375	-23.6875	80.625	-23.125
19	01	29	08	43	54	-0.847477188082	0.266522604087	-0.192858124322	-1.7216796875	-0.1513671875	1.11767578125	158.9375	47.8125	25.0
19	01	29	08	43	54	-0.855183459301	0.236133657153	-0.205617547415	-1.5361328125	0.40576171875	0.9755859375	184.3125	-25.5	6.9375
19	01	29	08	43	54	-0.856376777094	0.22241016148	-0.203306324888	-0.8974609375	0.35546875	0.79931640625	23.75	-75.25	13.5
19	01	29	08	43	54	-0.859832142641	0.22295335158	-0.185479122763	-0.3203125	-0.30517578125	0.6728515625	-35.1875	-86.0625	-21.3125
19	01	29	08	43	54	-0.866735879715	0.216973878768	-0.170405364141	-0.130859375	-0.54443359375	0.359375	32.9375	-86.25	-36.4375
19	01	29	08	43	54	-0.87630864208	0.195487991404	-0.160943438443	-0.0029296875	-0.3388671875	0.064453125	106.5625	-99.9375	-39.375
19	01	29	08	43	54	-0.884997275514	0.172360848693	-0.147947130748	0.10791015625	-0.1044921875	-0.10205078125	100.4375	-122.9375	-29.5625
