18	11	28	11	40	40	-0.933956051054	-0.109123271207	-0.332862595729	-1.1689453125	0.43896484375	0.451171875	-107.5	-62.8125	144.4375
18	11	28	11	40	40	-0.9416731928	-0.076046717106	-0.31273144338	-0.8603515625	0.05029296875	0.42626953125	-241.75	-99.4375	96.125
18	11	28	11	40	40	-0.947652803242	-0.0416852492184	-0.292773265741	-0.48876953125	-0.23876953125	0.40576171875	-234.5625	-92.3125	66.625
18	11	28	11	40	40	-0.949732649619	-0.0206291135256	-0.280995380685	-0.16259765625	-0.42041015625	0.39501953125	-143.4375	-47.875	57.4375
18	11	28	11	40	40	-0.949072705281	-0.0153194372364	-0.279594987967	-0.04931640625	-0.43994140625	0.35693359375	-14.375	8.9375	51.75
18	11	28	11	40	40	-0.945346828787	-0.033385287323	-0.289176400981	-0.0517578125	-0.3564453125	0.23779296875	108.5	44.875	47.9375
18	11	28	11	40	40	-0.940007031007	-0.0653647273217	-0.302533103019	-0.01171875	-0.14892578125	0.1572265625	193.6875	54.875	38.0625
18	11	28	11	40	40	-0.933437183527	-0.101741845491	-0.315784228297	0.06591796875	0.06591796875	0.03271484375	220.8125	51.3125	24.6875
18	11	28	11	40	40	-0.928289377105	-0.129508879567	-0.324687671676	0.0615234375	0.3056640625	0.02392578125	172.25	30.8125	-6.0
18	11	28	11	40	40	-0.928081198927	-0.139462418752	-0.325371621168	-0.09912109375	0.57568359375	0.14697265625	47.8125	-10.3125	-62.5
18	11	28	11	40	40	-0.935668873998	-0.120048312253	-0.316568681066	-0.228515625	0.66845703125	0.314453125	-92.4375	-60.75	-125.0
18	11	28	11	40	40	-0.945770104651	-0.0838595846535	-0.30351798725	-0.4248046875	0.73828125	0.61474609375	-180.75	-81.375	-173.9375
18	11	28	11	40	40	-0.952093539555	-0.04284420928	-0.296613756554	-1.26513671875	0.84912109375	1.2880859375	-205.5	-44.125	-179.25
18	11	28	11	40	40	-0.954631212889	0.00604235599233	-0.295098901242	-3.00244140625	-0.63330078125	1.5146484375	-231.9375	-0.8125	-200.5
18	11	28	11	40	40	-0.953118720875	0.00274638806681	-0.301004132122	-1.80615234375	-1.9912109375	2.1337890625	33.8125	34.3125	-41.125
18	11	28	11	40	40	-0.94760285253	-0.0524275956668	-0.313833174527	-1.07958984375	-1.13720703125	1.95068359375	308.0625	69.8125	83.25
18	11	28	11	40	40	-0.936605603508	-0.113215391275	-0.330491290434	-1.10205078125	0.240234375	1.31396484375	341.8125	99.75	99.9375
18	11	28	11	40	40	-0.930708852417	-0.140317375022	-0.336480943234	-0.83056640625	0.79052734375	0.931640625	139.625	40.125	57.75
18	11	28	11	40	40	-0.935725328859	-0.125906688849	-0.326759288463	-0.19140625	0.47119140625	0.65869140625	-110.5	-44.625	43.5
18	11	28	11	40	40	-0.944459628089	-0.0884343781002	-0.311137653247	0.21337890625	0.15087890625	0.52001953125	-240.625	-71.75	20.4375
18	11	28	11	40	40	-0.951878592093	-0.0498643761054	-0.294913911067	0.41259765625	-0.232421875	0.2861328125	-229.875	-75.4375	-14.4375
18	11	28	11	40	40	-0.95790602976	-0.0251454147347	-0.277942278402	0.486328125	-0.5478515625	0.171875	-135.8125	-84.25	-32.625
18	11	28	11	40	40	-0.964515251693	-0.0230707311991	-0.255059750479	0.57421875	-0.4111328125	0.10205078125	8.4375	-98.5625	-8.4375
18	11	28	11	40	40	-0.96799644139	-0.0442495220686	-0.23894741917	0.59521484375	0.01904296875	0.00048828125	112.75	-93.1875	22.3125
18	11	28	11	40	40	-0.970370942576	-0.0703105431692	-0.222589019912	0.34814453125	0.359375	-0.10400390625	132.5625	-98.6875	33.4375
18	11	28	11	40	40	-0.973728471917	-0.086240336644	-0.20128848567	-0.02490234375	0.4814453125	0.03564453125	72.375	-128.5625	24.875
18	11	28	11	40	40	-0.978852684344	-0.0892917743606	-0.174799481728	-0.42578125	0.79638671875	0.4873046875	-0.25	-161.125	-15.6875
18	11	28	11	40	40	-0.985215734484	-0.0786121834974	-0.146604398106	-1.12890625	0.9326171875	0.67919921875	-69.4375	-184.625	-93.5625
18	11	28	11	40	40	-0.991475832404	-0.0524270692542	-0.117854098638	-1.8486328125	0.0869140625	1.30859375	-138.5625	-171.9375	-137.875
18	11	28	11	40	40	-0.993843717942	-0.0362529580237	-0.104547671876	-2.181640625	-0.49365234375	1.79345703125	-85.375	-79.5	-80.375
18	11	28	11	40	40	-0.99375138411	-0.0399160671421	-0.104184597265	-1.73291015625	-1.13232421875	1.63671875	22.125	-2.5625	-10.6875
18	11	28	11	40	40	-0.991672496623	-0.0606062770277	-0.113095097011	-0.94921875	-0.82568359375	1.64111328125	131.3125	44.0625	59.6875
18	11	28	11	40	40	-0.987685653147	-0.0844686982608	-0.129266403841	-0.62353515625	-0.21337890625	1.31689453125	136.3125	93.125	92.875
18	11	28	11	40	40	-0.983828396763	-0.095026105072	-0.1473911649	-0.564453125	0.29638671875	0.9375	54.4375	104.9375	63.875
18	11	28	11	40	40	-0.981729075458	-0.0863628624043	-0.164791327556	-0.74755859375	0.42626953125	0.58740234375	-67.3125	67.625	3.75
18	11	28	11	40	40	-0.983274994389	-0.0609702513435	-0.167408808243	-0.67578125	0.126953125	0.416015625	-142.25	9.4375	-36.4375
18	11	28	11	40	40	-0.984891479344	-0.0405870257027	-0.164728394544	-0.26220703125	-0.12890625	0.466796875	-110.3125	-14.875	-35.25
18	11	28	11	40	40	-0.985676446722	-0.0353378738484	-0.161675350301	0.0830078125	-0.228515625	0.466796875	-10.625	-1.625	-12.375
18	11	28	11	40	40	-0.985549197878	-0.0469338204835	-0.160209725318	0.080078125	-0.123046875	0.43115234375	79.875	3.375	-8.0
18	11	28	11	40	40	-0.984806497068	-0.0709797940065	-0.156973370752	-0.1279296875	0.14990234375	0.36669921875	140.125	-23.5625	-16.3125
18	11	28	11	40	40	-0.984318302634	-0.0953924545521	-0.147818633989	-0.1875	0.412109375	0.30419921875	139.25	-59.4375	-25.9375
18	11	28	11	40	40	-0.984363533233	-0.111937172616	-0.135923709605	-0.15478515625	0.66259765625	0.43798828125	62.8125	-74.3125	-35.75
18	11	28	11	40	40	-0.985706408531	-0.114012357346	-0.12396097311	-0.1875	0.8173828125	0.9423828125	-22.0	-70.4375	-53.625
18	11	28	11	40	41	-0.987209178741	-0.104549571758	-0.119563695898	-0.55517578125	1.03515625	1.72021484375	-93.375	-40.5	-68.1875
18	11	28	11	40	41	-0.987835468052	-0.0725694390802	-0.132565871894	-1.5693359375	-0.1513671875	2.07373046875	-166.875	57.25	-158.4375
18	11	28	11	40	41	-0.985950900773	-0.0550530959823	-0.155149634132	-1.07861328125	-2.09228515625	2.1611328125	-109.375	128.8125	24.125
18	11	28	11	40	41	-0.980798977533	-0.0705540521486	-0.181511895407	-0.2470703125	-1.267578125	2.27978515625	50.375	168.6875	223.6875
18	11	28	11	40	41	-0.971028755387	-0.0993610819466	-0.213919282692	-0.41455078125	-0.0068359375	1.4365234375	144.5	206.0	175.625
18	11	28	11	40	41	-0.96255260934	-0.114253914443	-0.24059237753	-0.69482421875	0.681640625	0.6552734375	71.0	157.1875	70.875
18	11	28	11	40	41	-0.960310146833	-0.0963117714314	-0.253596584472	-0.45751953125	0.49072265625	0.3818359375	-119.375	85.6875	44.625
18	11	28	11	40	41	-0.960388538854	-0.0628012078343	-0.258101368252	-0.341796875	-0.111328125	0.4970703125	-208.0	47.0	56.875
18	11	28	11	40	41	-0.959362320367	-0.0430886060296	-0.259813308595	0.01806640625	-0.3681640625	0.52978515625	-125.875	31.4375	67.5625
18	11	28	11	40	41	-0.959791046063	-0.03875539325	-0.255297338527	0.30712890625	-0.353515625	0.39794921875	-15.3125	11.0625	51.5625
18	11	28	11	40	41	-0.960614826965	-0.0492544739412	-0.2496902762	0.35986328125	-0.19873046875	0.17431640625	65.3125	-11.125	27.0625
18	11	28	11	40	41	-0.960545504101	-0.0659161992902	-0.243523736266	0.33984375	0.12255859375	0.0400390625	73.0	-21.1875	47.875
18	11	28	11	40	41	-0.960264321228	-0.0773264837292	-0.234786884693	0.43408203125	0.30126953125	-0.03564453125	20.5625	-25.8125	73.375
18	11	28	11	40	41	-0.960999440692	-0.0793407387844	-0.223252632672	0.5380859375	0.2880859375	-0.08251953125	-34.4375	-30.0625	62.625
18	11	28	11	40	41	-0.962339828841	-0.0763500206672	-0.211289985252	0.56103515625	0.29150390625	0.00244140625	-58.1875	-26.25	41.75
18	11	28	11	40	41	-0.962778521181	-0.0748251326129	-0.20433486459	0.421875	0.4755859375	0.31005859375	-48.9375	-0.1875	22.375
18	11	28	11	40	41	-0.961464140722	-0.0742780333434	-0.208979446317	0.02978515625	0.8037109375	0.5703125	-43.25	45.1875	-11.3125
18	11	28	11	40	41	-0.95808617244	-0.0707365189106	-0.235096696155	-1.05859375	1.0869140625	1.193359375	11.25	137.9375	-98.0625
18	11	28	11	40	41	-0.956327011369	-0.0502912411365	-0.272146412898	-4.53564453125	1.00390625	0.69873046875	-8.0	202.0625	-335.8125
18	11	28	11	40	41	-0.950681920463	-0.00775095357892	-0.294414173738	-3.125	-1.5771484375	0.54150390625	-224.6875	154.5	-52.3125
18	11	28	11	40	41	-0.94427096988	0.00213608350218	-0.310952726961	-2.23828125	-1.94970703125	0.837890625	-62.5625	107.0	44.5625
18	11	28	11	40	41	-0.937390667512	-0.017394123331	-0.331159695418	-2.32958984375	-0.83154296875	0.69384765625	120.875	109.75	30.875
18	11	28	11	40	41	-0.928422904251	-0.032896393991	-0.354170267773	-1.7216796875	0.25048828125	0.31005859375	86.9375	53.8125	41.25
18	11	28	11	40	41	-0.927207177043	-0.0158074419993	-0.353195624904	-1.5283203125	0.38525390625	0.224609375	-129.0625	-6.5625	52.625
18	11	28	11	40	41	-0.931375215706	0.0176997911242	-0.335441558684	-1.13134765625	-0.27197265625	0.38916015625	-220.875	-88.4375	24.375
18	11	28	11	40	41	-0.937941866698	0.0408915311483	-0.312972793625	-0.46875	-0.69873046875	0.7177734375	-137.875	-112.9375	-27.1875
18	11	28	11	40	41	-0.945299255678	0.0419305648664	-0.294978777292	0.0	-0.693359375	0.830078125	40.25	-74.125	-42.375
18	11	28	11	40	41	-0.949271472235	0.0120230474495	-0.292459103443	0.1513671875	-0.41796875	0.77197265625	198.125	-29.5625	-45.6875
18	11	28	11	40	41	-0.951385020457	-0.0266714943508	-0.29277610618	0.19873046875	-0.02587890625	0.53271484375	250.9375	-17.875	-61.8125
18	11	28	11	40	41	-0.95285640426	-0.0587753469961	-0.289848518052	0.2041015625	0.3212890625	0.36572265625	210.125	-32.5625	-81.25
18	11	28	11	40	41	-0.955073553076	-0.0766597892806	-0.282286246356	0.18798828125	0.517578125	0.392578125	121.5625	-52.0	-83.5625
18	11	28	11	40	41	-0.958479652994	-0.0824570817114	-0.271113513665	0.13916015625	0.62451171875	0.5107421875	23.25	-48.375	-97.5625
18	11	28	11	40	41	-0.960569443053	-0.0662798408511	-0.26969670048	-0.060546875	0.755859375	0.72607421875	-70.75	-11.25	-133.5
18	11	28	11	40	41	-0.960332325873	-0.0372903114781	-0.276290081934	-0.7587890625	0.58251953125	0.849609375	-137.0	28.5	-157.5625
18	11	28	11	40	41	-0.958933069155	0.00366191345146	-0.28324900547	-2.4814453125	0.03759765625	1.0	-212.25	37.4375	-112.6875
18	11	28	11	40	41	-0.956032303748	0.0418081031708	-0.290093305651	-2.228515625	-0.98876953125	1.05419921875	-217.3125	38.875	-38.3125
18	11	28	11	40	41	-0.951871429593	0.049558835652	-0.302296690868	-1.43994140625	-1.22119140625	1.169921875	-61.8125	60.5625	109.8125
18	11	28	11	40	41	-0.947918935304	0.0332635258348	-0.315423672503	-1.4384765625	-0.333984375	1.154296875	59.5625	64.0	138.4375
18	11	28	11	40	41	-0.945263242459	0.0233752467628	-0.321150257091	-1.23291015625	0.41650390625	0.85400390625	5.375	21.875	143.3125
18	11	28	11	40	41	-0.944283394632	0.0336284998993	-0.316327613391	-0.8828125	0.3603515625	0.47216796875	-120.0625	-33.125	148.4375
18	11	28	11	40	41	-0.944822122498	0.0572471514052	-0.299662594242	-0.6884765625	-0.07373046875	0.4443359375	-198.25	-91.8125	142.8125
18	11	28	11	40	41	-0.946427699133	0.0731166817284	-0.276049041283	-0.373046875	-0.34326171875	0.4326171875	-151.125	-131.3125	137.1875
18	11	28	11	40	41	-0.94848387944	0.0708570738067	-0.254316474205	-0.06103515625	-0.37841796875	0.26953125	-39.25	-131.875	128.625
18	11	28	11	40	41	-0.949947643258	0.0488858376004	-0.239485676334	0.14501953125	-0.2119140625	0.1416015625	80.125	-109.0625	131.6875
18	11	28	11	40	41	-0.949393003193	0.0144032366131	-0.229536325856	0.322265625	-0.017578125	-0.0830078125	150.125	-93.0625	150.375
18	11	28	11	40	41	-0.946537011	-0.02166617054	-0.219774310182	0.62060546875	0.111328125	-0.2119140625	153.4375	-87.25	163.8125
18	11	28	11	40	41	-0.941347811094	-0.0507780976939	-0.20939862162	0.93701171875	0.533203125	-0.15625	104.5625	-72.8125	171.4375
18	11	28	11	40	41	-0.936679238795	-0.0645733130023	-0.197626075143	0.826171875	0.8125	0.076171875	19.1875	-58.75	138.125
18	11	28	11	40	41	-0.932331261687	-0.0687835383557	-0.188101921218	0.54345703125	0.7783203125	0.375	-24.1875	-35.625	112.5
18	11	28	11	40	41	-0.925204576169	-0.073484155268	-0.189020289755	0.048828125	1.1572265625	0.6025390625	-7.5625	15.8125	115.5
18	11	28	11	40	42	-0.916093169022	-0.0809897158755	-0.200856936659	-1.24267578125	1.80517578125	0.79248046875	47.25	66.0	108.6875
18	11	28	11	40	42	-0.910018134572	-0.0801377471961	-0.219844756588	-3.79443359375	2.1083984375	0.80419921875	29.625	110.4375	26.875
18	11	28	11	40	42	-0.899191749059	-0.0579808702644	-0.21977801455	-2.18798828125	0.81494140625	0.9296875	-150.875	71.125	158.375
18	11	28	11	40	42	-0.883477306564	-0.0503501504501	-0.21995386936	-2.0322265625	0.5009765625	1.09326171875	-79.875	49.5625	213.1875
18	11	28	11	40	42	-0.86180061897	-0.0421745203759	-0.22320147759	-1.71875	1.0146484375	1.0693359375	-81.8125	75.125	257.875
18	11	28	11	40	42	-0.839621398958	-0.0203847893619	-0.223439263036	-1.642578125	0.64306640625	1.072265625	-158.75	77.25	237.125
18	11	28	11	40	42	-0.81813666285	0.00347883549291	-0.215016446342	-1.4482421875	0.08447265625	1.09033203125	-182.5625	43.1875	222.875
18	11	28	11	40	42	-0.795591327325	0.0208723714287	-0.198775771179	-0.9248046875	-0.39990234375	1.080078125	-169.125	-3.75	234.0625
18	11	28	11	40	42	-0.773154902108	0.0325301202102	-0.178335856012	-0.466796875	-0.615234375	1.1103515625	-150.5	-34.625	226.4375
18	11	28	11	40	42	-0.756377367403	0.0340562068112	-0.161980596554	-0.28076171875	-0.72265625	0.8974609375	-78.5	-54.125	169.5
18	11	28	11	40	42	-0.749156260975	0.0383885367131	-0.144033301499	-0.30908203125	-0.72900390625	0.67578125	-42.5625	-65.0625	89.75
18	11	28	11	40	42	-0.748697379905	0.0414417152487	-0.127193718083	-0.4775390625	-0.556640625	0.50244140625	-37.75	-84.875	25.625
18	11	28	11	40	42	-0.752698491814	0.0389379419263	-0.107659137238	-0.67578125	-0.52490234375	0.4111328125	-50.8125	-105.75	-18.4375
18	11	28	11	40	42	-0.758580086074	0.0387560024666	-0.0838594447072	-0.697265625	-0.42626953125	0.4580078125	-76.875	-116.5	-39.25
18	11	28	11	40	42	-0.767527417656	0.0445527206495	-0.0576744123477	-0.71826171875	-0.095703125	0.5	-114.5625	-106.0625	-76.8125
18	11	28	11	40	42	-0.784203664286	0.0607881430173	-0.033506717386	-1.0185546875	0.4326171875	0.556640625	-157.4375	-63.5	-163.0
18	11	28	11	40	42	-0.806656761741	0.0883129556056	-0.0170888925844	-1.19384765625	0.39697265625	0.63232421875	-176.6875	11.6875	-239.5
18	11	28	11	40	42	-0.830522366773	0.117547477837	-0.0102533625527	-1.62646484375	-0.24267578125	1.08642578125	-142.4375	84.3125	-270.375
18	11	28	11	40	42	-0.850767438116	0.133107875361	-0.0144032363985	-1.9990234375	-0.7763671875	1.26513671875	-45.375	91.5625	-233.6875
18	11	28	11	40	42	-0.868965614344	0.130180057269	-0.0313701591356	-1.38671875	-0.2392578125	1.318359375	79.0625	77.9375	-199.1875
18	11	28	11	40	42	-0.887012795047	0.121336368028	-0.0557854327856	-1.1865234375	0.55224609375	1.1904296875	117.125	105.0	-206.5
18	11	28	11	40	42	-0.902193292023	0.126338798166	-0.0796483727567	-1.15625	0.9033203125	0.9765625	39.0625	141.125	-220.1875
18	11	28	11	40	42	-0.910605246231	0.149590714378	-0.101558118615	-0.904296875	0.90185546875	1.01025390625	-66.8125	178.4375	-192.1875
18	11	28	11	40	42	-0.914387949632	0.175346187378	-0.128778439042	-0.498046875	0.73193359375	1.08056640625	-71.9375	220.125	-163.5
18	11	28	11	40	42	-0.914783515925	0.196347649502	-0.16351114486	-0.212890625	0.587890625	1.099609375	-34.625	256.6875	-136.0625
18	11	28	11	40	42	-0.912748340887	0.207878358346	-0.2054980718	-0.1865234375	0.78466796875	1.08349609375	22.0625	280.8125	-110.6875
18	11	28	11	40	42	-0.909671062719	0.214417233181	-0.244934915103	-0.3408203125	0.876953125	1.0654296875	41.625	259.625	-108.5625
18	11	28	11	40	42	-0.906052267753	0.222164382258	-0.275691350181	-0.29638671875	1.08740234375	1.09326171875	18.0	217.0	-116.25
18	11	28	11	40	42	-0.901190634889	0.238938191493	-0.294293731643	-0.087890625	1.1611328125	1.06689453125	-34.375	154.3125	-108.625
18	11	28	11	40	42	-0.895753002593	0.261902162314	-0.297058453504	-0.0703125	1.02294921875	0.943359375	-126.8125	71.75	-82.3125
18	11	28	11	40	42	-0.888325428615	0.28947629735	-0.288011521651	-0.451171875	1.03466796875	0.82275390625	-194.6875	-10.5	-25.125
18	11	28	11	40	42	-0.876423135254	0.319259708949	-0.269335327011	-0.96826171875	0.916015625	0.53857421875	-256.6875	-95.0625	67.8125
18	11	28	11	40	42	-0.860560335454	0.350266366324	-0.23766113094	-1.10595703125	0.509765625	0.55419921875	-306.0	-179.625	121.25
18	11	28	11	40	42	-0.846001981841	0.37029752715	-0.199339331411	-1.11962890625	0.3212890625	0.63671875	-259.5625	-233.25	125.8125
18	11	28	11	40	42	-0.831517020205	0.378406160105	-0.171076204319	-2.494140625	0.65185546875	0.26171875	-170.5625	-192.9375	157.875
18	11	28	11	40	42	-0.817981366843	0.396173485463	-0.140684006161	-2.92529296875	-0.1142578125	-0.6748046875	-201.5625	-145.5625	58.0625
18	11	28	11	40	42	-0.799176089114	0.404165576761	-0.110165941718	-2.56787109375	-0.55078125	-0.16455078125	-179.9375	-197.5625	147.25
18	11	28	11	40	42	-0.778719672195	0.404282397415	-0.0688451908642	-2.7587890625	-0.2802734375	-0.2734375	-177.875	-277.8125	154.9375
18	11	28	11	40	42	-0.746073323522	0.410572255181	-0.00140377016042	-2.93798828125	-0.57861328125	0.0908203125	-308.0625	-387.0625	151.0625
18	11	28	11	40	42	-0.700540492046	0.416430369161	0.0671366563209	-1.8740234375	-0.701171875	0.25439453125	-340.25	-397.75	196.3125
18	11	28	11	40	42	-0.661714795301	0.410626927023	0.100703690486	-1.072265625	-0.73291015625	-0.0556640625	-154.0	-285.625	214.1875
18	11	28	11	40	42	-0.625608541875	0.403502250764	0.105468444913	-0.96533203125	-0.5615234375	-0.24365234375	-41.8125	-171.25	258.625
18	11	28	11	40	42	-0.588970361554	0.400743978649	0.0971038181587	-1.0947265625	0.0234375	-0.25146484375	-18.4375	-99.25	273.0625
18	11	28	11	40	42	-0.552421540683	0.402399206466	0.0906359504932	-0.95068359375	0.29345703125	-0.29443359375	-47.3125	-72.625	248.9375
18	11	28	11	40	42	-0.514203650942	0.409165730079	0.0949064305299	-0.669921875	0.27001953125	-0.32958984375	-114.4375	-69.9375	217.5625
18	11	28	11	40	42	-0.476172164025	0.418679959653	0.107538496925	-0.46044921875	0.02001953125	-0.296875	-159.0	-67.375	187.3125
18	11	28	11	40	42	-0.440476793243	0.427842915427	0.122859884273	-0.38330078125	-0.22607421875	-0.2841796875	-164.125	-63.4375	162.375
18	11	28	11	40	42	-0.408204321016	0.435853327808	0.134094631171	-0.267578125	-0.17236328125	-0.29443359375	-137.0625	-48.3125	149.8125
18	11	28	11	40	42	-0.384635142355	0.441945900634	0.136532658434	-0.0810546875	-0.05224609375	-0.40380859375	-73.625	-20.9375	123.75
18	11	28	11	40	42	-0.374386300481	0.447261625354	0.132200966228	0.05078125	-0.07470703125	-0.4736328125	5.125	1.25	72.9375
18	11	28	11	40	43	-0.374374725931	0.448224321363	0.118403483584	0.001953125	0.13818359375	-0.3095703125	68.125	16.5625	33.5625
18	11	28	11	40	43	-0.376344919897	0.451357554758	0.103638286407	-0.17626953125	0.45751953125	-0.18310546875	54.25	34.625	3.0625
18	11	28	11	40	43	-0.377128813297	0.46123360448	0.102659113767	-0.43115234375	0.52587890625	-0.16845703125	-32.8125	39.125	-46.5
18	11	28	11	40	43	-0.376578471721	0.476307681249	0.123532386834	-0.6240234375	0.4482421875	0.140625	-141.6875	49.875	-79.875
18	11	28	11	40	43	-0.377797016773	0.500230104922	0.158686953733	-1.21337890625	0.1328125	0.20751953125	-226.0	85.375	-146.5
18	11	28	11	40	43	-0.3710948442	0.532350202485	0.199402443421	-2.2890625	-0.66748046875	0.515625	-293.25	128.1875	-120.4375
18	11	28	11	40	43	-0.352354860992	0.58019839054	0.224303501497	-2.673828125	-2.1875	0.7529296875	-304.4375	234.1875	-16.9375
18	11	28	11	40	43	-0.340877877122	0.624688464161	0.197996031044	-2.236328125	-2.330078125	1.30224609375	-55.0	300.875	140.25
18	11	28	11	40	43	-0.357172778693	0.653067110734	0.155576454697	-2.49267578125	-1.5615234375	0.80908203125	138.8125	299.625	72.875
18	11	28	11	40	43	-0.365649257752	0.668190297757	0.127070898788	-2.412109375	-0.70361328125	0.51611328125	94.5	174.9375	60.0625
18	11	28	11	40	43	-0.352409303044	0.675217201173	0.114438421061	-1.61474609375	-0.365234375	0.42236328125	-35.4375	48.8125	55.5
18	11	28	11	40	43	-0.330564040033	0.682673335999	0.123717376135	-1.15673828125	-0.0859375	0.474609375	-137.1875	-8.25	41.5
18	11	28	11	40	43	-0.307857939745	0.689811743656	0.141172762615	-0.85302734375	-0.06396484375	0.654296875	-173.25	-14.6875	12.0625
18	11	28	11	40	43	-0.289490281537	0.691041317218	0.161682427955	-0.5126953125	-0.255859375	0.8759765625	-157.4375	-44.125	-10.9375
18	11	28	11	40	43	-0.286135137317	0.675481562433	0.181275886909	-0.0166015625	-0.43603515625	1.09326171875	-94.25	-83.25	-37.5
18	11	28	11	40	43	-0.29248299823	0.658025710334	0.183839480524	0.3720703125	-0.240234375	1.16064453125	45.8125	-101.8125	-21.5625
18	11	28	11	40	43	-0.306078988623	0.634312847211	0.171746016747	0.12841796875	0.23046875	0.86279296875	148.5	-119.1875	0.0625
18	11	28	11	40	43	-0.316710145071	0.609372535823	0.163268382745	-0.369140625	0.671875	0.45703125	128.0625	-138.9375	-14.25
18	11	28	11	40	43	-0.316035034894	0.588979931774	0.165219551846	-0.8388671875	0.8857421875	0.23828125	36.6875	-146.375	-13.0
18	11	28	11	40	43	-0.314031617117	0.574229242728	0.192508400464	-3.2265625	0.6279296875	-0.47265625	-87.9375	-132.9375	-87.25
18	11	28	11	40	43	-0.277712600113	0.558660094249	0.234560334557	-1.95654296875	-0.74365234375	-0.3505859375	-244.3125	-242.4375	10.125
18	11	28	11	40	43	-0.242791857713	0.541978807564	0.264580870584	-1.404296875	-0.96484375	-0.3720703125	-185.25	-223.1875	49.5625
18	11	28	11	40	43	-0.228753688002	0.517930575342	0.282707332664	-1.34521484375	-1.41015625	-0.38818359375	-55.4375	-207.875	-10.5
18	11	28	11	40	43	-0.222712639472	0.496632706874	0.265741527065	-1.62841796875	-1.58984375	-0.865234375	120.0625	-145.6875	70.6875
18	11	28	11	40	43	-0.213744328096	0.491270159007	0.242186605906	-1.15625	-0.89208984375	-0.77685546875	123.3125	-62.625	115.3125
18	11	28	11	40	43	-0.21515182123	0.490302008494	0.218569835979	-0.9052734375	-0.62939453125	-0.73828125	136.25	-8.5	65.3125
18	11	28	11	40	43	-0.221007077338	0.486996815818	0.202940771099	-1.04052734375	-0.48681640625	-0.470703125	107.5	-15.1875	14.0
18	11	28	11	40	43	-0.224369391051	0.488717550095	0.198184823924	-1.02099609375	-0.76025390625	-0.353515625	65.9375	-29.3125	-3.0625
18	11	28	11	40	43	-0.229000325848	0.487297068649	0.186825692276	-0.6337890625	-0.76123046875	0.05810546875	92.8125	-10.75	25.8125
18	11	28	11	40	43	-0.2418830969	0.482057203966	0.159180195992	-0.28466796875	-0.25439453125	0.28076171875	178.125	12.25	18.25
18	11	28	11	40	43	-0.262384529099	0.472829250275	0.125485599402	-0.01318359375	0.20556640625	0.30908203125	229.5	11.75	-8.125
18	11	28	11	40	43	-0.283803137384	0.460127280158	0.0953944739205	0.2119140625	0.6513671875	0.396484375	214.4375	-3.75	-29.75
18	11	28	11	40	43	-0.301998558359	0.447443700754	0.076354122172	0.25390625	0.830078125	0.4208984375	150.25	-18.1875	-48.25
18	11	28	11	40	43	-0.31493789947	0.432612370434	0.0592644768188	0.14013671875	0.86328125	0.52197265625	93.125	-15.5625	-54.25
18	11	28	11	40	43	-0.32214142217	0.425351188158	0.0486446975122	-0.08740234375	0.99658203125	0.80078125	19.5	17.4375	-57.0
18	11	28	11	40	43	-0.31885069825	0.433292708054	0.0507206987453	-0.6806640625	0.7060546875	1.11474609375	-93.0	65.1875	-44.125
18	11	28	11	40	43	-0.30767360705	0.459893003198	0.0764148692773	-2.2373046875	-0.044921875	1.27587890625	-203.8125	107.875	-24.0625
18	11	28	11	40	43	-0.278804544169	0.482964176448	0.103453087208	-1.5966796875	-1.16015625	1.478515625	-249.25	69.75	68.5
18	11	28	11	40	43	-0.248228647945	0.496640400377	0.102904721032	-0.94384765625	-1.0	1.43310546875	-105.1875	53.75	163.0
18	11	28	11	40	43	-0.229182905962	0.501638962477	0.087400777986	-1.11474609375	-0.49169921875	0.94189453125	12.5625	25.9375	142.5
18	11	28	11	40	43	-0.210872619161	0.495901600778	0.0757432475772	-1.0849609375	-0.08154296875	0.6083984375	12.0625	-49.125	125.0625
18	11	28	11	40	43	-0.184871231137	0.483082137488	0.0724470621856	-0.421875	-0.04541015625	0.47119140625	-38.5	-105.375	143.75
18	11	28	11	40	43	-0.159300561144	0.467953027696	0.0744623312625	-0.04150390625	-0.107421875	0.39111328125	-60.3125	-119.0	128.4375
18	11	28	11	40	43	-0.137630280806	0.453844243048	0.0765968968565	0.06884765625	-0.11474609375	0.20263671875	-50.875	-107.0	107.5
18	11	28	11	40	43	-0.120117734985	0.438844773649	0.0750125489312	0.05615234375	-0.18798828125	0.1171875	-20.0	-106.5625	96.5625
18	11	28	11	40	43	-0.105283602303	0.420463035517	0.0720200873727	0.01220703125	-0.2255859375	0.150390625	-2.875	-123.4375	85.3125
18	11	28	11	40	43	-0.094357317215	0.402697010986	0.0686013095406	-0.19091796875	-0.10595703125	0.29248046875	6.125	-115.5	63.8125
18	11	28	11	40	43	-0.0870356227955	0.39251478976	0.0664668956692	-0.84228515625	0.0234375	0.4140625	-4.6875	-87.0625	29.4375
18	11	28	11	40	43	-0.0947248556465	0.383721113047	0.071959152582	-2.2470703125	-0.17138671875	0.509765625	-5.875	-51.5625	-54.9375
18	11	28	11	40	44	-0.0980787905811	0.382611038054	0.0781212519874	-3.0673828125	-0.498046875	0.64990234375	-24.875	-6.9375	-31.75
18	11	28	11	40	44	-0.0852633431101	0.390185076952	0.079098992606	-1.98388671875	-1.30908203125	0.69970703125	-38.25	37.9375	67.375
18	11	28	11	40	44	-0.0624383464771	0.389888716809	0.0754387060076	-0.93115234375	-1.20849609375	0.939453125	-19.5	-14.8125	140.125
18	11	28	11	40	44	-0.0498649254679	0.394341840206	0.0637807186217	-0.791015625	0.07275390625	0.86865234375	18.1875	28.4375	81.6875
18	11	28	11	40	44	-0.0505364886754	0.40362053093	0.0637199205038	-0.87646484375	-0.09716796875	0.43896484375	-2.875	39.8125	-6.125
18	11	28	11	40	44	-0.0473625224795	0.402215236005	0.0711658520762	-0.46533203125	-0.36376953125	0.71728515625	-37.25	3.75	12.0
18	11	28	11	40	44	-0.0444324525609	0.393056311116	0.0686627872679	0.1396484375	-0.08056640625	0.7138671875	6.1875	-16.4375	24.0625
18	11	28	11	40	44	-0.0511464046212	0.378776356897	0.0584704721088	0.71875	-0.05078125	0.60009765625	71.125	-20.625	-6.125
18	11	28	11	40	44	-0.0651249379847	0.371401356736	0.0432131734706	0.74072265625	0.12158203125	0.52587890625	111.75	-21.125	-41.5625
18	11	28	11	40	44	-0.0806275412763	0.365662074025	0.0281982771156	0.2861328125	0.37451171875	0.58251953125	109.4375	-13.875	-54.875
18	11	28	11	40	44	-0.0965558688881	0.363762944736	0.0172116024187	-0.314453125	0.49560546875	0.47509765625	63.8125	5.25	-87.4375
18	11	28	11	40	44	-0.126278818385	0.374014789302	0.0204463045718	-2.115234375	0.59912109375	0.470703125	38.25	71.9375	-167.75
18	11	28	11	40	44	-0.138847576009	0.383219309785	0.0506564782803	-2.47705078125	0.048828125	1.1103515625	-139.8125	42.4375	-134.9375
18	11	28	11	40	44	-0.131772848958	0.405633327548	0.0808703218478	-1.568359375	-0.75244140625	1.1357421875	-190.8125	111.3125	-29.3125
18	11	28	11	40	44	-0.123048234135	0.4245042006	0.0950327879704	-1.16357421875	-1.66748046875	1.47216796875	-111.8125	103.0625	14.125
18	11	28	11	40	44	-0.112913632885	0.44561212632	0.0878895304618	-1.08056640625	-0.8955078125	1.17822265625	-3.5625	132.5	81.8125
18	11	28	11	40	44	-0.105893692525	0.465260874997	0.0833111759636	-0.76806640625	-0.15234375	0.72607421875	-13.5	124.0625	50.5
18	11	28	11	40	44	-0.105466994166	0.47563905413	0.082701259893	-0.416015625	-0.12451171875	0.54150390625	-11.625	81.75	5.375
18	11	28	11	40	44	-0.112422647088	0.482709400551	0.0794038348865	-0.04541015625	0.08447265625	0.37109375	19.625	72.3125	-30.375
18	11	28	11	40	44	-0.123531967388	0.49235789571	0.0735454647738	-0.16552734375	0.12109375	0.08447265625	44.5625	73.5625	-48.625
18	11	28	11	40	44	-0.132565628685	0.500539005913	0.0691514075966	-0.18359375	0.052734375	0.11083984375	35.25	63.5625	-38.875
18	11	28	11	40	44	-0.137633201141	0.503352997699	0.0679926324041	0.158203125	-0.03125	0.18701171875	14.6875	39.625	-17.4375
18	11	28	11	40	44	-0.143433884363	0.503300344877	0.0684210146261	0.36376953125	-0.046875	0.201171875	12.625	28.0	-21.0625
18	11	28	11	40	44	-0.154416478389	0.503776131471	0.0714710261634	0.08837890625	-0.0830078125	0.2001953125	14.4375	25.3125	-57.8125
18	11	28	11	40	44	-0.16784022782	0.507548848927	0.0785492266197	-0.46044921875	-0.03662109375	0.17578125	-3.8125	28.5	-96.625
18	11	28	11	40	44	-0.183221424855	0.515729860101	0.0928924079377	-1.5029296875	-0.17431640625	0.33984375	-37.5	53.8125	-127.625
18	11	28	11	40	44	-0.206238852072	0.529848912353	0.119080201359	-3.19384765625	-0.0615234375	0.17919921875	-80.9375	104.75	-198.5625
18	11	28	11	40	44	-0.202873144332	0.548990352968	0.129755807716	-2.49169921875	-1.21875	0.220703125	-92.125	115.5625	-19.5625
18	11	28	11	40	44	-0.198052321663	0.56064980795	0.130061478417	-1.4267578125	-1.11376953125	0.51904296875	-23.8125	68.375	44.5
18	11	28	11	40	44	-0.195738451434	0.572444944186	0.126097798773	-1.1796875	-0.6962890625	0.4912109375	-7.75	83.0	30.5
18	11	28	11	40	44	-0.194582325977	0.585822197218	0.121522399944	-1.39599609375	-0.40966796875	0.39111328125	-7.9375	89.5	3.6875
18	11	28	11	40	44	-0.196040939903	0.591845888619	0.118527865907	-1.0556640625	-0.5888671875	0.4267578125	6.8125	52.3125	8.0
18	11	28	11	40	44	-0.20721226742	0.589227460875	0.111937348586	-0.5693359375	-0.59716796875	0.45849609375	68.4375	19.6875	-9.1875
18	11	28	11	40	44	-0.227780239592	0.584098845899	0.0899646498282	-0.09765625	-0.25341796875	0.52490234375	171.3125	20.4375	-15.75
18	11	28	11	40	44	-0.253177773397	0.576974323028	0.0603647101952	0.06005859375	0.15625	0.4033203125	222.3125	25.3125	-18.625
18	11	28	11	40	44	-0.275330945806	0.569033564121	0.0390016569209	-0.0341796875	0.35205078125	0.2373046875	176.0	7.75	-36.125
18	11	28	11	40	44	-0.289111425891	0.5604013326	0.0266712461715	-0.2724609375	0.3642578125	0.3125	96.1875	-9.5	-48.25
18	11	28	11	40	44	-0.296756656367	0.555610004712	0.023804009869	-0.529296875	0.29833984375	0.33740234375	29.0625	-11.125	-55.5
18	11	28	11	40	44	-0.3006631856	0.559516732115	0.0260623589629	-1.25244140625	0.4033203125	0.38525390625	-26.1875	18.125	-89.0625
18	11	28	11	40	44	-0.319265027283	0.571088292924	0.058347804642	-3.57861328125	-0.20849609375	0.06689453125	-106.0	55.8125	-215.0625
18	11	28	11	40	44	-0.289789551702	0.582142532463	0.0763535655391	-2.455078125	-1.57666015625	0.302734375	-193.625	-1.125	75.5625
18	11	28	11	40	44	-0.25524546438	0.583915197926	0.0857531988174	-1.359375	-1.90576171875	0.96240234375	-154.8125	-56.5	135.5625
18	11	28	11	40	44	-0.234007879396	0.581845882703	0.0783078010603	-1.47314453125	-1.32666015625	0.83349609375	-29.5	-34.375	140.5
18	11	28	11	40	44	-0.221063430927	0.576766820061	0.0635969340215	-1.41943359375	-0.5458984375	0.63720703125	32.0	-36.8125	115.5
18	11	28	11	40	44	-0.213251360049	0.563095892332	0.0525499201493	-0.81201171875	-0.56689453125	0.4326171875	49.75	-86.5	99.375
18	11	28	11	40	44	-0.217346216101	0.543762268814	0.0358276407895	-0.24267578125	-0.3525390625	0.46728515625	117.3125	-103.8125	49.8125
18	11	28	11	40	44	-0.227235480295	0.523502206416	0.0136109352957	0.0244140625	-0.0244140625	0.4091796875	159.625	-93.25	33.9375
18	11	28	11	40	44	-0.231444883556	0.504576701572	-0.00836180090907	0.24462890625	0.123046875	0.35986328125	138.875	-84.9375	57.6875
18	11	28	11	40	44	-0.228447316184	0.479965186875	-0.0228264216545	0.599609375	0.2216796875	0.404296875	78.75	-96.9375	72.5625
18	11	28	11	40	44	-0.223688169599	0.461597169626	-0.0245965436149	0.95849609375	0.22021484375	0.35009765625	14.75	-103.1875	44.75
18	11	28	11	40	45	-0.22509777239	0.441833724059	-0.0172729581308	0.650390625	0.15966796875	0.28466796875	-18.375	-91.4375	-12.0
18	11	28	11	40	45	-0.227530445365	0.427962307645	-0.00671361292655	0.18115234375	0.1767578125	0.2177734375	-39.375	-80.0	-36.375
18	11	28	11	40	45	-0.231198662112	0.42382352421	0.00549310443245	-0.4794921875	0.31689453125	0.19873046875	-63.625	-50.5625	-69.6875
18	11	28	11	40	45	-0.259753303639	0.426920667047	0.0372907115891	-3.03173828125	0.11767578125	-0.01416015625	-94.875	-0.625	-234.4375
18	11	28	11	40	45	-0.252309855067	0.429122058776	0.0627417830211	-2.91796875	-0.771484375	0.46484375	-147.9375	-27.75	-25.4375
18	11	28	11	40	45	-0.240721796708	0.433714271656	0.0729367512846	-1.95556640625	-1.55615234375	0.4609375	-85.25	3.375	34.3125
18	11	28	11	40	45	-0.232050144588	0.436207886211	0.0673201760865	-1.3681640625	-1.3076171875	0.65087890625	46.1875	-13.125	96.625
18	11	28	11	40	45	-0.223631477474	0.439450501586	0.0459591982909	-1.22802734375	-0.19873046875	0.41357421875	82.25	5.0	84.9375
18	11	28	11	40	45	-0.216972923024	0.44169705877	0.0375354001857	-0.984375	-0.35546875	0.25927734375	33.3125	-10.125	57.0
18	11	28	11	40	45	-0.211179234111	0.435847084043	0.0364375730533	-0.44140625	-0.515625	0.19580078125	17.5625	-49.125	55.5
18	11	28	11	40	45	-0.213552798697	0.423504678525	0.0335678877632	-0.173828125	-0.455078125	0.2255859375	52.5625	-67.9375	19.6875
18	11	28	11	40	45	-0.224118136536	0.407343257963	0.0289302823306	-0.0791015625	-0.25439453125	0.30615234375	76.625	-75.25	-27.5625
18	11	28	11	40	45	-0.236137893333	0.3913456118	0.023009559521	0.03076171875	-0.0146484375	0.55322265625	71.4375	-53.5	-42.9375
18	11	28	11	40	45	-0.251637342511	0.385115603018	0.0206900458674	-0.19384765625	0.2509765625	0.50244140625	34.75	-8.75	-91.3125
18	11	28	11	40	45	-0.273374174476	0.389645172997	0.0295407681282	-0.7060546875	0.30615234375	0.54345703125	-10.9375	30.0	-148.6875
18	11	28	11	40	45	-0.288011770548	0.399762046426	0.0370466507146	-1.478515625	0.44140625	0.92431640625	-32.5625	56.375	-116.625
18	11	28	11	40	45	-0.300895318714	0.424183055794	0.0623762709383	-2.3046875	-0.27392578125	1.07421875	-140.8125	122.875	-146.125
18	11	28	11	40	45	-0.287041937394	0.456898988589	0.0668320054108	-1.7578125	-1.21826171875	1.10009765625	-111.5	174.5	50.6875
18	11	28	11	40	45	-0.267636160133	0.480341295381	0.0653068851407	-1.294921875	-0.8173828125	0.87353515625	-82.6875	124.75	97.9375
18	11	28	11	40	45	-0.254202768172	0.497175450067	0.0605448129716	-0.94775390625	-0.107421875	0.8779296875	-46.5	100.9375	71.125
18	11	28	11	40	45	-0.246273993525	0.501275912966	0.0641472037657	-0.4169921875	-0.32080078125	0.6220703125	-50.3125	32.6875	35.625
18	11	28	11	40	45	-0.244189498536	0.497045557629	0.0636564976187	0.138671875	-0.32666015625	0.5517578125	1.25	5.9375	35.625
18	11	28	11	40	45	-0.246028482814	0.489981806012	0.0525503655924	0.2822265625	-0.1337890625	0.41064453125	64.5625	2.1875	40.5625
18	11	28	11	40	45	-0.247377060914	0.484683257023	0.036133042206	0.1435546875	0.02197265625	0.2958984375	83.6875	9.625	45.0
18	11	28	11	40	45	-0.24584455993	0.47771235615	0.0244745949682	0.11962890625	0.06689453125	0.29931640625	54.5	-10.1875	43.9375
18	11	28	11	40	45	-0.242247250986	0.470090281454	0.0217284004411	0.19921875	-0.00390625	0.22216796875	10.6875	-28.5	35.3125
18	11	28	11	40	45	-0.238945363044	0.465684066417	0.0248405524288	-0.01953125	-0.10546875	0.1416015625	-16.25	-28.1875	16.8125
18	11	28	11	40	45	-0.235775586014	0.467889112706	0.0328364652538	-0.529296875	-0.0458984375	0.0498046875	-49.75	-16.8125	-13.9375
18	11	28	11	40	45	-0.235101285956	0.482531351706	0.0477282465259	-1.69677734375	0.0029296875	0.00146484375	-97.0	10.25	-82.0
18	11	28	11	40	45	-0.240658567556	0.492974702041	0.0712271235956	-3.13037109375	0.0791015625	0.21728515625	-114.75	46.0625	-101.3125
18	11	28	11	40	45	-0.225217507417	0.507441289069	0.091246659509	-2.5107421875	-1.1669921875	0.39990234375	-161.75	52.875	14.25
18	11	28	11	40	45	-0.205749540078	0.515503000742	0.0833129997648	-1.283203125	-1.42724609375	0.77197265625	-22.375	36.75	132.875
18	11	28	11	40	45	-0.187559973461	0.520077622474	0.0656124215655	-0.94482421875	-0.51123046875	0.75390625	26.3125	28.5625	147.125
18	11	28	11	40	45	-0.183893893756	0.521164938194	0.0438830765384	-1.11376953125	-0.12890625	0.45849609375	87.375	14.5625	71.0625
18	11	28	11	40	45	-0.180788455356	0.51593680389	0.0314335092871	-0.8583984375	-0.19970703125	0.45263671875	55.625	-27.1875	52.5625
18	11	28	11	40	45	-0.178708127102	0.504325564974	0.016784404014	-0.34716796875	-0.203125	0.44775390625	77.6875	-49.6875	66.4375
18	11	28	11	40	45	-0.1816960632	0.490036174481	-0.00854465866575	-0.03125	-0.01611328125	0.42333984375	145.5625	-59.875	66.0
18	11	28	11	40	45	-0.182004343557	0.472527708858	-0.0361323177014	0.02734375	0.23828125	0.2744140625	150.8125	-78.125	82.6875
18	11	28	11	40	45	-0.174006286535	0.453356259692	-0.0565169489062	-0.1650390625	0.43017578125	0.30224609375	92.0625	-98.3125	103.6875
18	11	28	11	40	45	-0.159849634935	0.436824680118	-0.074706358595	-0.64892578125	0.61474609375	0.40283203125	41.6875	-90.8125	98.0
18	11	28	11	40	45	-0.148990269023	0.429819530708	-0.0787982127442	-1.5419921875	0.64697265625	0.3408203125	-29.375	-88.375	37.6875
18	11	28	11	40	45	-0.143304349808	0.422528114872	-0.0704315245648	-2.4521484375	0.92578125	0.9794921875	-52.875	-54.3125	15.875
18	11	28	11	40	45	-0.128356182878	0.428037047326	-0.0333860352042	-2.43505859375	-0.08837890625	1.1220703125	-230.875	-0.875	-13.875
18	11	28	11	40	45	-0.106203022286	0.429389805621	-0.0174563588355	-2.07421875	-1.97509765625	1.28515625	-137.5625	-7.0	76.0
18	11	28	11	40	45	-0.074158751113	0.427129992007	-0.0333866970032	-0.94677734375	-1.29541015625	1.58935546875	3.875	-8.25	206.4375
18	11	28	11	40	45	-0.0590823400495	0.42730936228	-0.0603640850299	-0.7373046875	-0.52294921875	1.09521484375	108.9375	22.875	151.5
18	11	28	11	40	45	-0.0535267586572	0.418448640084	-0.0772689583352	-0.658203125	-0.29248046875	0.9453125	94.5	-24.6875	94.9375
18	11	28	11	40	45	-0.0427856895587	0.403137631291	-0.08715829485	-0.25390625	0.06103515625	0.74267578125	30.375	-60.375	87.3125
18	11	28	11	40	45	-0.0343622531575	0.384027170279	-0.0864244235719	-0.0625	-0.02001953125	0.41357421875	-18.3125	-98.1875	55.3125
18	11	28	11	40	45	-0.0278926920788	0.359126039807	-0.0756825780695	0.08740234375	-0.21240234375	0.333984375	-68.375	-149.6875	27.375
18	11	28	11	40	46	-0.019226180651	0.328065780949	-0.0669559370607	0.28125	-0.212890625	0.43017578125	-61.1875	-180.125	45.1875
18	11	28	11	40	46	-0.00921584720433	0.295578463646	-0.0629240958124	0.4228515625	-0.1572265625	0.259765625	-38.6875	-184.4375	60.8125
18	11	28	11	40	46	-0.00262452876035	0.265809831426	-0.0598148415149	0.40771484375	-0.04638671875	0.1376953125	-28.75	-168.5	41.625
18	11	28	11	40	46	0.0017089255933	0.241996070622	-0.0601175610499	0.23046875	0.1279296875	0.09765625	-8.5	-135.0	31.0
18	11	28	11	40	46	0.00372316867186	0.229066426647	-0.0636600807336	-0.03076171875	0.5595703125	0.087890625	-17.75	-74.4375	3.1875
18	11	28	11	40	46	-0.00628642444953	0.23705313167	-0.0626811447541	-1.07373046875	0.9052734375	0.13427734375	-46.875	-17.875	-79.9375
18	11	28	11	40	46	-0.0303339529609	0.238460270057	-0.0405266494287	-2.15869140625	0.873046875	0.5263671875	-90.5625	-2.25	-164.3125
18	11	28	11	40	46	-0.0525510884461	0.253111920774	-0.0115966397268	-1.5751953125	0.384765625	0.9248046875	-138.5625	60.8125	-170.0625
18	11	28	11	40	46	-0.0682360168006	0.286615684164	-0.00244136017176	-1.21923828125	-0.32177734375	0.76318359375	-33.4375	186.25	-103.375
18	11	28	11	40	46	-0.0715925891411	0.326286429283	-0.00469959877568	-0.908203125	-0.203125	0.63330078125	5.0	234.0625	-18.75
