18	11	28	12	34	09	-0.370286017596	0.544900867826	-0.340563042391	-0.5322265625	0.0283203125	0.013671875	-13.375	28.5	-11.625
18	11	28	12	34	09	-0.369630648136	0.549441065805	-0.340638812293	-0.5234375	0.02978515625	-0.0400390625	-5.375	20.5	-13.75
18	11	28	12	34	09	-0.37004495958	0.552595590308	-0.340382770836	-0.5087890625	0.0478515625	-0.05322265625	-1.8125	9.9375	-16.125
18	11	28	12	34	09	-0.371817253148	0.554491094033	-0.339286295182	-0.5244140625	0.06201171875	-0.04248046875	0.4375	-0.5625	-21.25
18	11	28	12	34	09	-0.375429742576	0.555301544132	-0.336672160632	-0.57958984375	0.05908203125	0.01318359375	1.9375	-10.625	-29.375
18	11	28	12	34	09	-0.380845952332	0.554912083109	-0.333667439327	-0.6630859375	0.07958984375	0.07568359375	8.0625	-16.8125	-36.75
18	11	28	12	34	09	-0.388733154893	0.553223004545	-0.331421107092	-0.767578125	0.1279296875	0.134765625	22.875	-19.6875	-46.875
18	11	28	12	34	09	-0.398924923022	0.550352819903	-0.329650169712	-0.87451171875	0.17724609375	0.1982421875	35.25	-22.125	-57.5625
18	11	28	12	34	09	-0.412529239183	0.546254873604	-0.330133252662	-1.06787109375	0.29052734375	0.2353515625	59.875	-20.6875	-75.625
18	11	28	12	34	09	-0.432049238212	0.543860822391	-0.327866719547	-1.35546875	0.28564453125	0.255859375	75.1875	-21.375	-103.875
18	11	28	12	34	09	-0.451215196259	0.542459172779	-0.324450153296	-1.4833984375	0.11962890625	0.39453125	69.1875	-15.625	-108.375
18	11	28	12	34	09	-0.470022683222	0.537709367509	-0.325494217585	-1.38623046875	-0.02978515625	0.59326171875	90.3125	3.25	-90.3125
18	11	28	12	34	09	-0.491754147216	0.532647194086	-0.333797124379	-1.65087890625	0.044921875	0.67138671875	140.375	21.9375	-92.5625
18	11	28	12	34	09	-0.511319516375	0.528835474981	-0.341164489918	-2.2275390625	-0.00732421875	0.55224609375	127.6875	24.375	-91.6875
18	11	28	12	34	09	-0.516416519767	0.526792457405	-0.340452824401	-1.783203125	-0.0927734375	0.662109375	17.9375	6.5625	-34.375
18	11	28	12	34	09	-0.51255040151	0.529090191795	-0.332382649039	-1.4755859375	-0.21923828125	0.68994140625	-61.25	-1.9375	0.6875
18	11	28	12	34	09	-0.498887762211	0.535629924292	-0.322439937333	-1.2099609375	-0.3662109375	0.54833984375	-115.625	-10.8125	39.125
18	11	28	12	34	09	-0.479305581468	0.542110298561	-0.311887370598	-1.103515625	-0.4794921875	0.439453125	-143.125	-15.9375	73.125
18	11	28	12	34	09	-0.458358265028	0.545269339516	-0.304982190459	-1.021484375	-0.48388671875	0.3603515625	-126.375	-19.0625	97.625
18	11	28	12	34	09	-0.439871650287	0.543873494617	-0.304742493393	-0.9140625	-0.40771484375	0.28125	-78.75	-16.875	111.625
18	11	28	12	34	09	-0.425584342836	0.53837365383	-0.310597837472	-0.7763671875	-0.3046875	0.203125	-27.6875	-15.5625	113.5625
18	11	28	12	34	09	-0.415450691305	0.529032847397	-0.321704215347	-0.6240234375	-0.1962890625	0.16015625	18.5625	-16.4375	113.5625
18	11	28	12	34	09	-0.408986810574	0.516528186523	-0.337943586054	-0.53857421875	-0.05078125	0.13134765625	61.9375	-14.8125	111.875
18	11	28	12	34	09	-0.404599155366	0.502437810676	-0.356625865862	-0.50048828125	0.119140625	0.107421875	84.4375	-13.0625	106.5
18	11	28	12	34	09	-0.399953903717	0.48863588481	-0.37358734086	-0.46435546875	0.271484375	0.11474609375	75.8125	-15.25	100.0625
18	11	28	12	34	09	-0.392311964935	0.474887896571	-0.387490458209	-0.4404296875	0.349609375	0.15185546875	46.1875	-20.5625	94.375
18	11	28	12	34	09	-0.382990567644	0.462884536257	-0.395868816213	-0.39453125	0.36767578125	0.189453125	11.375	-26.125	86.625
18	11	28	12	34	09	-0.372925451387	0.453003715252	-0.398865437776	-0.35693359375	0.33740234375	0.2490234375	-18.875	-27.375	76.3125
18	11	28	12	34	09	-0.362727627135	0.44524617869	-0.398554838498	-0.34619140625	0.30078125	0.30224609375	-35.625	-23.125	66.75
18	11	28	12	34	09	-0.353326095669	0.439689271584	-0.397087507069	-0.35595703125	0.2734375	0.3349609375	-38.4375	-13.375	54.875
18	11	28	12	34	09	-0.345143349101	0.436388142542	-0.395190660554	-0.38525390625	0.2353515625	0.3408203125	-36.4375	-2.75	43.0625
18	11	28	12	34	09	-0.338183528352	0.435286938135	-0.39347937327	-0.4443359375	0.22216796875	0.32373046875	-31.75	6.25	31.75
18	11	28	12	34	09	-0.332376032149	0.436007046213	-0.391027035986	-0.54931640625	0.2333984375	0.31591796875	-32.9375	10.6875	19.5
18	11	28	12	34	09	-0.327503701144	0.438828104962	-0.388231651692	-0.77099609375	0.38525390625	0.32958984375	-35.4375	16.375	2.1875
18	11	28	12	34	09	-0.32684033529	0.447627828014	-0.382625968615	-1.25634765625	0.41748046875	0.11767578125	-44.75	13.9375	-37.375
18	11	28	12	34	09	-0.327451854868	0.458188457501	-0.364316891278	-1.7177734375	0.10498046875	0.09375	-101.25	-5.1875	-62.4375
18	11	28	12	34	09	-0.323418002047	0.46739668988	-0.345146027849	-1.71044921875	-0.09912109375	0.212890625	-119.0	-8.25	-34.75
18	11	28	12	34	09	-0.325120570233	0.480204363919	-0.330979698212	-1.7607421875	-0.17578125	0.181640625	-68.6875	4.0625	-40.375
18	11	28	12	34	09	-0.338007785187	0.493584138463	-0.325251622835	-2.1796875	-0.19970703125	0.0302734375	12.8125	9.8125	-82.5625
18	11	28	12	34	09	-0.35387897853	0.505550117137	-0.322079918886	-2.26513671875	-0.36572265625	0.07373046875	42.75	13.3125	-83.8125
18	11	28	12	34	09	-0.369194679596	0.513967332927	-0.324029517933	-2.00634765625	-0.26123046875	0.2109375	68.3125	29.4375	-74.0625
18	11	28	12	34	09	-0.385543454389	0.519388126777	-0.328966157853	-1.6181640625	-0.30712890625	0.2705078125	91.1875	37.125	-66.4375
18	11	28	12	34	10	-0.398421992987	0.521464079057	-0.334215507598	-1.2119140625	-0.24755859375	0.3203125	81.125	31.125	-44.3125
18	11	28	12	34	10	-0.40801828523	0.521360088622	-0.339170921619	-0.88525390625	-0.1044921875	0.32861328125	66.25	25.3125	-32.0625
18	11	28	12	34	10	-0.414848749972	0.521414281449	-0.342889550881	-0.71044921875	-0.00634765625	0.31640625	47.125	24.9375	-28.0625
18	11	28	12	34	10	-0.418745101781	0.523660249713	-0.343919056775	-0.583984375	0.05615234375	0.30224609375	18.75	29.25	-30.6875
18	11	28	12	34	10	-0.419176935881	0.529769336553	-0.342274935413	-0.46044921875	0.13232421875	0.23779296875	-12.75	40.875	-37.9375
18	11	28	12	34	10	-0.416076339305	0.541015207804	-0.338500715533	-0.38818359375	0.18212890625	0.13330078125	-42.6875	59.25	-47.4375
18	11	28	12	34	10	-0.40893058524	0.557549387487	-0.331599980538	-0.330078125	0.18310546875	0.01025390625	-78.125	73.875	-54.375
18	11	28	12	34	10	-0.399522423975	0.577555865885	-0.320301509475	-0.3154296875	0.1845703125	-0.12841796875	-107.375	81.4375	-57.0
18	11	28	12	34	10	-0.389635463437	0.598124614925	-0.307240746075	-0.39892578125	0.1201171875	-0.28173828125	-115.375	79.0625	-62.5625
18	11	28	12	34	10	-0.381768782668	0.616201059923	-0.293635429803	-0.4990234375	-0.01318359375	-0.369140625	-104.9375	62.9375	-64.1875
18	11	28	12	34	10	-0.376400866784	0.631037548514	-0.284482639871	-0.5498046875	-0.06103515625	-0.38623046875	-68.5	39.5	-54.6875
18	11	28	12	34	10	-0.376569222692	0.639435291109	-0.279710980161	-0.560546875	-0.0234375	-0.37158203125	-20.125	16.3125	-49.6875
18	11	28	12	34	10	-0.383057346277	0.642152061852	-0.278626001554	-0.58447265625	-0.01806640625	-0.27978515625	27.25	0.4375	-50.0
18	11	28	12	34	10	-0.395440287523	0.639698974152	-0.281550555077	-0.654296875	-0.00146484375	-0.14306640625	73.5625	-7.75	-51.0
18	11	28	12	34	10	-0.414963605494	0.632607408582	-0.287892826462	-0.77978515625	0.05859375	0.01123046875	123.4375	-9.4375	-55.5
18	11	28	12	34	10	-0.440102633001	0.622100421325	-0.29722643499	-0.99169921875	0.08740234375	0.1689453125	166.3125	-9.375	-66.5625
18	11	28	12	34	10	-0.468237650353	0.609465742495	-0.308089632297	-1.17431640625	0.15478515625	0.35986328125	191.375	-5.3125	-76.375
18	11	28	12	34	10	-0.497664955822	0.596111555496	-0.320180323552	-1.2822265625	0.25634765625	0.49755859375	207.375	7.5	-86.75
18	11	28	12	34	10	-0.524700577455	0.584329804415	-0.331348078982	-1.421875	0.15087890625	0.58740234375	193.75	20.8125	-89.4375
18	11	28	12	34	10	-0.545085945925	0.574503863956	-0.340259114156	-1.53076171875	0.0263671875	0.7431640625	151.3125	21.5	-68.375
18	11	28	12	34	10	-0.5593189407	0.567253408431	-0.34746865227	-2.04052734375	0.25830078125	0.7978515625	110.0	23.875	-56.5
18	11	28	12	34	10	-0.558520323668	0.563769230655	-0.351188497693	-2.22021484375	0.22314453125	0.52392578125	2.0625	13.75	-32.0625
18	11	28	12	34	10	-0.544425216574	0.575674735732	-0.339777486622	-1.9775390625	0.0673828125	0.50830078125	-138.75	-1.8125	-0.25
18	11	28	12	34	10	-0.521654869473	0.59025672665	-0.323722642762	-1.6953125	-0.36376953125	0.4091796875	-202.625	-16.4375	36.8125
18	11	28	12	34	10	-0.495528444833	0.600505526384	-0.309072058706	-1.18359375	-0.59619140625	0.462890625	-205.375	-33.625	80.375
18	11	28	12	34	10	-0.472889247441	0.600999021625	-0.304375151909	-0.88134765625	-0.63525390625	0.4384765625	-133.4375	-40.4375	122.5625
18	11	28	12	34	10	-0.456356647627	0.591670635562	-0.312802971658	-0.85693359375	-0.51025390625	0.30517578125	-36.75	-38.5625	155.25
18	11	28	12	34	10	-0.444146129406	0.577017659393	-0.329401767267	-0.9462890625	-0.2626953125	0.1416015625	26.6875	-33.3125	164.75
18	11	28	12	34	10	-0.433408004716	0.560787599962	-0.348447584696	-0.95556640625	-0.078125	0.0	48.375	-29.875	162.25
18	11	28	12	34	10	-0.422845859441	0.544731422563	-0.366694273026	-0.90625	0.01416015625	-0.06982421875	48.0	-29.0625	155.0
18	11	28	12	34	10	-0.4119755074	0.529220685135	-0.38298463836	-0.83056640625	0.03955078125	-0.08251953125	39.125	-30.4375	148.3125
18	11	28	12	34	10	-0.400576381483	0.514041487864	-0.397768745715	-0.75341796875	0.05029296875	-0.0283203125	31.875	-30.125	145.3125
18	11	28	12	34	10	-0.388108780194	0.498944689116	-0.412155778055	-0.669921875	0.080078125	0.041015625	27.4375	-26.125	147.0625
18	11	28	12	34	10	-0.374321990361	0.483817123364	-0.426994398266	-0.62353515625	0.09228515625	0.11376953125	26.9375	-19.0625	152.625
18	11	28	12	34	10	-0.359600298087	0.468603375545	-0.442847889158	-0.58056640625	0.1259765625	0.17236328125	31.5625	-10.625	156.0
18	11	28	12	34	10	-0.343247706431	0.454327156236	-0.458355312108	-0.53857421875	0.17529296875	0.19921875	26.1875	-1.3125	157.5
18	11	28	12	34	10	-0.324033583985	0.442135860311	-0.471066340403	-0.47705078125	0.23583984375	0.2255859375	1.25	7.3125	156.5
18	11	28	12	34	10	-0.301862059074	0.433079897127	-0.47921975088	-0.427734375	0.294921875	0.22607421875	-33.5625	15.6875	150.0
18	11	28	12	34	10	-0.278061815212	0.427834355715	-0.481664584209	-0.423828125	0.33642578125	0.1806640625	-71.0625	22.125	133.9375
18	11	28	12	34	10	-0.25389344572	0.426248034833	-0.47763704476	-0.49365234375	0.333984375	0.107421875	-108.0625	23.0	112.25
18	11	28	12	34	10	-0.230947344819	0.426800946701	-0.4676317537	-0.62890625	0.26318359375	0.0439453125	-136.625	15.25	91.125
18	11	28	12	34	10	-0.211608031414	0.428098855591	-0.454954215794	-0.8349609375	0.2890625	0.06103515625	-137.8125	7.0625	67.375
18	11	28	12	34	10	-0.201164656191	0.431869267963	-0.443038300755	-1.23583984375	0.37939453125	-0.06396484375	-103.625	4.125	20.75
18	11	28	12	34	10	-0.197071586155	0.437841919814	-0.427527550641	-1.59716796875	0.13916015625	-0.08154296875	-102.625	-5.625	-17.0625
18	11	28	12	34	10	-0.197624960957	0.44914209008	-0.413315699691	-1.5849609375	0.00048828125	0.1015625	-73.125	7.125	-12.8125
18	11	28	12	34	10	-0.202696262207	0.460873073148	-0.409054606839	-1.52392578125	0.10107421875	0.1650390625	-0.9375	34.625	-27.0
18	11	28	12	34	10	-0.221435282491	0.476928141507	-0.413451654795	-1.8857421875	0.3681640625	-0.0283203125	84.875	48.125	-97.75
18	11	28	12	34	10	-0.242977389817	0.490776486188	-0.41112677664	-2.03076171875	0.3095703125	-0.0517578125	64.4375	37.5625	-141.5625
18	11	28	12	34	10	-0.261895742682	0.505298264662	-0.402334359301	-1.76220703125	0.208984375	0.1728515625	24.1875	34.375	-148.3125
18	11	28	12	34	10	-0.28007624591	0.519566154159	-0.391337739982	-1.39990234375	0.06396484375	0.32763671875	12.75	33.8125	-150.625
18	11	28	12	34	11	-0.298145183573	0.53385382205	-0.378525369196	-1.22216796875	0.05517578125	0.35791015625	5.4375	33.0625	-158.0
18	11	28	12	34	11	-0.315664963986	0.548568580106	-0.363759316581	-1.1689453125	0.09130859375	0.32666015625	-4.875	32.8125	-164.9375
18	11	28	12	34	11	-0.332510914347	0.564072296329	-0.347281039397	-1.166015625	0.00927734375	0.30078125	-13.8125	36.625	-170.5625
18	11	28	12	34	11	-0.349477422068	0.578780019816	-0.331289459829	-1.11376953125	-0.04052734375	0.27734375	-8.1875	37.875	-170.0625
18	11	28	12	34	11	-0.367001476282	0.59142596128	-0.316403734084	-0.98486328125	0.01123046875	0.19775390625	2.4375	31.4375	-167.3125
18	11	28	12	34	11	-0.383172551631	0.601796967041	-0.300837449345	-0.84228515625	0.0771484375	0.10302734375	-3.5625	16.125	-158.5625
18	11	28	12	34	11	-0.39560932219	0.610502938887	-0.283859758949	-0.68408203125	0.06396484375	0.08642578125	-24.125	1.4375	-139.25
18	11	28	12	34	11	-0.405756058756	0.61760613095	-0.266841980879	-0.58203125	-0.029296875	0.1123046875	-31.875	-7.5625	-122.5625
18	11	28	12	34	11	-0.416304122459	0.622411587867	-0.252309227715	-0.529296875	-0.1044921875	0.13232421875	-16.6875	-11.3125	-109.4375
18	11	28	12	34	11	-0.428215785658	0.624196527925	-0.241878443353	-0.5126953125	-0.09228515625	0.09228515625	9.0	-12.25	-98.0625
18	11	28	12	34	11	-0.440058511012	0.624565706406	-0.234799596653	-0.5302734375	-0.00390625	0.02294921875	24.625	-13.375	-91.6875
18	11	28	12	34	11	-0.450442356124	0.625370241307	-0.228395026642	-0.564453125	0.0830078125	-0.0576171875	22.0	-13.875	-92.1875
18	11	28	12	34	11	-0.458910724204	0.627302091151	-0.220880158384	-0.58349609375	0.13623046875	-0.12744140625	8.5625	-16.4375	-94.75
18	11	28	12	34	11	-0.466299419343	0.630297657533	-0.211238519679	-0.62255859375	0.0830078125	-0.17236328125	-3.6875	-21.3125	-98.375
18	11	28	12	34	11	-0.474656255667	0.631878129732	-0.201287942805	-0.7041015625	-0.02099609375	-0.12841796875	1.9375	-27.75	-95.625
18	11	28	12	34	11	-0.486016142499	0.629202613716	-0.195920107676	-0.78271484375	-0.06640625	-0.06884765625	38.25	-31.0625	-83.875
18	11	28	12	34	11	-0.501091283627	0.620901538166	-0.196896526307	-0.8583984375	-0.16748046875	0.03759765625	86.375	-32.5625	-62.125
18	11	28	12	34	11	-0.521000163785	0.60553451557	-0.20636147537	-0.89697265625	-0.16845703125	0.14697265625	150.6875	-29.375	-31.0
18	11	28	12	34	11	-0.544165583666	0.584080824998	-0.22539294532	-1.06982421875	-0.119140625	0.18505859375	213.0625	-18.1875	-8.5625
18	11	28	12	34	11	-0.567539159618	0.558689479207	-0.251208859123	-1.36181640625	-0.123046875	0.2109375	250.375	-5.25	12.0
18	11	28	12	34	11	-0.587949203761	0.530820536189	-0.280699510858	-1.4619140625	-0.1845703125	0.341796875	260.0	3.3125	38.1875
18	11	28	12	34	11	-0.604416905333	0.50200232721	-0.313347106127	-1.39013671875	-0.029296875	0.53076171875	260.1875	21.6875	59.4375
18	11	28	12	34	11	-0.61780395747	0.475529602119	-0.349673866068	-1.953125	0.259765625	0.5869140625	262.5625	60.375	51.4375
18	11	28	12	34	11	-0.620465239086	0.46483014567	-0.373890424419	-2.16015625	0.59375	0.60546875	138.3125	77.0	42.5
18	11	28	12	34	11	-0.600338450059	0.468808421605	-0.383542783669	-1.71630859375	0.61865234375	0.68408203125	-88.625	66.5625	60.375
18	11	28	12	34	11	-0.564384077294	0.492058443943	-0.372309167459	-1.48486328125	0.2060546875	0.5986328125	-270.6875	43.125	109.0
18	11	28	12	34	11	-0.517003881112	0.516393558976	-0.351179356855	-1.2587890625	-0.23486328125	0.48974609375	-358.625	8.1875	158.6875
18	11	28	12	34	11	-0.467944934068	0.530870619085	-0.331961979444	-1.11279296875	-0.51220703125	0.48095703125	-329.4375	-18.5	198.9375
18	11	28	12	34	11	-0.425710239686	0.533373732561	-0.323295647257	-0.955078125	-0.556640625	0.47216796875	-225.5625	-26.25	214.375
18	11	28	12	34	11	-0.392510237966	0.527639715008	-0.327081692623	-0.83544921875	-0.40380859375	0.42626953125	-114.3125	-17.4375	210.5625
18	11	28	12	34	11	-0.367234363752	0.517191955864	-0.341966784129	-0.76171875	-0.24365234375	0.32080078125	-21.125	-1.8125	201.3125
18	11	28	12	34	11	-0.347407908442	0.504022225565	-0.36486375205	-0.65771484375	-0.0869140625	0.21923828125	44.5625	11.375	193.0
18	11	28	12	34	11	-0.330801863355	0.489733238295	-0.390736813505	-0.57080078125	0.08544921875	0.11767578125	76.1875	16.5	180.5
18	11	28	12	34	11	-0.315122505491	0.475888083539	-0.414426072494	-0.51171875	0.25	0.06103515625	70.375	14.1875	165.5
18	11	28	12	34	11	-0.299492905744	0.463795922304	-0.432241442526	-0.4951171875	0.33251953125	0.041015625	40.625	8.0	145.8125
18	11	28	12	34	11	-0.283074512957	0.45525070982	-0.44206742073	-0.52783203125	0.31640625	0.0126953125	-4.9375	4.375	123.3125
18	11	28	12	34	11	-0.263850400596	0.448844748087	-0.443900986244	-0.5546875	0.23974609375	0.05224609375	-58.5	-1.9375	117.0
18	11	28	12	34	11	-0.240655785315	0.44408102814	-0.438771098309	-0.4951171875	0.1796875	0.14990234375	-108.8125	-4.0625	117.875
18	11	28	12	34	11	-0.215317159677	0.44070442461	-0.432831433227	-0.37109375	0.05908203125	0.2255859375	-116.875	9.375	121.5
18	11	28	12	34	11	-0.19042258639	0.439558803583	-0.430709035946	-0.2939453125	0.04052734375	0.21484375	-89.875	34.5625	117.75
18	11	28	12	34	11	-0.166799678373	0.441442397978	-0.432409704089	-0.2734375	0.09228515625	0.11181640625	-62.1875	60.125	108.0625
18	11	28	12	34	11	-0.143607864536	0.446386706848	-0.434241375338	-0.29052734375	0.15576171875	0.044921875	-58.0625	77.0625	97.125
18	11	28	12	34	11	-0.120235557889	0.452866923624	-0.434923139858	-0.28857421875	0.2490234375	0.02978515625	-64.4375	85.1875	86.0
18	11	28	12	34	11	-0.0994212623987	0.461463575811	-0.43558597283	-0.396484375	0.5439453125	0.02783203125	-57.125	92.4375	56.25
18	11	28	12	34	11	-0.0881306915263	0.475624985502	-0.435709838509	-0.7001953125	0.91455078125	-0.18798828125	-37.75	91.125	-12.1875
18	11	28	12	34	11	-0.0898417914345	0.496205002963	-0.424185088634	-1.26025390625	0.9453125	-0.359375	-63.5625	64.0625	-99.25
18	11	28	12	34	11	-0.0949715308356	0.509403853698	-0.396365759156	-1.86376953125	0.626953125	-0.33447265625	-130.9375	3.75	-123.4375
18	11	28	12	34	11	-0.099909500451	0.519077765019	-0.372234601864	-1.91796875	0.5517578125	0.04638671875	-108.625	-2.25	-103.875
18	11	28	12	34	11	-0.115168888665	0.528544025353	-0.362595849264	-1.96630859375	0.0576171875	0.05419921875	6.625	9.9375	-103.9375
18	11	28	12	34	11	-0.138424638315	0.536487024158	-0.365836544119	-1.9638671875	-0.04443359375	0.20068359375	103.875	19.625	-100.9375
18	11	28	12	34	11	-0.169065737418	0.543573811353	-0.377437732923	-1.82421875	-0.0087890625	0.29833984375	176.8125	29.125	-112.6875
18	11	28	12	34	12	-0.203004007345	0.548831038499	-0.392152960671	-1.7060546875	0.22314453125	0.3017578125	208.375	29.1875	-121.3125
18	11	28	12	34	12	-0.233028514167	0.553641082245	-0.400384246448	-1.5263671875	0.4599609375	0.29296875	163.375	20.625	-127.625
18	11	28	12	34	12	-0.254448390949	0.559371432729	-0.398121097184	-1.3203125	0.51416015625	0.27685546875	77.125	8.5	-122.5
18	11	28	12	34	12	-0.268430298742	0.565852046302	-0.38805817176	-1.16650390625	0.3974609375	0.25927734375	7.9375	-2.1875	-111.0625
18	11	28	12	34	12	-0.278190494615	0.570784884958	-0.37437922202	-1.0361328125	0.27392578125	0.25634765625	-25.6875	-9.625	-98.9375
18	11	28	12	34	12	-0.28508700227	0.574812542791	-0.36125668303	-0.8681640625	0.2578125	0.24462890625	-34.875	-11.0625	-85.125
18	11	28	12	34	12	-0.289663101707	0.578166574478	-0.350391038116	-0.73974609375	0.3212890625	0.1923828125	-34.4375	-8.4375	-74.3125
18	11	28	12	34	12	-0.291140959388	0.581915703733	-0.339298237576	-0.64599609375	0.37060546875	0.13330078125	-49.3125	-8.0	-67.25
18	11	28	12	34	12	-0.288875030265	0.586783127185	-0.325373502291	-0.564453125	0.3720703125	0.08935546875	-78.75	-9.9375	-62.6875
18	11	28	12	34	12	-0.285643956101	0.593504664343	-0.306334832408	-0.50732421875	0.306640625	0.0810546875	-105.0625	-13.25	-61.0625
18	11	28	12	34	12	-0.281670602499	0.600144536159	-0.2856988278	-0.47314453125	0.25	0.07958984375	-114.4375	-16.625	-62.3125
18	11	28	12	34	12	-0.278679411601	0.605941567757	-0.265129952693	-0.45361328125	0.19970703125	0.05859375	-108.75	-20.3125	-64.625
18	11	28	12	34	12	-0.276613889363	0.609807892459	-0.247316743093	-0.45361328125	0.15966796875	0.01171875	-91.875	-27.125	-64.0
18	11	28	12	34	12	-0.278020807279	0.611035412002	-0.23328112523	-0.49462890625	0.1357421875	-0.041015625	-59.3125	-38.375	-61.1875
18	11	28	12	34	12	-0.284717637084	0.608496214733	-0.224234211929	-0.55078125	0.11328125	-0.0849609375	-13.1875	-54.125	-60.25
18	11	28	12	34	12	-0.2966211836	0.601787010349	-0.220512826409	-0.59130859375	0.13623046875	-0.072265625	32.9375	-67.8125	-60.5
18	11	28	12	34	12	-0.3132251122	0.592271334527	-0.221918649252	-0.61865234375	0.162109375	-0.04443359375	76.5	-70.25	-63.5
18	11	28	12	34	12	-0.33568542926	0.580247522905	-0.226251979321	-0.708984375	0.09619140625	-0.013671875	117.375	-66.5625	-66.75
18	11	28	12	34	12	-0.361927658755	0.565840020964	-0.236870361489	-0.9130859375	0.09521484375	-0.01611328125	163.8125	-60.375	-64.5
18	11	28	12	34	12	-0.39032133499	0.549867850966	-0.253052737274	-1.27587890625	0.0693359375	0.0166015625	201.0625	-48.125	-60.1875
18	11	28	12	34	12	-0.416971444718	0.534153115365	-0.274278347857	-1.767578125	-0.123046875	0.1279296875	220.4375	-24.375	-42.25
18	11	28	12	34	12	-0.439506365093	0.516409298022	-0.303095210256	-1.59619140625	-0.22216796875	0.31884765625	245.375	0.875	-0.625
18	11	28	12	34	12	-0.456905624002	0.498897484717	-0.339291793191	-1.7158203125	-0.208984375	0.501953125	263.0	40.6875	33.875
18	11	28	12	34	12	-0.466298843518	0.48412073649	-0.377372480297	-1.998046875	0.21533203125	0.6533203125	240.25	76.3125	56.5
18	11	28	12	34	12	-0.466911898258	0.479545984917	-0.403375259554	-2.2265625	0.79443359375	0.59814453125	137.0625	87.625	45.0625
18	11	28	12	34	12	-0.445857290346	0.484248013909	-0.407100359563	-2.0029296875	0.9150390625	0.5791015625	-89.0625	61.0625	46.6875
18	11	28	12	34	12	-0.408789634599	0.505646778539	-0.381203352897	-1.58251953125	0.69970703125	0.4443359375	-309.625	33.1875	64.5
18	11	28	12	34	12	-0.35881776039	0.530200694762	-0.340202448786	-1.2958984375	0.2333984375	0.25732421875	-427.5	13.5	87.9375
18	11	28	12	34	12	-0.304619250469	0.549303396959	-0.297417272598	-1.173828125	-0.22802734375	0.25048828125	-431.5625	1.3125	114.875
18	11	28	12	34	12	-0.255496462541	0.557868530251	-0.267337435722	-0.98291015625	-0.345703125	0.34521484375	-333.25	-6.5	142.6875
18	11	28	12	34	12	-0.213797974852	0.558877549449	-0.25554442498	-0.818359375	-0.19677734375	0.35107421875	-208.5	0.9375	167.625
18	11	28	12	34	12	-0.178585292663	0.557300856905	-0.257502170111	-0.81005859375	-0.02490234375	0.2548828125	-115.75	17.5	176.625
18	11	28	12	34	12	-0.148742267127	0.554747011046	-0.266783935007	-0.70556640625	0.10302734375	0.15966796875	-58.75	25.75	171.375
18	11	28	12	34	12	-0.1229212948	0.55210825857	-0.277274797555	-0.583984375	0.25439453125	0.0751953125	-38.1875	26.8125	153.125
18	11	28	12	34	12	-0.0989996651559	0.54944203806	-0.283937387365	-0.4873046875	0.33251953125	0.052734375	-49.8125	20.5625	131.5
18	11	28	12	34	12	-0.0763527458289	0.546126594466	-0.284293437307	-0.40966796875	0.34033203125	0.052734375	-76.5625	6.5	107.75
18	11	28	12	34	12	-0.0552963890166	0.542221986781	-0.278312951342	-0.3466796875	0.31787109375	0.06298828125	-102.875	-7.3125	82.5
18	11	28	12	34	12	-0.0360111259981	0.538335815769	-0.268374442396	-0.341796875	0.3056640625	0.07275390625	-116.4375	-12.8125	62.5
18	11	28	12	34	12	-0.0189821373925	0.535223031495	-0.256777659197	-0.40185546875	0.3046875	0.0712890625	-115.8125	-11.5625	46.25
18	11	28	12	34	12	-0.00476043989412	0.53310823686	-0.24546781095	-0.4775390625	0.29150390625	0.0693359375	-104.3125	-7.3125	33.5
18	11	28	12	34	12	0.00640843503621	0.533242827728	-0.236440736479	-0.599609375	0.2919921875	0.0517578125	-84.75	-2.0	23.0
18	11	28	12	34	12	0.0131833005814	0.535693653719	-0.230280523582	-0.78662109375	0.35107421875	0.01611328125	-56.875	3.875	9.6875
18	11	28	12	34	12	0.0114132674574	0.542832089659	-0.228265349148	-1.19873046875	0.490234375	-0.1162109375	-11.5625	10.5	-21.4375
18	11	28	12	34	12	-0.00305170406847	0.556203583519	-0.224666453521	-2.02783203125	0.26220703125	-0.24462890625	27.5625	11.625	-60.375
18	11	28	12	34	12	-0.0154417290042	0.566156040485	-0.223081104784	-1.9130859375	-0.16357421875	-0.1455078125	39.9375	6.0	-18.6875
18	11	28	12	34	12	-0.0277703089193	0.573472137594	-0.228876172412	-1.4853515625	-0.1103515625	0.17041015625	81.125	27.0625	-5.5625
18	11	28	12	34	12	-0.040160908247	0.582150065136	-0.244688573195	-1.4296875	-0.04736328125	0.03564453125	126.5	59.1875	-8.1875
18	11	28	12	34	12	-0.0502926681401	0.593990590218	-0.253111280069	-1.48876953125	-0.02294921875	-0.03759765625	85.375	61.0	-0.75
18	11	28	12	34	12	-0.0515120563164	0.603191531487	-0.253287954636	-1.3740234375	0.1240234375	0.00341796875	12.3125	49.8125	2.75
18	11	28	12	34	12	-0.0422366740469	0.611760381463	-0.24286087577	-1.28125	0.21142578125	-0.001953125	-77.625	45.3125	5.0625
18	11	28	12	34	13	-0.0184933119123	0.618701989622	-0.219417347607	-1.12646484375	0.22216796875	-0.017578125	-190.1875	45.8125	13.625
18	11	28	12	34	13	0.0164181428127	0.624988038669	-0.185970561897	-0.96875	0.11962890625	-0.04345703125	-274.4375	50.8125	28.25
18	11	28	12	34	13	0.0568238695462	0.62951814232	-0.149963745945	-0.91943359375	-0.0615234375	0.0068359375	-303.3125	55.625	47.0625
18	11	28	12	34	13	0.0969227380749	0.632011934991	-0.11883411274	-0.8857421875	-0.12646484375	0.12939453125	-278.375	57.4375	67.375
18	11	28	12	34	13	0.133605690502	0.633970903266	-0.0968015647039	-0.787109375	-0.02001953125	0.22607421875	-223.5625	62.1875	85.125
18	11	28	12	34	13	0.165279133622	0.637008241362	-0.0830668023852	-0.73095703125	0.11669921875	0.2314453125	-167.375	69.0	93.5
18	11	28	12	34	13	0.191954216688	0.640498426048	-0.0748896101354	-0.751953125	0.23876953125	0.16455078125	-124.875	66.8125	92.0
18	11	28	12	34	13	0.214723280706	0.642460845002	-0.0697637037656	-0.76953125	0.3359375	0.068359375	-100.5625	50.25	84.6875
18	11	28	12	34	13	0.23529319115	0.642524364004	-0.0651862848634	-0.73974609375	0.3642578125	0.009765625	-96.25	28.0	74.4375
18	11	28	12	34	13	0.252559967182	0.640616098488	-0.0600577592332	-0.7421875	0.326171875	0.01171875	-89.875	10.9375	59.625
18	11	28	12	34	13	0.263925147232	0.63906019693	-0.0549945785514	-0.7998046875	0.26416015625	0.02734375	-66.4375	4.8125	39.1875
18	11	28	12	34	13	0.268740785385	0.639472452528	-0.050903887125	-0.88623046875	0.22802734375	0.0517578125	-34.5625	8.375	19.3125
18	11	28	12	34	13	0.267826036571	0.642343028458	-0.0478522362515	-0.97900390625	0.22998046875	0.0556640625	-5.1875	15.625	0.9375
18	11	28	12	34	13	0.262460817973	0.646691248006	-0.0451676756512	-1.052734375	0.244140625	0.04150390625	14.1875	17.5625	-15.875
18	11	28	12	34	13	0.255249138018	0.650451952143	-0.0414428896974	-1.0947265625	0.234375	0.04345703125	15.75	12.5	-28.3125
18	11	28	12	34	13	0.249018853937	0.652270708829	-0.0358880113027	-1.0517578125	0.2314453125	0.087890625	3.0	5.625	-35.125
18	11	28	12	34	13	0.243652530731	0.652588391428	-0.028076193421	-1.0126953125	0.2275390625	0.12255859375	-11.0625	2.0	-43.1875
18	11	28	12	34	13	0.238639987649	0.652079188757	-0.0175775745378	-1.02197265625	0.203125	0.1337890625	-24.5	0.4375	-52.375
18	11	28	12	34	13	0.234128754336	0.650812019677	-0.00469966477681	-1.0546875	0.16259765625	0.14794921875	-36.9375	-0.1875	-58.25
18	11	28	12	34	13	0.22992213638	0.649055481354	0.00915538106104	-1.06884765625	0.13330078125	0.17919921875	-41.9375	0.5625	-60.3125
18	11	28	12	34	13	0.224795710038	0.647592311567	0.0222781520944	-1.08642578125	0.10205078125	0.1875	-35.0625	2.0625	-60.625
18	11	28	12	34	13	0.217829891091	0.646775947293	0.0333855282787	-1.1171875	0.04931640625	0.18701171875	-18.5	2.9375	-58.3125
18	11	28	12	34	13	0.209050516639	0.646927423607	0.0408945536199	-1.15185546875	0.05712890625	0.1884765625	3.625	3.75	-53.9375
18	11	28	12	34	13	0.198299764349	0.648121021121	0.0452262620445	-1.197265625	0.07275390625	0.18701171875	25.3125	6.3125	-52.0625
18	11	28	12	34	13	0.186774691321	0.650171245736	0.0473040476385	-1.14453125	0.12158203125	0.18603515625	37.625	10.4375	-51.0
18	11	28	12	34	13	0.175595719632	0.652090604293	0.0481560732673	-1.005859375	0.1201171875	0.20703125	41.4375	12.125	-47.9375
18	11	28	12	34	13	0.165522311602	0.653239417799	0.0479111410794	-0.896484375	0.1005859375	0.24560546875	41.75	10.5	-40.5625
18	11	28	12	34	13	0.157287671778	0.653992007412	0.0462036350547	-0.84716796875	0.12353515625	0.26513671875	40.4375	9.1875	-29.5
18	11	28	12	34	13	0.1522847234	0.654610684754	0.0442510719298	-0.8515625	0.16650390625	0.23828125	28.5625	7.8125	-17.875
18	11	28	12	34	13	0.151609465461	0.65465504289	0.0441889102231	-0.91015625	0.18115234375	0.20068359375	2.8125	4.9375	-6.5625
18	11	28	12	34	13	0.155395015177	0.654050660892	0.0469358863593	-1.00341796875	0.1494140625	0.158203125	-26.5	1.1875	5.0625
18	11	28	12	34	13	0.161433893181	0.65287650486	0.0515733987666	-1.09619140625	0.03076171875	0.1376953125	-42.3125	-1.5625	16.4375
18	11	28	12	34	13	0.166814352478	0.65187606457	0.0551164874819	-1.14404296875	-0.07958984375	0.15478515625	-34.25	-1.375	26.125
18	11	28	12	34	13	0.170165240666	0.651669395476	0.0541989719194	-1.0966796875	-0.10107421875	0.1904296875	-5.875	1.1875	36.1875
18	11	28	12	34	13	0.172239854188	0.652704819519	0.048156358949	-1.021484375	-0.0322265625	0.19482421875	20.8125	4.625	45.6875
18	11	28	12	34	13	0.174256258167	0.654483312196	0.0390626988534	-0.9716796875	0.041015625	0.18994140625	34.0	6.75	53.1875
18	11	28	12	34	13	0.177554391894	0.655956359465	0.028992209058	-0.9384765625	0.12060546875	0.20068359375	32.375	6.1875	58.0625
18	11	28	12	34	13	0.183041824724	0.656789955272	0.0198361430595	-0.91357421875	0.18798828125	0.20556640625	19.75	5.375	60.0625
18	11	28	12	34	13	0.190251367869	0.657059985598	0.0125735584796	-0.88671875	0.20947265625	0.1943359375	4.5	4.625	59.8125
18	11	28	12	34	13	0.199099757414	0.656626361207	0.00701915147228	-0.8369140625	0.2392578125	0.20068359375	-9.8125	3.875	58.625
18	11	28	12	34	13	0.208797663923	0.655628326763	0.00311273921662	-0.78564453125	0.263671875	0.2080078125	-20.0625	4.125	54.3125
18	11	28	12	34	13	0.218447869411	0.654489104134	0.000671396078101	-0.7412109375	0.29345703125	0.21533203125	-26.3125	5.625	46.5
18	11	28	12	34	13	0.227351824369	0.653369471105	-0.000122068093621	-0.70947265625	0.3251953125	0.22314453125	-30.125	8.4375	35.125
18	11	28	12	34	13	0.23511001748	0.652350951928	0.000976573281329	-0.69189453125	0.34765625	0.22509765625	-33.9375	10.875	21.875
18	11	28	12	34	13	0.242062856094	0.651360262289	0.00427241551351	-0.67578125	0.38525390625	0.2197265625	-40.3125	12.5625	7.5
18	11	28	12	34	13	0.24878879501	0.649927156346	0.0104984476795	-0.65234375	0.40673828125	0.21875	-52.5	13.75	-6.875
18	11	28	12	34	13	0.256102874022	0.64782552547	0.0203246561128	-0.6220703125	0.41357421875	0.21240234375	-70.75	15.0625	-19.5
18	11	28	12	34	13	0.264104853658	0.645033532115	0.0338752470026	-0.58984375	0.3876953125	0.1845703125	-90.375	16.0625	-30.0625
18	11	28	12	34	13	0.271241346886	0.641543158667	0.051208706129	-0.57177734375	0.302734375	0.1767578125	-103.1875	13.625	-37.0
18	11	28	12	34	13	0.278444745245	0.637212437605	0.0693365257778	-0.5380859375	0.259765625	0.17333984375	-107.5625	10.8125	-39.625
18	11	28	12	34	14	0.284727312108	0.632808739964	0.0870356156625	-0.52685546875	0.2509765625	0.17138671875	-102.75	10.75	-41.875
18	11	28	12	34	14	0.290770198615	0.628232085296	0.103209992833	-0.5478515625	0.24560546875	0.16064453125	-96.75	10.0	-43.5625
18	11	28	12	34	14	0.296633678362	0.623357974715	0.118653471345	-0.5712890625	0.29248046875	0.1630859375	-94.4375	7.0625	-45.25
18	11	28	12	34	14	0.302553545154	0.618046640757	0.134156282479	-0.60595703125	0.33154296875	0.15869140625	-96.5625	4.8125	-48.625
18	11	28	12	34	14	0.308585946802	0.611190599541	0.152339897788	-0.61572265625	0.29833984375	0.1806640625	-108.4375	1.0	-47.6875
18	11	28	12	34	14	0.316233166449	0.603229566497	0.170537631164	-0.6552734375	0.21826171875	0.24365234375	-116.0	-3.0625	-40.5625
18	11	28	12	34	14	0.320861491882	0.598204961372	0.18493633639	-1.06591796875	0.29736328125	0.12255859375	-89.0	-2.0625	-44.0625
18	11	28	12	34	14	0.322937920013	0.594362023264	0.199890698931	-1.7333984375	0.115234375	0.01318359375	-78.625	-9.625	-39.0625
18	11	28	12	34	14	0.328552257109	0.588378925977	0.213195807929	-1.7841796875	0.18359375	-0.013671875	-89.375	-30.0	-28.125
18	11	28	12	34	14	0.335335894366	0.581313989432	0.227728107368	-1.75244140625	0.0849609375	-0.01318359375	-98.5625	-31.875	-23.4375
18	11	28	12	34	14	0.342097871366	0.575127251006	0.242245575638	-1.87353515625	-0.10498046875	-0.00390625	-95.75	-25.4375	-8.5625
18	11	28	12	34	14	0.349318918045	0.570641720217	0.254649401727	-1.88720703125	-0.1533203125	0.06689453125	-85.6875	-14.5	7.4375
18	11	28	12	34	14	0.354986686202	0.56946798182	0.262699913585	-1.83935546875	-0.21142578125	0.1083984375	-56.9375	-1.3125	24.75
18	11	28	12	34	14	0.361516292276	0.569832197313	0.265201467152	-1.59033203125	-0.17822265625	0.15576171875	-34.0625	-1.125	45.3125
18	11	28	12	34	14	0.369624617048	0.571404502114	0.262997436403	-1.3564453125	-0.07080078125	0.18701171875	-20.0	-2.0	62.4375
18	11	28	12	34	14	0.379466560312	0.574235386749	0.258186191108	-1.20849609375	-0.009765625	0.17431640625	-15.0	-0.1875	79.0625
18	11	28	12	34	14	0.390804231447	0.577753061826	0.252560972939	-1.11376953125	0.0126953125	0.13037109375	-17.75	1.6875	92.0
18	11	28	12	34	14	0.404616730033	0.581075768579	0.245553342121	-1.0283203125	0.03857421875	0.1181640625	-23.5625	3.4375	102.0625
18	11	28	12	34	14	0.419446424124	0.584734683223	0.23834957599	-0.93212890625	0.09814453125	0.09814453125	-27.5	8.0	109.4375
18	11	28	12	34	14	0.435051909246	0.588430900259	0.231563824871	-0.8115234375	0.13037109375	0.07763671875	-33.625	12.0	113.875
18	11	28	12	34	14	0.452342700206	0.591017995694	0.225835648463	-0.6767578125	0.1630859375	0.0703125	-47.3125	12.9375	117.4375
18	11	28	12	34	14	0.471272896676	0.592066713866	0.221445158547	-0.55908203125	0.20654296875	0.080078125	-63.4375	12.875	118.875
18	11	28	12	34	14	0.490734763187	0.591628365618	0.218572286937	-0.51416015625	0.25830078125	0.072265625	-75.375	12.5	113.9375
18	11	28	12	34	14	0.509767863965	0.589174951012	0.217530252295	-0.54443359375	0.30078125	0.05712890625	-85.3125	8.4375	101.5625
18	11	28	12	34	14	0.528091388128	0.584794682114	0.218573192428	-0.63232421875	0.32080078125	0.02587890625	-97.5625	-1.125	84.6875
18	11	28	12	34	14	0.545610857864	0.576678754346	0.221320614232	-0.7431640625	0.32861328125	0.04345703125	-105.0	-11.8125	66.1875
18	11	28	12	34	14	0.556226442645	0.570936260782	0.226506784666	-0.99462890625	0.419921875	-0.02294921875	-86.125	-12.8125	31.3125
18	11	28	12	34	14	0.559467077215	0.563251384305	0.239204830417	-1.42724609375	0.2802734375	-0.060546875	-83.5	-15.0625	-19.625
18	11	28	12	34	14	0.562945069916	0.552568764822	0.253670141014	-1.40576171875	-0.04345703125	0.1484375	-86.4375	-11.1875	-15.75
18	11	28	12	34	14	0.561712826912	0.548529085674	0.262087892943	-1.20654296875	-0.24072265625	0.39208984375	-20.9375	15.0625	1.9375
18	11	28	12	34	14	0.552088592612	0.554224922158	0.26356202796	-1.13134765625	-0.21484375	0.56689453125	65.4375	43.8125	1.375
18	11	28	12	34	14	0.536688893655	0.571052119758	0.258792324474	-1.1279296875	0.02783203125	0.5595703125	120.875	66.375	-4.1875
18	11	28	12	34	14	0.522273568221	0.586726167034	0.255491078249	-1.09375	0.255859375	0.47216796875	106.4375	69.5	-7.375
18	11	28	12	34	14	0.516850053622	0.592412213091	0.257936741451	-1.1083984375	0.48388671875	0.34619140625	26.625	50.3125	-17.625
18	11	28	12	34	14	0.523428275974	0.586293379082	0.269282363992	-1.1484375	0.6005859375	0.1376953125	-88.5625	16.5625	-25.875
18	11	28	12	34	14	0.540361563475	0.565997151034	0.28937695385	-1.05810546875	0.294921875	0.00830078125	-191.1875	-16.1875	-28.125
18	11	28	12	34	14	0.55920993669	0.540471948198	0.311709795533	-0.9365234375	-0.12548828125	0.17041015625	-218.25	-25.8125	-32.375
18	11	28	12	34	14	0.569175683444	0.523214365521	0.327588835715	-0.75732421875	-0.28466796875	0.34130859375	-138.3125	-9.6875	-32.375
18	11	28	12	34	14	0.566116963271	0.518752352651	0.334543080937	-0.64990234375	-0.1923828125	0.34033203125	-12.625	16.25	-26.5625
18	11	28	12	34	14	0.554089310505	0.525524230386	0.333991706001	-0.70849609375	0.02734375	0.21826171875	74.4375	27.625	-34.3125
18	11	28	12	34	14	0.538659203949	0.535241083221	0.330336953175	-0.78955078125	0.24755859375	0.1396484375	103.625	23.6875	-46.125
18	11	28	12	34	14	0.525520733761	0.542488766744	0.326543080792	-0.818359375	0.39111328125	0.140625	85.8125	11.3125	-55.75
18	11	28	12	34	14	0.517098245555	0.543282753032	0.326055102426	-0.771484375	0.4404296875	0.2041015625	40.0	-2.0625	-65.6875
18	11	28	12	34	14	0.513005053902	0.538090726377	0.329958991243	-0.71630859375	0.423828125	0.26416015625	-6.3125	-9.6875	-74.125
18	11	28	12	34	14	0.511550643363	0.529312394613	0.338083643192	-0.73193359375	0.35595703125	0.29248046875	-41.875	-8.5	-77.125
18	11	28	12	34	14	0.511684164618	0.519191876922	0.348406681574	-0.7900390625	0.27099609375	0.3134765625	-60.4375	-3.375	-70.8125
18	11	28	12	34	14	0.51196690535	0.510074800669	0.358462283634	-0.81494140625	0.22802734375	0.3310546875	-59.4375	3.0	-62.0
18	11	28	12	34	14	0.512099928181	0.502761276332	0.368052749336	-0.88525390625	0.228515625	0.30126953125	-55.75	8.6875	-54.125
18	11	28	12	34	14	0.513859144033	0.495731555747	0.378054821017	-0.94970703125	0.21142578125	0.28271484375	-65.5625	11.75	-42.375
18	11	28	12	34	14	0.51862963937	0.487745021561	0.38904852552	-0.95166015625	0.16552734375	0.28173828125	-86.0625	12.75	-26.5625
18	11	28	12	34	15	0.526125270465	0.478700753626	0.40142991924	-0.896484375	0.07763671875	0.2939453125	-106.5625	12.625	-7.9375
18	11	28	12	34	15	0.535903959509	0.469739962686	0.41340290635	-0.91357421875	0.087890625	0.28955078125	-117.25	13.375	8.625
18	11	28	12	34	15	0.544688651168	0.462533684284	0.424813201718	-1.29931640625	0.162109375	0.087890625	-109.3125	17.0625	12.5625
18	11	28	12	34	15	0.555385368119	0.452963492341	0.437032556955	-1.6552734375	-0.0732421875	-0.072265625	-126.75	7.0625	18.875
18	11	28	12	34	15	0.569771200571	0.440924172783	0.447149846319	-1.54150390625	-0.208984375	0.0009765625	-140.0	-12.1875	35.375
18	11	28	12	34	15	0.582831061126	0.432682939818	0.452641653504	-1.38525390625	-0.21923828125	0.033203125	-107.0625	-14.25	49.125
18	11	28	12	34	15	0.591740383139	0.428592157855	0.457523044045	-1.29541015625	-0.2548828125	0.0146484375	-74.875	-9.625	62.8125
18	11	28	12	34	15	0.599390818428	0.428118859517	0.459492268954	-1.2734375	-0.26904296875	0.03271484375	-49.25	-5.4375	75.4375
18	11	28	12	34	15	0.60541819333	0.431953276963	0.458198848405	-1.2265625	-0.22705078125	0.06787109375	-19.3125	0.6875	85.625
18	11	28	12	34	15	0.610695858492	0.43923712121	0.454374809657	-1.150390625	-0.11962890625	0.0888671875	0.0625	6.875	93.0
18	11	28	12	34	15	0.616159338692	0.447699727519	0.449958062886	-1.07373046875	-0.0087890625	0.0830078125	0.6875	11.75	96.4375
18	11	28	12	34	15	0.623979195946	0.455151409975	0.444958264546	-0.98486328125	0.083984375	0.07861328125	-13.875	13.5	100.3125
18	11	28	12	34	15	0.633615339695	0.460211893006	0.441168642261	-0.91552734375	0.14306640625	0.08544921875	-35.5625	12.5	102.25
18	11	28	12	34	15	0.644959632554	0.462525229061	0.438782511444	-0.8525390625	0.15185546875	0.10009765625	-58.5	11.9375	103.0625
18	11	28	12	34	15	0.657327477751	0.462796632585	0.437770700198	-0.798828125	0.1416015625	0.11669921875	-76.375	15.0625	103.5625
18	11	28	12	34	15	0.66920144691	0.462166486319	0.437935095	-0.77587890625	0.15087890625	0.0927734375	-83.3125	20.0	100.125
18	11	28	12	34	15	0.678308825656	0.461198730015	0.440262895659	-0.7939453125	0.158203125	0.00048828125	-80.0625	20.9375	86.9375
18	11	28	12	34	15	0.685872513398	0.458082514288	0.443982972542	-0.845703125	0.109375	-0.0810546875	-80.625	12.5	68.1875
18	11	28	12	34	15	0.692686205537	0.452980642518	0.448158452684	-0.86669921875	0.0537109375	-0.1279296875	-81.125	1.5	54.625
18	11	28	12	34	15	0.69839473246	0.447346180231	0.451985054524	-0.8505859375	-0.0478515625	-0.138671875	-71.4375	-5.75	47.1875
18	11	28	12	34	15	0.70266340071	0.443193098728	0.454240881522	-0.7705078125	-0.17529296875	-0.103515625	-48.9375	-9.625	47.3125
18	11	28	12	34	15	0.704979367006	0.442824701959	0.453933467742	-0.666015625	-0.22998046875	-0.04833984375	-15.625	-9.75	51.25
18	11	28	12	34	15	0.704055889325	0.448007822076	0.450998609989	-0.59619140625	-0.18310546875	-0.0283203125	27.8125	-7.1875	49.0
18	11	28	12	34	15	0.699606673843	0.457472694159	0.446852247357	-0.6025390625	-0.07861328125	-0.0478515625	62.75	-4.5	38.125
18	11	28	12	34	15	0.69319273088	0.46802869247	0.442698501107	-0.65380859375	0.041015625	-0.08056640625	75.5	-5.8125	22.125
18	11	28	12	34	15	0.686917564779	0.476642905932	0.439226834561	-0.6982421875	0.14404296875	-0.10498046875	67.0	-11.25	5.9375
18	11	28	12	34	15	0.682030554361	0.481523093195	0.436904842323	-0.70166015625	0.20556640625	-0.1005859375	47.5625	-18.5	-10.0
18	11	28	12	34	15	0.678237112518	0.482920449446	0.435739268023	-0.67578125	0.23095703125	-0.052734375	32.125	-22.625	-26.625
18	11	28	12	34	15	0.673540338992	0.482678477639	0.4358633041	-0.6650390625	0.23974609375	-0.0087890625	32.125	-21.6875	-46.125
18	11	28	12	34	15	0.666894042137	0.481950883829	0.437027397191	-0.66162109375	0.228515625	0.06005859375	42.25	-17.0625	-64.625
18	11	28	12	34	15	0.657758542142	0.482087691707	0.43844465555	-0.6611328125	0.25341796875	0.12158203125	58.875	-10.3125	-80.8125
18	11	28	12	34	15	0.644902355945	0.482791750475	0.441226493576	-0.72314453125	0.33349609375	0.162109375	76.1875	-3.5625	-102.125
18	11	28	12	34	15	0.62856997252	0.482383811694	0.445944088098	-0.87939453125	0.44970703125	0.1572265625	85.6875	0.4375	-132.375
18	11	28	12	34	15	0.610440490875	0.478415415206	0.453267781746	-1.09716796875	0.52734375	0.162109375	76.25	0.0	-162.1875
18	11	28	12	34	15	0.592013528097	0.468410332469	0.464259706641	-1.3623046875	0.57080078125	0.1650390625	49.25	-4.5	-192.75
18	11	28	12	34	15	0.575894005093	0.451925724823	0.47890454308	-1.4404296875	0.3232421875	0.30224609375	4.625	-6.5	-202.375
18	11	28	12	34	15	0.5568450278	0.435563533748	0.495197162177	-1.8447265625	0.1162109375	0.48388671875	6.0	11.9375	-210.3125
18	11	28	12	34	15	0.53595913208	0.422981071099	0.511056350405	-2.31396484375	-0.35791015625	0.6396484375	14.8125	36.6875	-187.4375
18	11	28	12	34	15	0.519615066141	0.415423486451	0.5238877144	-1.939453125	-0.40576171875	0.8515625	5.875	51.8125	-129.6875
18	11	28	12	34	15	0.510881639873	0.408155976802	0.530352517187	-1.81591796875	-0.09912109375	0.69921875	-4.25	41.3125	-99.625
18	11	28	12	34	15	0.513364282868	0.394590427861	0.543576543006	-1.42236328125	0.1171875	0.46240234375	-104.6875	7.3125	-55.25
18	11	28	12	34	15	0.527413848717	0.370367692861	0.56287588391	-1.08056640625	0.0341796875	0.40673828125	-215.3125	-18.625	-31.75
18	11	28	12	34	15	0.543166713892	0.342904888038	0.583451019002	-0.9326171875	-0.271484375	0.32421875	-244.5625	-22.375	-22.3125
18	11	28	12	34	15	0.556584970448	0.321292168488	0.598333420913	-0.83203125	-0.42138671875	0.3271484375	-198.5	-19.5	-2.0625
18	11	28	12	34	15	0.566187145214	0.310438531755	0.60445788045	-0.7021484375	-0.3935546875	0.3017578125	-110.5	-17.0	20.0625
18	11	28	12	34	15	0.5730860829	0.309829050676	0.601590843866	-0.634765625	-0.2060546875	0.23486328125	-23.875	-14.8125	40.375
18	11	28	12	34	15	0.57843771349	0.316593481046	0.593940845201	-0.6015625	0.0029296875	0.15771484375	26.0625	-16.3125	47.5625
18	11	28	12	34	15	0.583817742385	0.325387599023	0.58479433244	-0.5703125	0.158203125	0.1025390625	37.0625	-20.375	47.75
18	11	28	12	34	16	0.590102168768	0.332344467206	0.576429962955	-0.5498046875	0.22998046875	0.1025390625	22.75	-23.25	42.625
18	11	28	12	34	16	0.597026386385	0.33626606304	0.570108010309	-0.544921875	0.2421875	0.11865234375	0.4375	-23.1875	35.25
18	11	28	12	34	16	0.604680781481	0.33710022773	0.565556891209	-0.56982421875	0.189453125	0.1435546875	-19.4375	-24.0	32.0
18	11	28	12	34	16	0.613360047427	0.336435524074	0.561051403717	-0.5625	0.12060546875	0.1826171875	-28.125	-27.75	36.8125
18	11	28	12	34	16	0.622357877148	0.336327177627	0.555519717529	-0.5498046875	0.08154296875	0.236328125	-23.5	-27.8125	44.3125
18	11	28	12	34	16	0.63099042828	0.338749939733	0.548530758266	-0.54443359375	0.08740234375	0.24609375	-10.0	-25.25	54.3125
18	11	28	12	34	16	0.638579334574	0.343704858821	0.541040644395	-0.5625	0.14306640625	0.22119140625	1.75	-19.625	58.8125
18	11	28	12	34	16	0.645398233827	0.349555105459	0.534556244738	-0.646484375	0.193359375	0.16845703125	0.0	-13.75	59.1875
18	11	28	12	34	16	0.652480513934	0.353950841937	0.530285379332	-0.75341796875	0.21923828125	0.109375	-19.0	-10.875	60.1875
18	11	28	12	34	16	0.660736818773	0.355119335947	0.528284264802	-0.8154296875	0.201171875	0.05908203125	-45.875	-12.375	60.1875
18	11	28	12	34	16	0.670491030268	0.351511865572	0.52839698216	-0.861328125	0.0595703125	0.046875	-75.5	-18.5	62.125
18	11	28	12	34	16	0.68117642454	0.345471197392	0.528949363357	-0.9501953125	-0.01416015625	0.09375	-88.4375	-21.8125	65.375
18	11	28	12	34	16	0.688390876366	0.338396791858	0.532193655882	-1.31787109375	-0.15869140625	0.0048828125	-81.8125	-19.625	52.0625
18	11	28	12	34	16	0.693821600543	0.328385696395	0.537075416836	-1.75830078125	-0.63232421875	0.02880859375	-76.5625	-24.3125	59.5625
18	11	28	12	34	16	0.698749469933	0.32654696577	0.536025318392	-1.6806640625	-0.72265625	0.10546875	-22.9375	-28.6875	92.9375
18	11	28	12	34	16	0.697958890599	0.334483141275	0.53230428377	-1.751953125	-0.59228515625	0.05908203125	49.3125	-18.75	84.6875
18	11	28	12	34	16	0.694619574696	0.353230534162	0.522490646696	-2.07666015625	-0.47705078125	-0.01708984375	111.5	-6.0625	69.625
18	11	28	12	34	16	0.688577576701	0.373251651585	0.51260300409	-2.20947265625	-0.37158203125	-0.0380859375	130.0625	-1.75	57.0
18	11	28	12	34	16	0.684170393196	0.391495129089	0.503560152009	-1.81884765625	-0.08837890625	0.12841796875	105.875	6.1875	63.5625
18	11	28	12	34	16	0.679635816262	0.406621805832	0.49707715201	-1.45556640625	0.13330078125	0.23486328125	86.9375	14.3125	57.6875
18	11	28	12	34	16	0.677329693443	0.418043711849	0.491715599745	-1.1298828125	0.2099609375	0.244140625	58.0625	15.25	48.8125
18	11	28	12	34	16	0.677452360933	0.424819211829	0.487687572201	-0.9111328125	0.27294921875	0.240234375	26.875	10.125	35.9375
18	11	28	12	34	16	0.678932111314	0.427453166909	0.48550085529	-0.73046875	0.29541015625	0.234375	3.1875	7.375	20.375
18	11	28	12	34	16	0.680392305749	0.427389156262	0.48555851729	-0.56982421875	0.29833984375	0.19775390625	-11.9375	9.5625	3.625
18	11	28	12	34	16	0.681053870362	0.425368741939	0.487870907493	-0.45263671875	0.29150390625	0.12353515625	-21.125	11.4375	-13.5
18	11	28	12	34	16	0.68070573628	0.421717712694	0.491973478696	-0.37939453125	0.25439453125	0.0693359375	-25.1875	11.75	-29.3125
18	11	28	12	34	16	0.679162444938	0.417373308033	0.497027032365	-0.32666015625	0.21240234375	0.048828125	-21.625	12.6875	-40.8125
18	11	28	12	34	16	0.676339920347	0.413213722656	0.50250939123	-0.2880859375	0.18603515625	0.033203125	-14.0	14.0	-48.875
18	11	28	12	34	16	0.67244270243	0.409312949305	0.508070532362	-0.2783203125	0.16455078125	0.0107421875	-6.875	13.375	-55.5
18	11	28	12	34	16	0.668062125681	0.405048905072	0.513635704669	-0.31689453125	0.15966796875	-0.03271484375	-4.125	7.875	-61.0625
18	11	28	12	34	16	0.663955457162	0.399789321972	0.518810570498	-0.38720703125	0.1611328125	-0.07763671875	-5.875	-1.75	-65.9375
18	11	28	12	34	16	0.660673016548	0.392595051962	0.523582144859	-0.4541015625	0.13525390625	-0.09130859375	-11.4375	-13.9375	-70.75
18	11	28	12	34	16	0.657788725537	0.383552412663	0.527659230979	-0.55615234375	0.08837890625	-0.06396484375	-11.375	-24.9375	-77.4375
18	11	28	12	34	16	0.65417941796	0.374209181892	0.530582354948	-0.67724609375	0.0263671875	-0.0185546875	0.25	-31.875	-83.6875
18	11	28	12	34	16	0.648957632117	0.366778255398	0.531581265812	-0.82373046875	-0.00732421875	0.04248046875	24.6875	-34.0625	-86.5
18	11	28	12	34	16	0.640228246126	0.363603743176	0.530176617967	-1.0712890625	0.03759765625	0.07421875	64.9375	-32.4375	-96.0
18	11	28	12	34	16	0.62690176194	0.362676493959	0.526863597417	-1.49755859375	0.0810546875	0.0634765625	105.8125	-28.3125	-119.25
18	11	28	12	34	16	0.610137102619	0.363909304303	0.522852583137	-1.794921875	-0.1015625	0.16162109375	129.25	-18.4375	-124.9375
18	11	28	12	34	16	0.589791322218	0.374395112334	0.51514423673	-1.7724609375	-0.3828125	0.43408203125	176.75	10.75	-92.375
18	11	28	12	34	16	0.559658849096	0.398762270819	0.501001181522	-2.02392578125	-0.32080078125	0.67626953125	274.9375	52.1875	-80.25
18	11	28	12	34	16	0.524108739308	0.43011462512	0.483581406957	-2.119140625	0.07958984375	0.6494140625	312.4375	83.25	-69.875
18	11	28	12	34	16	0.495796955919	0.452827479498	0.472481132066	-1.85400390625	0.5234375	0.62451171875	218.8125	81.1875	-63.25
18	11	28	12	34	16	0.488413096479	0.461373981041	0.465402381986	-1.48974609375	0.53564453125	0.5859375	71.9375	40.9375	-44.3125
18	11	28	12	34	16	0.497817814599	0.455152947948	0.467421385998	-1.03466796875	0.47705078125	0.5908203125	-70.0	2.625	-16.875
18	11	28	12	34	16	0.510206921982	0.441296332807	0.480543019113	-0.79248046875	0.2001953125	0.37548828125	-145.5	-8.25	-3.9375
18	11	28	12	34	16	0.524480781417	0.426701401476	0.49426805166	-0.79443359375	-0.12255859375	0.2568359375	-161.8125	-8.3125	12.4375
18	11	28	12	34	16	0.536829442862	0.417255948994	0.502526071982	-0.8125	-0.13330078125	0.2490234375	-119.1875	-7.3125	29.8125
18	11	28	12	34	16	0.545797309083	0.414932912899	0.503864547806	-0.791015625	-0.10791015625	0.2119140625	-57.625	-1.5625	47.125
18	11	28	12	34	16	0.551280494929	0.419380899098	0.499460616697	-0.6982421875	-0.07421875	0.21826171875	-0.75	3.25	57.875
18	11	28	12	34	16	0.554323522382	0.429323018766	0.49029738552	-0.6044921875	0.04052734375	0.22119140625	42.75	7.3125	63.9375
18	11	28	12	34	16	0.557025049213	0.44197001768	0.479263717556	-0.541015625	0.2177734375	0.20654296875	54.5	11.5625	65.9375
18	11	28	12	34	17	0.562063378774	0.452140895858	0.470878376289	-0.51416015625	0.33837890625	0.22265625	23.25	16.3125	62.8125
18	11	28	12	34	17	0.571477291235	0.456241883155	0.46735038118	-0.5302734375	0.376953125	0.244140625	-33.875	15.0	59.0
18	11	28	12	34	17	0.585099983308	0.453992663868	0.468519452521	-0.5322265625	0.34375	0.2587890625	-89.0	12.125	58.4375
18	11	28	12	34	17	0.600371836856	0.44625035576	0.474633123565	-0.548828125	0.2978515625	0.267578125	-131.0625	7.75	61.1875
18	11	28	12	34	17	0.617518612593	0.435259980864	0.481648648015	-0.58154296875	0.25830078125	0.23876953125	-154.0625	1.0625	62.375
18	11	28	12	34	17	0.635020329456	0.422553416073	0.488533517586	-0.6162109375	0.23095703125	0.18310546875	-163.0625	-4.0625	61.5
18	11	28	12	34	17	0.652293812674	0.408759395853	0.495125611342	-0.65625	0.2099609375	0.1259765625	-166.6875	-7.1875	61.5
18	11	28	12	34	17	0.668904145256	0.394481931817	0.501235590915	-0.708984375	0.16064453125	0.0595703125	-166.875	-9.4375	61.5
18	11	28	12	34	17	0.684591500738	0.380138718491	0.506485402382	-0.8212890625	0.08935546875	0.04150390625	-161.625	-11.375	61.6875
18	11	28	12	34	17	0.696447125496	0.367999975426	0.511440005656	-1.13818359375	0.2333984375	-0.08935546875	-135.8125	-7.5625	46.375
18	11	28	12	34	17	0.704983051911	0.353346050867	0.518208321275	-1.7646484375	0.0439453125	-0.31787109375	-126.9375	-12.5625	13.3125
18	11	28	12	34	17	0.71545867655	0.337709679009	0.522037029562	-1.986328125	-0.40234375	-0.2802734375	-127.625	-32.5	27.75
18	11	28	12	34	17	0.72108955576	0.326303095064	0.526809205668	-1.72900390625	-0.5302734375	-0.146484375	-85.375	-38.625	57.9375
18	11	28	12	34	17	0.720484378274	0.326000259604	0.528644120657	-1.75	-0.4794921875	-0.0576171875	-0.375	-21.3125	51.375
18	11	28	12	34	17	0.710844583245	0.337599295031	0.529867922647	-1.97412109375	-0.42529296875	-0.150390625	92.0625	-0.8125	33.25
18	11	28	12	34	17	0.703564929148	0.355169976812	0.523569008608	-1.7802734375	-0.28857421875	-0.041015625	120.5625	6.9375	31.8125
18	11	28	12	34	17	0.694007797335	0.373494609665	0.517362365014	-1.59423828125	-0.00830078125	0.05517578125	134.6875	13.125	15.0625
18	11	28	12	34	17	0.684639025917	0.388737269864	0.511968632378	-1.380859375	0.044921875	0.08984375	120.9375	11.3125	2.0625
18	11	28	12	34	17	0.67849089268	0.397597128007	0.50886816951	-1.16064453125	0.064453125	0.13330078125	75.125	3.8125	5.375
18	11	28	12	34	17	0.67640821492	0.401682229055	0.506787349619	-0.95068359375	0.10595703125	0.16259765625	32.4375	0.8125	8.375
18	11	28	12	34	17	0.675305383886	0.401923893067	0.507089400698	-0.8125	0.10205078125	0.22998046875	8.6875	8.1875	-4.25
18	11	28	12	34	17	0.6719072388	0.401020217925	0.510461504186	-0.744140625	0.09033203125	0.25146484375	7.0625	23.9375	-24.4375
18	11	28	12	34	17	0.665195557487	0.400960691607	0.516262068749	-0.75830078125	0.125	0.22021484375	17.375	39.1875	-43.75
18	11	28	12	34	17	0.656456237767	0.401808592582	0.522967647158	-0.763671875	0.20654296875	0.1513671875	24.9375	44.3125	-57.875
18	11	28	12	34	17	0.647747847207	0.401393690467	0.530125334809	-0.73681640625	0.24560546875	0.068359375	18.875	38.125	-67.75
18	11	28	12	34	17	0.640714726909	0.398028077944	0.537499655631	-0.7041015625	0.2431640625	0.0107421875	1.8125	25.3125	-73.3125
18	11	28	12	34	17	0.635889105391	0.391311677353	0.544882131295	-0.6669921875	0.18896484375	-0.001953125	-17.0625	12.125	-74.125
18	11	28	12	34	17	0.632391092884	0.382571891728	0.552068085622	-0.630859375	0.13037109375	-0.005859375	-27.25	3.4375	-73.0625
18	11	28	12	34	17	0.629061646045	0.373005600522	0.558928536079	-0.61083984375	0.04296875	-0.0107421875	-27.4375	-1.4375	-71.9375
18	11	28	12	34	17	0.625274789537	0.364214629946	0.564602870287	-0.611328125	-0.03173828125	-0.0078125	-16.4375	-4.9375	-68.5
18	11	28	12	34	17	0.62087424958	0.357130872423	0.568687119872	-0.626953125	-0.056640625	-0.001953125	-1.0625	-7.125	-64.875
18	11	28	12	34	17	0.615492056416	0.352241636015	0.571179558106	-0.63671875	-0.06201171875	0.0048828125	17.1875	-7.4375	-62.9375
18	11	28	12	34	17	0.608646773937	0.349672820686	0.572086463309	-0.671875	-0.05126953125	0.01318359375	38.5	-6.125	-64.25
18	11	28	12	34	17	0.600217689583	0.349364048726	0.571348158653	-0.73828125	-0.03662109375	0.02392578125	60.6875	-5.5	-67.125
18	11	28	12	34	17	0.590601520487	0.351455514155	0.568566883354	-0.8330078125	-0.00634765625	0.041015625	81.375	-5.8125	-68.0
18	11	28	12	34	17	0.580579959775	0.355416011961	0.5636728268	-0.92919921875	0.037109375	0.05322265625	96.9375	-8.6875	-66.75
18	11	28	12	34	17	0.570344016502	0.359333821184	0.557037617144	-0.99755859375	0.05078125	0.07861328125	106.9375	-14.4375	-61.6875
18	11	28	12	34	17	0.560622083805	0.364328058599	0.54835370723	-1.0537109375	0.10205078125	0.14306640625	114.5625	-18.75	-53.8125
18	11	28	12	34	17	0.549872340162	0.370060605884	0.538824843929	-1.27099609375	0.15966796875	0.162109375	123.25	-17.875	-56.0625
18	11	28	12	34	17	0.538645474675	0.375251260997	0.529917281714	-1.57470703125	0.1064453125	0.1806640625	118.125	-14.875	-58.25
18	11	28	12	34	17	0.529547867911	0.379887728201	0.521308015194	-1.564453125	-0.107421875	0.28125	102.125	-14.4375	-41.6875
18	11	28	12	34	17	0.521192336201	0.387521974767	0.511426465046	-1.4306640625	-0.1767578125	0.49072265625	107.0625	-2.75	-19.125
18	11	28	12	34	17	0.509664696582	0.400224121615	0.500448005662	-1.55029296875	0.068359375	0.56005859375	130.4375	21.3125	-14.9375
18	11	28	12	34	17	0.503623172848	0.41170019402	0.491476643773	-1.7578125	0.1640625	0.50927734375	83.125	30.8125	-11.75
18	11	28	12	34	17	0.507401038402	0.413831233052	0.489822366555	-1.6259765625	0.0771484375	0.59033203125	-14.0	20.3125	10.125
18	11	28	12	34	17	0.51887263348	0.410654638049	0.492138577079	-1.36474609375	0.0537109375	0.55322265625	-78.375	8.875	35.875
18	11	28	12	34	17	0.534141971716	0.404131412951	0.49892314899	-1.125	-0.0859375	0.44970703125	-122.125	-3.125	60.625
18	11	28	12	34	17	0.551712313488	0.397655240887	0.503798366582	-0.958984375	-0.25146484375	0.36962890625	-125.375	-12.1875	81.4375
18	11	28	12	34	17	0.567140561745	0.393861175736	0.503236540205	-0.83642578125	-0.333984375	0.3447265625	-80.9375	-15.1875	96.625
18	11	28	12	34	17	0.579106918125	0.400333292156	0.495915230793	-0.732421875	-0.25439453125	0.29736328125	-16.1875	-10.75	111.1875
18	11	28	12	34	17	0.587607999742	0.412979716033	0.48451566448	-0.642578125	-0.123046875	0.21826171875	30.625	-3.3125	118.5625
18	11	28	12	34	18	0.594690750158	0.427996668389	0.471394505129	-0.5693359375	0.02490234375	0.1494140625	47.75	0.0625	122.0
18	11	28	12	34	18	0.602248681999	0.44190538742	0.458812541054	-0.494140625	0.17138671875	0.10498046875	37.625	-0.25	120.4375
18	11	28	12	34	18	0.611345622821	0.451673083953	0.448926423308	-0.4619140625	0.27978515625	0.08251953125	7.25	-2.375	111.5
18	11	28	12	34	18	0.623445548584	0.456810895399	0.441612350108	-0.48095703125	0.3125	0.06982421875	-33.375	-8.3125	98.625
18	11	28	12	34	18	0.638207777043	0.455217444643	0.437455541131	-0.47998046875	0.275390625	0.10107421875	-74.0	-17.1875	87.4375
18	11	28	12	34	18	0.654270855735	0.448205139813	0.436119532067	-0.4736328125	0.21044921875	0.1494140625	-103.0625	-22.25	80.625
18	11	28	12	34	18	0.670259788598	0.439840819291	0.435140882699	-0.4580078125	0.1728515625	0.2109375	-108.375	-22.625	77.4375
18	11	28	12	34	18	0.68447436096	0.43257265883	0.433183033684	-0.47265625	0.17724609375	0.23486328125	-93.125	-17.8125	70.25
18	11	28	12	34	18	0.695203678117	0.427498381171	0.431526778252	-0.54345703125	0.18212890625	0.2333984375	-70.5625	-11.1875	59.0625
18	11	28	12	34	18	0.70313966486	0.42402007394	0.430367862581	-0.63134765625	0.16845703125	0.2275390625	-52.9375	-6.0	50.25
18	11	28	12	34	18	0.708887812758	0.422012255675	0.429641924746	-0.7216796875	0.205078125	0.23779296875	-38.75	-1.0	41.75
18	11	28	12	34	18	0.710770640459	0.422861227746	0.430307687011	-0.94384765625	0.4130859375	0.17333984375	-20.5625	6.0	19.0625
18	11	28	12	34	18	0.708274300485	0.419385790989	0.437757952696	-1.4453125	0.3291015625	-0.00830078125	-30.0	1.375	-24.75
18	11	28	12	34	18	0.708141862226	0.406806198219	0.4487990961	-1.82470703125	0.02392578125	0.03271484375	-71.0625	-15.875	-31.375
18	11	28	12	34	18	0.71152728629	0.394065382199	0.457179323524	-1.65576171875	-0.15283203125	0.1201171875	-80.0	-17.625	4.9375
18	11	28	12	34	18	0.710950619453	0.385932414732	0.464486110409	-1.6611328125	-0.22900390625	0.130859375	-39.125	-9.5625	-0.5625
18	11	28	12	34	18	0.70267492989	0.384603434089	0.471888454046	-1.97802734375	-0.2880859375	0.0537109375	24.875	-1.6875	-22.625
18	11	28	12	34	18	0.692049423941	0.386553977934	0.478233130762	-2.05810546875	-0.30029296875	0.06103515625	50.0625	4.25	-24.25
18	11	28	12	34	18	0.681661344168	0.390148577357	0.482253427675	-1.810546875	-0.275390625	0.19970703125	62.75	13.75	-21.8125
18	11	28	12	34	18	0.670784401092	0.396794303139	0.483526298949	-1.5029296875	-0.171875	0.29638671875	82.1875	23.0	-22.125
18	11	28	12	34	18	0.660829006701	0.404847030705	0.483033227951	-1.19189453125	-0.02001953125	0.30859375	83.0625	27.0625	-20.6875
18	11	28	12	34	18	0.652628351194	0.411890770095	0.482756979947	-0.98583984375	0.11279296875	0.31494140625	65.8125	31.0625	-21.5625
18	11	28	12	34	18	0.64572603466	0.416831750703	0.483851997046	-0.88720703125	0.21923828125	0.2998046875	44.6875	33.375	-29.25
18	11	28	12	34	18	0.63992088865	0.418841772025	0.486960019997	-0.79736328125	0.3037109375	0.2802734375	21.625	33.9375	-41.5625
18	11	28	12	34	18	0.635701021608	0.417676628983	0.492508069453	-0.69970703125	0.36083984375	0.2216796875	-7.125	33.6875	-49.9375
18	11	28	12	34	18	0.633616636778	0.412482538421	0.500557753416	-0.59814453125	0.3662109375	0.16552734375	-39.875	30.4375	-55.625
18	11	28	12	34	18	0.633314932381	0.403573470789	0.510509453974	-0.4990234375	0.3427734375	0.1455078125	-66.5	26.5625	-60.1875
18	11	28	12	34	18	0.633459780307	0.392173741421	0.52181997127	-0.41943359375	0.27685546875	0.13525390625	-81.1875	25.6875	-64.25
18	11	28	12	34	18	0.632780348205	0.380083266931	0.533593691908	-0.39013671875	0.185546875	0.1123046875	-80.0	25.6875	-66.3125
18	11	28	12	34	18	0.630818035336	0.36909111366	0.54396229617	-0.39501953125	0.0947265625	0.06884765625	-62.6875	19.875	-64.875
18	11	28	12	34	18	0.628194607169	0.360546593913	0.55110465489	-0.4130859375	0.05224609375	0.00048828125	-36.25	5.6875	-59.0625
18	11	28	12	34	18	0.626170955854	0.354254432964	0.554209209392	-0.42724609375	0.04931640625	-0.0673828125	-12.5	-14.875	-50.625
18	11	28	12	34	18	0.624950694036	0.349188682545	0.553782366148	-0.4619140625	0.03564453125	-0.10693359375	5.875	-35.1875	-45.625
18	11	28	12	34	18	0.623666407302	0.344853709264	0.550545213727	-0.51904296875	-0.00341796875	-0.10498046875	25.5625	-50.1875	-46.125
18	11	28	12	34	18	0.620814661034	0.342177464335	0.544578547414	-0.6240234375	-0.0712890625	-0.06591796875	54.375	-57.8125	-50.0625
18	11	28	12	34	18	0.615175189253	0.342652397308	0.535340964872	-0.78369140625	-0.16748046875	-0.0107421875	95.375	-60.875	-52.4375
18	11	28	12	34	18	0.606652468903	0.349318048046	0.519979110835	-0.99169921875	-0.16162109375	0.09326171875	152.5	-57.625	-52.1875
18	11	28	12	34	18	0.590893359996	0.363166562543	0.500803637926	-1.443359375	-0.046875	0.10400390625	218.1875	-41.6875	-64.875
18	11	28	12	34	18	0.569404861448	0.380925687672	0.480963694738	-1.916015625	-0.14404296875	0.1357421875	248.25	-20.0	-71.8125
18	11	28	12	34	18	0.550133978178	0.402300349514	0.458272041292	-1.580078125	-0.24365234375	0.38916015625	247.9375	-5.5	-26.625
18	11	28	12	34	18	0.525963608155	0.430988631447	0.431843162086	-1.705078125	0.02880859375	0.748046875	289.9375	28.25	-13.9375
18	11	28	12	34	18	0.495248296274	0.462044565294	0.409004046504	-2.17578125	0.662109375	0.77294921875	294.25	65.8125	-28.4375
18	11	28	12	34	18	0.478892050407	0.478403758742	0.400032946516	-1.83447265625	1.017578125	0.82666015625	131.4375	60.6875	-31.25
18	11	28	12	34	18	0.488213910227	0.477288758342	0.403315104236	-1.58154296875	0.9345703125	0.78857421875	-76.375	36.875	-23.625
18	11	28	12	34	18	0.508792599329	0.456912355875	0.427615277219	-1.23486328125	0.56005859375	0.59716796875	-242.875	3.75	-1.75
18	11	28	12	34	18	0.537301025377	0.427741177535	0.455390543035	-1.0546875	-0.0224609375	0.42529296875	-314.75	-20.1875	23.5625
18	11	28	12	34	18	0.560877094204	0.403460397506	0.475607173581	-1.0	-0.56005859375	0.37744140625	-254.4375	-21.125	39.625
18	11	28	12	34	18	0.574836834333	0.395635204942	0.481024537203	-0.91552734375	-0.56103515625	0.33251953125	-109.875	-11.0	62.5
18	11	28	12	34	18	0.580762490754	0.400216463675	0.47779388099	-0.9130859375	-0.326171875	0.1923828125	-3.125	1.875	81.0625
18	11	28	12	34	19	0.58320904879	0.411755964745	0.469191832344	-0.826171875	-0.20849609375	0.13818359375	50.8125	4.9375	85.4375
18	11	28	12	34	19	0.584548460162	0.426707558212	0.45649346701	-0.64208984375	-0.0517578125	0.1455078125	79.75	3.5625	86.25
18	11	28	12	34	19	0.586675257885	0.441715443332	0.442386836158	-0.49951171875	0.13427734375	0.17041015625	78.3125	2.625	82.5
18	11	28	12	34	19	0.591019568903	0.453259456643	0.430553758034	-0.4052734375	0.2666015625	0.185546875	46.8125	2.3125	73.4375
18	11	28	12	34	19	0.598401377443	0.458261683174	0.423837124129	-0.36474609375	0.3212890625	0.201171875	-4.3125	0.9375	58.1875
18	11	28	12	34	19	0.608897569356	0.456490068286	0.422614952909	-0.3603515625	0.330078125	0.232421875	-57.5	1.5	45.0
18	11	28	12	34	19	0.621906385647	0.449904011051	0.425245047483	-0.37890625	0.3046875	0.25244140625	-97.4375	2.4375	41.625
18	11	28	12	34	19	0.635346991757	0.440329829814	0.430685788629	-0.4140625	0.2841796875	0.27294921875	-117.875	-1.4375	44.75
18	11	28	12	34	19	0.649795982622	0.429331668398	0.435618441478	-0.43115234375	0.21875	0.28125	-125.625	-7.875	49.125
18	11	28	12	34	19	0.664152269435	0.419207589972	0.438251382643	-0.4541015625	0.150390625	0.2744140625	-115.0	-14.8125	56.9375
18	11	28	12	34	19	0.676931871051	0.41226310704	0.436862164212	-0.45751953125	0.0947265625	0.2568359375	-81.875	-18.6875	62.25
18	11	28	12	34	19	0.686128767489	0.410114686305	0.432942918584	-0.47314453125	0.03857421875	0.2099609375	-40.25	-18.5	64.375
18	11	28	12	34	19	0.692518811474	0.412483882244	0.427071577991	-0.51318359375	0.03759765625	0.17724609375	-7.0625	-16.375	67.625
18	11	28	12	34	19	0.695499297563	0.420473423512	0.419435820347	-0.669921875	0.2490234375	0.1357421875	27.0	-11.0	60.9375
18	11	28	12	34	19	0.690390494593	0.431715318562	0.415662564599	-1.22802734375	0.39794921875	-0.08740234375	58.1875	-9.0625	17.0625
18	11	28	12	34	19	0.686955649563	0.43121649615	0.412722710115	-2.408203125	-0.0166015625	-0.20751953125	35.5	-27.4375	-38.4375
18	11	28	12	34	19	0.684390925567	0.430117083071	0.414125785247	-2.00732421875	-0.33642578125	0.0283203125	15.1875	-40.625	29.4375
18	11	28	12	34	19	0.681347029925	0.431098635883	0.413092958751	-1.68017578125	-0.3837890625	0.2705078125	37.9375	-23.375	31.8125
18	11	28	12	34	19	0.671352399621	0.446612010913	0.405838903999	-1.986328125	-0.4375	0.24462890625	122.125	10.25	19.25
18	11	28	12	34	19	0.656398301293	0.467181755449	0.397782009441	-2.09130859375	-0.185546875	0.1806640625	159.3125	25.9375	10.8125
18	11	28	12	34	19	0.641430883831	0.483957129879	0.393501275864	-1.9384765625	0.1630859375	0.2138671875	132.0	35.1875	-11.0
18	11	28	12	34	19	0.628430737168	0.49354030116	0.394050975054	-1.6083984375	0.27685546875	0.345703125	89.0	35.1875	-29.1875
18	11	28	12	34	19	0.619592201895	0.49770020828	0.396499945179	-1.291015625	0.39306640625	0.3369140625	46.625	29.4375	-43.1875
18	11	28	12	34	19	0.614114347084	0.496675125954	0.402064526811	-1.09375	0.4658203125	0.212890625	3.0	19.5625	-58.625
18	11	28	12	34	19	0.610869935647	0.490502678143	0.410481646406	-0.990234375	0.384765625	0.1875	-28.8125	10.75	-70.25
18	11	28	12	34	19	0.60792024548	0.482002628369	0.419684699591	-0.8427734375	0.326171875	0.22265625	-36.5625	7.9375	-80.125
18	11	28	12	34	19	0.602561944469	0.474261173878	0.429215517981	-0.681640625	0.28125	0.25439453125	-23.75	16.875	-92.3125
18	11	28	12	34	19	0.592242840543	0.468947927846	0.43977220098	-0.62451171875	0.2314453125	0.2060546875	1.3125	25.75	-101.8125
18	11	28	12	34	19	0.580002401987	0.465002978146	0.448644249064	-0.60791015625	0.19775390625	0.11572265625	20.4375	22.4375	-105.3125
18	11	28	12	34	19	0.567951118374	0.460586688797	0.455276452655	-0.5771484375	0.1708984375	0.07666015625	28.6875	8.4375	-105.25
18	11	28	12	34	19	0.556786137264	0.454853134717	0.460041341434	-0.5595703125	0.13671875	0.0654296875	30.625	-7.0	-104.5625
18	11	28	12	34	19	0.54591353783	0.448193549674	0.463208613439	-0.56396484375	0.06591796875	0.0546875	34.9375	-19.0	-105.25
18	11	28	12	34	19	0.534622474461	0.441724266203	0.464124819706	-0.6015625	0.0068359375	0.02734375	47.75	-29.0	-103.75
18	11	28	12	34	19	0.522715395819	0.43647101769	0.463327016541	-0.65283203125	-0.03857421875	-0.015625	59.5625	-37.5625	-99.1875
18	11	28	12	34	19	0.511249989855	0.431779181977	0.460955100691	-0.66845703125	-0.10205078125	-0.017578125	65.5625	-41.75	-88.9375
