18	12	12	15	32	34	0.751555566776	-0.194953990115	0.435686155742	-1.04248046875	0.8779296875	0.986328125	90.625	91.3125	-162.875
18	12	12	15	32	34	0.756326177496	-0.218395211289	0.454003236883	-1.5380859375	0.8701171875	1.3896484375	41.0	178.8125	-226.0625
18	12	12	15	32	34	0.750213582983	-0.262705984961	0.479572705353	-2.3125	0.32080078125	1.39697265625	-20.25	290.375	-267.0625
18	12	12	15	32	34	0.730515300715	-0.304401721646	0.511385126119	-2.41015625	-0.802734375	0.943359375	-40.0	335.625	-183.5
18	12	12	15	32	35	0.709373142387	-0.337718258202	0.53370837696	-1.56005859375	-1.27001953125	0.1181640625	-64.0	254.6875	-93.125
18	12	12	15	32	35	0.696049757813	-0.359499568004	0.546451550483	-1.14794921875	-1.22314453125	0.13720703125	-36.9375	163.6875	-69.4375
18	12	12	15	32	35	0.687028454743	-0.376901271147	0.553053023136	-0.93798828125	-0.67626953125	0.04833984375	-34.5	110.3125	-69.9375
18	12	12	15	32	35	0.673124088305	-0.398759491195	0.553123910793	-1.07373046875	-0.10888671875	-0.3525390625	-125.0625	65.5	-35.75
18	12	12	15	32	35	0.651871786666	-0.430186549852	0.540968131575	-1.16455078125	-0.279296875	-0.2587890625	-270.75	7.875	7.25
18	12	12	15	32	35	0.63137453256	-0.455646837351	0.525474028501	-1.04931640625	-0.54638671875	0.04052734375	-269.25	-24.6875	40.3125
18	12	12	15	32	35	0.620809334472	-0.465896927542	0.515276020216	-0.9599609375	-0.6728515625	0.32763671875	-146.8125	-33.25	45.0625
18	12	12	15	32	35	0.621011362365	-0.461760463563	0.51193456813	-0.79833984375	-0.447265625	0.41796875	-24.4375	-20.5	56.625
18	12	12	15	32	35	0.623615577225	-0.449659974299	0.516800733323	-0.6220703125	-0.1884765625	0.43798828125	44.375	1.3125	61.625
18	12	12	15	32	35	0.625318367836	-0.436776792605	0.524180980281	-0.49755859375	0.0234375	0.359375	56.25	10.5	54.375
18	12	12	15	32	35	0.625409666154	-0.428618648813	0.526342724112	-0.3525390625	0.12109375	0.3642578125	11.4375	-2.75	40.1875
18	12	12	15	32	35	0.621303456997	-0.429217595992	0.519675570574	-0.31298828125	0.2705078125	0.4140625	-76.4375	-20.125	22.375
18	12	12	15	32	35	0.613371923315	-0.438070483992	0.505639666907	-0.353515625	0.02001953125	0.47802734375	-144.125	-48.375	27.8125
18	12	12	15	32	35	0.605355652899	-0.445990497654	0.488471596103	-0.28515625	-0.27099609375	0.62890625	-156.6875	-65.625	37.5625
18	12	12	15	32	35	0.598530794224	-0.448196167855	0.475846019964	-0.20654296875	-0.2900390625	0.658203125	-114.5625	-60.375	53.8125
18	12	12	15	32	35	0.596150875306	-0.442459065741	0.466996042487	-0.203125	-0.08740234375	0.5625	-59.625	-47.6875	63.125
18	12	12	15	32	35	0.592362972677	-0.435498177233	0.461805074835	-0.2978515625	0.1640625	0.41845703125	-46.4375	-42.4375	57.0625
18	12	12	15	32	35	0.585648680737	-0.431896828025	0.453503876798	-0.41015625	0.37060546875	0.4140625	-83.75	-45.125	43.875
18	12	12	15	32	35	0.574050137352	-0.441966724568	0.437266898882	-0.67822265625	0.64794921875	0.533203125	-160.5625	-34.0	17.25
18	12	12	15	32	35	0.558062175581	-0.468093494972	0.409742030479	-1.49169921875	0.9140625	0.4482421875	-255.75	-11.0625	-49.9375
18	12	12	15	32	35	0.542186117189	-0.507334347188	0.36249502983	-2.39404296875	0.8037109375	-0.0537109375	-350.75	-28.0625	-124.1875
18	12	12	15	32	35	0.522776542218	-0.542186109109	0.306768815083	-2.5810546875	-0.17578125	-0.36376953125	-384.125	-74.9375	-114.125
18	12	12	15	32	35	0.515814898229	-0.557868674691	0.264346742898	-2.3564453125	-1.2705078125	-0.11669921875	-231.6875	-100.125	-100.1875
18	12	12	15	32	35	0.536396125498	-0.54097392584	0.259103499401	-2.11474609375	-1.58251953125	-0.11181640625	98.5625	-103.375	-61.9375
18	12	12	15	32	35	0.57141697185	-0.500127180874	0.283267054727	-1.9208984375	-1.0517578125	-0.11376953125	335.1875	-106.0625	-0.25
18	12	12	15	32	35	0.602129189513	-0.446301939556	0.315621899541	-1.77099609375	-0.18310546875	-0.20361328125	382.0625	-129.125	61.375
18	12	12	15	32	35	0.617323490609	-0.397958192483	0.334175015927	-1.53271484375	0.212890625	0.044921875	250.625	-158.5	108.25
18	12	12	15	32	35	0.620626626354	-0.35871584216	0.339672224199	-1.328125	0.1943359375	0.2265625	128.625	-170.0	137.125
18	12	12	15	32	35	0.619530611549	-0.324841567947	0.338025667661	-1.091796875	0.142578125	0.33349609375	71.0625	-170.1875	138.375
18	12	12	15	32	35	0.615859880315	-0.296332975117	0.330513503658	-0.87158203125	0.13623046875	0.3583984375	24.875	-166.375	129.125
18	12	12	15	32	35	0.611416986382	-0.272351262178	0.319777737013	-0.71142578125	0.06689453125	0.33740234375	-0.4375	-156.1875	113.625
18	12	12	15	32	35	0.608070572612	-0.249649532421	0.31032230387	-0.6259765625	0.04541015625	0.3017578125	8.75	-143.0	97.0
18	12	12	15	32	35	0.605882968886	-0.22688565337	0.304467484264	-0.56689453125	0.05322265625	0.24755859375	31.125	-127.75	84.5625
18	12	12	15	32	35	0.604346493014	-0.20472458717	0.301227143019	-0.47998046875	0.064453125	0.205078125	45.1875	-113.5625	74.4375
18	12	12	15	32	35	0.603182773283	-0.184885713446	0.300675808661	-0.39404296875	0.05859375	0.20458984375	53.3125	-100.0	64.1875
18	12	12	15	32	35	0.603120105645	-0.166207473704	0.301224341803	-0.3349609375	0.05078125	0.2041015625	60.0	-88.375	51.125
18	12	12	15	32	35	0.604213010939	-0.148871152003	0.30256428884	-0.2841796875	0.0732421875	0.20361328125	62.1875	-78.0625	37.0
18	12	12	15	32	35	0.606226522606	-0.133672582008	0.304028826933	-0.234375	0.0830078125	0.20263671875	58.6875	-66.5625	22.5
18	12	12	15	32	35	0.609344135945	-0.121404937032	0.305679197918	-0.19482421875	0.1083984375	0.2099609375	52.125	-52.3125	5.5625
18	12	12	15	32	35	0.613554266145	-0.112371011139	0.307753741534	-0.17529296875	0.1357421875	0.22998046875	45.6875	-36.3125	-12.25
18	12	12	15	32	35	0.619048238808	-0.107243912008	0.310073462152	-0.1689453125	0.1474609375	0.2431640625	37.0	-19.75	-31.25
18	12	12	15	32	35	0.62588084668	-0.105778379881	0.311963819717	-0.1513671875	0.11279296875	0.2900390625	28.5625	-4.5625	-48.5625
18	12	12	15	32	35	0.633267198404	-0.108586250213	0.314100530408	-0.158203125	0.0966796875	0.35009765625	19.6875	15.375	-62.625
18	12	12	15	32	35	0.640958945331	-0.115300585442	0.318984044215	-0.2294921875	0.09765625	0.37744140625	20.9375	39.9375	-76.8125
18	12	12	15	32	35	0.649375154119	-0.125797743457	0.326244026578	-0.35986328125	0.11181640625	0.42626953125	22.25	60.1875	-94.0625
18	12	12	15	32	35	0.65768230338	-0.13971552598	0.33515856407	-0.4814453125	0.1640625	0.57080078125	17.8125	82.125	-108.5
18	12	12	15	32	35	0.666244815769	-0.157847832669	0.346581590832	-0.701171875	0.34228515625	0.71533203125	16.5625	110.0625	-130.125
18	12	12	15	32	35	0.677102724881	-0.181590246689	0.36159348618	-1.125	0.4921875	0.7548828125	23.6875	143.25	-176.875
18	12	12	15	32	35	0.688250386302	-0.211370263193	0.378244736069	-1.44873046875	0.34423828125	0.75830078125	20.5625	175.0625	-212.0
18	12	12	15	32	35	0.694857807254	-0.24329789351	0.398761951405	-1.6875	-0.08544921875	0.92236328125	28.75	212.5625	-200.9375
18	12	12	15	32	36	0.697360268304	-0.272046802261	0.427083570882	-1.7919921875	-0.28125	0.8994140625	71.875	250.9375	-186.3125
18	12	12	15	32	36	0.697999427609	-0.297424904752	0.45703215407	-1.88037109375	-0.255859375	0.6669921875	94.1875	256.375	-185.1875
18	12	12	15	32	36	0.694845571627	-0.324655972899	0.480361441383	-1.794921875	-0.29150390625	0.52294921875	50.4375	238.5	-174.75
18	12	12	15	32	36	0.687771580505	-0.3542621808	0.495686280199	-1.650390625	-0.5048828125	0.36181640625	-7.0625	208.5625	-153.125
18	12	12	15	32	36	0.678721058893	-0.383611677621	0.50336443999	-1.43603515625	-0.5947265625	0.20947265625	-52.4375	166.0625	-128.125
18	12	12	15	32	36	0.668036890237	-0.411076149451	0.506597184921	-1.3544921875	-0.48486328125	0.07763671875	-80.0625	132.1875	-102.6875
18	12	12	15	32	36	0.656648166492	-0.435934300528	0.505945031795	-1.24658203125	-0.4443359375	0.03125	-98.6875	91.75	-67.5625
18	12	12	15	32	36	0.645407304575	-0.454482957241	0.504045159938	-1.12890625	-0.43798828125	0.0859375	-101.5	62.4375	-33.125
18	12	12	15	32	36	0.636921224248	-0.466444848654	0.502334611937	-0.9921875	-0.3759765625	0.1298828125	-76.9375	41.125	-4.8125
18	12	12	15	32	36	0.632373456358	-0.471472256459	0.501870131098	-0.8583984375	-0.36083984375	0.1982421875	-39.6875	26.375	11.5
18	12	12	15	32	36	0.632167862037	-0.469563325543	0.503622383863	-0.7265625	-0.2822265625	0.25537109375	5.375	16.4375	19.1875
18	12	12	15	32	36	0.634971507826	-0.462602043431	0.507342417865	-0.61474609375	-0.1552734375	0.28369140625	39.75	11.3125	21.1875
18	12	12	15	32	36	0.638882502455	-0.453388671848	0.511496643792	-0.52197265625	-0.015625	0.3232421875	50.9375	7.4375	18.9375
18	12	12	15	32	36	0.642953745508	-0.444281404362	0.514594933394	-0.4384765625	0.0888671875	0.3720703125	44.875	4.8125	13.0
18	12	12	15	32	36	0.646627194482	-0.436537445246	0.516068805866	-0.41552734375	0.1630859375	0.41845703125	31.5625	2.8125	5.5625
18	12	12	15	32	36	0.649537728618	-0.429932696897	0.515992478644	-0.431640625	0.1826171875	0.47265625	15.5	-0.25	5.75
18	12	12	15	32	36	0.651871745381	-0.424876331423	0.51374573791	-0.43603515625	0.171875	0.50634765625	-2.5625	-7.0	6.0625
18	12	12	15	32	36	0.653819445955	-0.421088532267	0.509652013978	-0.43603515625	0.16748046875	0.552734375	-17.3125	-11.625	5.125
18	12	12	15	32	36	0.655237957164	-0.418595427129	0.504963541651	-0.48095703125	0.15771484375	0.521484375	-24.5	-12.375	1.375
18	12	12	15	32	36	0.65628782067	-0.417687644796	0.499845699727	-0.56787109375	0.09521484375	0.44775390625	-28.5625	-14.3125	-2.375
18	12	12	15	32	36	0.657261711524	-0.417258642271	0.494350167313	-0.68505859375	0.037109375	0.38916015625	-30.0625	-19.8125	-2.5625
18	12	12	15	32	36	0.65784279076	-0.416995912644	0.488529754801	-0.83447265625	0.0126953125	0.353515625	-33.6875	-26.1875	-0.1875
18	12	12	15	32	36	0.657816477317	-0.416956885641	0.48239061151	-1.04345703125	0.04052734375	0.32958984375	-39.125	-32.8125	-0.625
18	12	12	15	32	36	0.65681468999	-0.41761231381	0.475719142625	-1.32275390625	0.0615234375	0.34375	-49.3125	-37.125	-1.375
18	12	12	15	32	36	0.654149702572	-0.420372212524	0.468653673262	-1.6279296875	0.04345703125	0.23388671875	-62.1875	-43.6875	-3.8125
18	12	12	15	32	36	0.650656806389	-0.425673599227	0.459305109576	-1.82666015625	-0.21142578125	0.1328125	-76.875	-57.0625	4.3125
18	12	12	15	32	36	0.6485838375	-0.42860490372	0.448808296362	-1.8291015625	-0.4560546875	0.0634765625	-64.4375	-79.4375	24.0625
18	12	12	15	32	36	0.649929794426	-0.42116036641	0.438800271612	-1.6083984375	-0.5517578125	0.0341796875	-30.4375	-102.8125	52.0625
18	12	12	15	32	36	0.651462081014	-0.407613958307	0.430564369856	-1.59326171875	-0.470703125	0.1201171875	-9.5625	-118.9375	80.4375
18	12	12	15	32	36	0.652174834417	-0.390938681745	0.422982835986	-1.8349609375	-0.2333984375	0.13525390625	-3.625	-129.5625	94.9375
18	12	12	15	32	36	0.652074049497	-0.374776248611	0.411643488702	-1.89892578125	-0.0908203125	0.08447265625	-23.875	-147.75	95.0625
18	12	12	15	32	36	0.650844491153	-0.359389699326	0.396012290969	-1.8408203125	-0.1494140625	0.18896484375	-47.3125	-163.625	98.0
18	12	12	15	32	36	0.649198385266	-0.34242223969	0.380326733602	-1.6953125	-0.18798828125	0.26953125	-41.3125	-166.0	102.625
18	12	12	15	32	36	0.647243695248	-0.322156942995	0.36811832573	-1.453125	-0.232421875	0.25048828125	-13.3125	-159.1875	111.6875
18	12	12	15	32	36	0.645210824626	-0.297611198645	0.360050955867	-1.19091796875	-0.2578125	0.26220703125	20.75	-152.4375	122.625
18	12	12	15	32	36	0.643212097062	-0.269174923899	0.355909066044	-0.94140625	-0.21484375	0.24755859375	53.75	-146.3125	128.375
18	12	12	15	32	36	0.640725402118	-0.238417969008	0.354086696931	-0.7314453125	-0.142578125	0.22412109375	72.6875	-141.25	131.375
18	12	12	15	32	36	0.636932091042	-0.207529382802	0.351884379957	-0.58154296875	-0.041015625	0.21875	69.8125	-138.625	133.25
18	12	12	15	32	36	0.631177264489	-0.179446973948	0.346686670757	-0.44873046875	0.06787109375	0.21142578125	42.9375	-135.1875	133.1875
18	12	12	15	32	36	0.623665088773	-0.157350616447	0.335819663185	-0.35302734375	0.12841796875	0.2255859375	-5.625	-129.5	126.25
18	12	12	15	32	36	0.615551986442	-0.141848568814	0.319525498168	-0.29541015625	0.15771484375	0.25146484375	-52.0	-121.75	111.9375
18	12	12	15	32	36	0.607629407423	-0.131719162353	0.299877777868	-0.26025390625	0.16796875	0.279296875	-82.8125	-110.5	94.9375
18	12	12	15	32	36	0.600717722389	-0.125673419061	0.279118283325	-0.21240234375	0.125	0.30322265625	-97.4375	-98.0625	75.0625
18	12	12	15	32	36	0.595289561819	-0.122012081829	0.259954705607	-0.1904296875	0.12109375	0.35107421875	-92.625	-80.5	55.0
18	12	12	15	32	36	0.591825900894	-0.120001002595	0.245678553125	-0.193359375	0.13232421875	0.3603515625	-70.6875	-56.9375	33.3125
18	12	12	15	32	36	0.590705960671	-0.119874613222	0.2374298602	-0.201171875	0.1904296875	0.3427734375	-47.125	-30.5625	8.1875
18	12	12	15	32	36	0.592665989977	-0.122378507714	0.234747002827	-0.2734375	0.2001953125	0.2939453125	-25.0625	-7.0	-20.0625
18	12	12	15	32	36	0.597931093703	-0.127264835685	0.235485724735	-0.345703125	0.09765625	0.22265625	-5.875	7.3125	-44.625
18	12	12	15	32	36	0.605128807636	-0.132635152208	0.238108480794	-0.357421875	-0.0029296875	0.17919921875	10.8125	12.75	-57.5
18	12	12	15	32	36	0.613314601767	-0.137031377485	0.242811055516	-0.34814453125	-0.04638671875	0.1904296875	28.6875	17.1875	-62.9375
18	12	12	15	32	37	0.622289330371	-0.140633115956	0.250075467046	-0.3349609375	-0.060546875	0.25537109375	46.6875	26.1875	-68.375
18	12	12	15	32	37	0.631751475383	-0.145760630262	0.26020836131	-0.41455078125	0.07958984375	0.4287109375	50.75	46.5625	-81.9375
18	12	12	15	32	37	0.642234249719	-0.156377508818	0.272287301653	-0.60986328125	0.318359375	0.54638671875	41.3125	81.9375	-108.625
18	12	12	15	32	37	0.654087962226	-0.175851756175	0.285843031645	-0.86962890625	0.4091796875	0.6982421875	22.6875	124.625	-146.5625
18	12	12	15	32	37	0.665242804448	-0.206122116765	0.301889247711	-1.11767578125	0.33984375	0.94677734375	1.75	183.375	-179.25
18	12	12	15	32	37	0.673066806941	-0.245739273125	0.325943298183	-1.58740234375	0.12939453125	1.17724609375	7.125	263.5625	-200.125
18	12	12	15	32	37	0.676725551379	-0.288830640311	0.359756507606	-2.0908203125	-0.0986328125	1.029296875	40.125	330.875	-210.0
18	12	12	15	32	37	0.675851754458	-0.329899641727	0.391729121296	-2.1259765625	-0.384765625	0.62353515625	37.25	325.8125	-194.25
18	12	12	15	32	37	0.670929193396	-0.367570560647	0.416095734296	-1.814453125	-0.75	0.30810546875	10.25	285.6875	-163.9375
18	12	12	15	32	37	0.667127152617	-0.392890894913	0.439034364938	-1.53564453125	-1.08056640625	0.13232421875	50.0	237.625	-124.5
18	12	12	15	32	37	0.66535837419	-0.409798745465	0.459421381757	-1.3427734375	-1.00048828125	0.04736328125	73.5625	197.1875	-107.8125
18	12	12	15	32	37	0.6624426225	-0.421953915907	0.474995714392	-1.32177734375	-0.46728515625	-0.10302734375	53.1875	150.125	-81.6875
18	12	12	15	32	37	0.653478149935	-0.438744717143	0.480128818175	-1.29443359375	-0.21337890625	-0.080078125	-46.625	100.5	-50.4375
18	12	12	15	32	37	0.638995105501	-0.459790823358	0.477857740086	-1.19677734375	-0.25341796875	0.01708984375	-126.8125	69.3125	-22.25
18	12	12	15	32	37	0.624504279939	-0.478204753061	0.474786825024	-1.0791015625	-0.302734375	0.12890625	-126.4375	56.75	-6.875
18	12	12	15	32	37	0.613231093557	-0.490182035668	0.473580178651	-0.94970703125	-0.24267578125	0.2392578125	-91.0	53.125	7.125
18	12	12	15	32	37	0.60481954123	-0.496050904388	0.475847526837	-0.82666015625	-0.16162109375	0.32470703125	-51.4375	55.0625	18.1875
18	12	12	15	32	37	0.599315679486	-0.497507088654	0.48029484488	-0.7197265625	-0.09326171875	0.384765625	-19.1875	54.5	20.9375
18	12	12	15	32	37	0.596507387398	-0.496102736598	0.485421390768	-0.6396484375	-0.02392578125	0.44140625	3.375	51.1875	16.75
18	12	12	15	32	37	0.596645397308	-0.492026449892	0.4903784268	-0.56640625	0.03515625	0.501953125	22.125	43.5625	11.0625
18	12	12	15	32	37	0.598528088319	-0.486891552164	0.494643241662	-0.486328125	0.068359375	0.52001953125	30.5	36.75	5.1875
18	12	12	15	32	37	0.600972314734	-0.481766654499	0.498063588079	-0.40283203125	0.08154296875	0.529296875	30.1875	32.875	2.125
18	12	12	15	32	37	0.603170284415	-0.477189362837	0.501360121047	-0.341796875	0.10498046875	0.50634765625	28.3125	33.5625	-0.6875
18	12	12	15	32	37	0.604446402434	-0.473705799181	0.504468294064	-0.337890625	0.15673828125	0.46875	21.1875	34.875	-5.125
18	12	12	15	32	37	0.604254464576	-0.472356091046	0.506108890936	-0.39013671875	0.2041015625	0.408203125	2.8125	30.375	-10.3125
18	12	12	15	32	37	0.602321721574	-0.474020114486	0.504600088392	-0.47509765625	0.2255859375	0.3486328125	-27.75	18.875	-15.625
18	12	12	15	32	37	0.59901530361	-0.47901692508	0.499342184515	-0.54248046875	0.15869140625	0.2783203125	-57.9375	4.8125	-19.375
18	12	12	15	32	37	0.596330612385	-0.485365509691	0.490736757786	-0.634765625	-0.01708984375	0.27294921875	-72.25	-9.8125	-19.0625
18	12	12	15	32	37	0.596578301678	-0.489579962938	0.481278893874	-0.869140625	-0.1181640625	0.298828125	-55.5	-22.25	-22.125
18	12	12	15	32	37	0.602870261701	-0.488180252413	0.473042880245	-1.28857421875	-0.18359375	0.31591796875	-5.9375	-39.25	-32.5
18	12	12	15	32	37	0.61597044082	-0.47986123719	0.467287920622	-1.70263671875	-0.2509765625	0.2548828125	57.9375	-61.6875	-42.6875
18	12	12	15	32	37	0.635456087373	-0.462843483868	0.465162889432	-2.0380859375	-0.5849609375	0.158203125	130.3125	-81.0625	-31.375
18	12	12	15	32	37	0.659433004741	-0.431646631759	0.470770711363	-2.32177734375	-0.8759765625	0.1064453125	218.0625	-88.75	3.875
18	12	12	15	32	37	0.685742452089	-0.385321949269	0.48444484577	-2.2548828125	-0.884765625	-0.1123046875	312.25	-102.4375	55.75
18	12	12	15	32	37	0.708768875045	-0.329114861716	0.499104640996	-2.03564453125	-0.57373046875	-0.0498046875	330.6875	-122.6875	110.625
18	12	12	15	32	37	0.725186408282	-0.273325876297	0.508686434359	-1.89404296875	-0.1650390625	0.0859375	278.1875	-138.5	146.625
18	12	12	15	32	37	0.734529144955	-0.228037301442	0.50905543202	-1.77490234375	0.1650390625	0.19873046875	169.625	-149.625	159.0625
18	12	12	15	32	37	0.737316107062	-0.199771160465	0.498420805486	-1.64013671875	0.3310546875	0.30322265625	29.125	-153.8125	159.4375
18	12	12	15	32	37	0.73458274016	-0.187201102125	0.478348561249	-1.47021484375	0.28564453125	0.34814453125	-94.0	-151.5625	160.0
18	12	12	15	32	37	0.726972876006	-0.185924381219	0.45193175264	-1.2548828125	0.09423828125	0.34521484375	-176.875	-142.0625	161.375
18	12	12	15	32	37	0.716514596196	-0.188787771193	0.422559890064	-1.04931640625	-0.10693359375	0.36767578125	-204.8125	-134.625	159.8125
18	12	12	15	32	37	0.705146633658	-0.189943419367	0.394474395683	-0.86474609375	-0.20751953125	0.39990234375	-184.625	-126.875	153.5625
18	12	12	15	32	37	0.69472712755	-0.185675621333	0.370069458297	-0.705078125	-0.18603515625	0.38623046875	-137.6875	-124.9375	144.1875
18	12	12	15	32	37	0.685199822631	-0.176518607434	0.349619150546	-0.5869140625	-0.10595703125	0.36181640625	-95.125	-122.0625	136.0625
18	12	12	15	32	37	0.676165127553	-0.164799227694	0.331978888677	-0.5068359375	-0.00439453125	0.31982421875	-69.5	-118.0	128.1875
18	12	12	15	32	37	0.667501082032	-0.152592602878	0.315317354588	-0.4501953125	0.0849609375	0.26904296875	-60.4375	-115.125	118.8125
18	12	12	15	32	37	0.659265729677	-0.141667971353	0.298045973337	-0.40673828125	0.11865234375	0.23193359375	-64.75	-111.75	106.6875
18	12	12	15	32	37	0.651759479249	-0.132573664444	0.279796352583	-0.4091796875	0.1162109375	0.18994140625	-71.875	-108.625	93.5
18	12	12	15	32	37	0.645350509743	-0.124943960413	0.261057801019	-0.4326171875	0.099609375	0.1650390625	-74.8125	-105.9375	78.625
18	12	12	15	32	38	0.640642788624	-0.117923196229	0.242621482925	-0.5107421875	0.08349609375	0.1240234375	-70.75	-104.625	61.75
18	12	12	15	32	38	0.637786942201	-0.110539970555	0.225291568922	-0.58935546875	0.0732421875	0.11279296875	-60.125	-104.375	45.6875
18	12	12	15	32	38	0.636935124921	-0.102300265392	0.209849828412	-0.61962890625	0.076171875	0.10302734375	-44.0625	-102.5	29.8125
18	12	12	15	32	38	0.638031427329	-0.0957688041213	0.200632287538	-0.60205078125	0.05078125	0.11572265625	-19.125	-98.375	12.8125
18	12	12	15	32	38	0.641447718093	-0.0869180274588	0.195504523842	-0.552734375	0.01904296875	0.14453125	13.4375	-90.8125	-2.625
18	12	12	15	32	38	0.646698604898	-0.075809312627	0.195443976676	-0.49951171875	-0.0029296875	0.18017578125	49.375	-78.4375	-15.75
18	12	12	15	32	38	0.653042049805	-0.0631739902372	0.200691864638	-0.45458984375	0.01318359375	0.22607421875	80.375	-61.625	-25.8125
18	12	12	15	32	38	0.659824607359	-0.0506618338676	0.210399206435	-0.4130859375	0.0830078125	0.2919921875	98.125	-39.875	-35.875
18	12	12	15	32	38	0.66710092547	-0.0412627162245	0.223465686535	-0.4228515625	0.19482421875	0.3896484375	98.4375	-11.9375	-50.6875
18	12	12	15	32	38	0.675579954311	-0.0383325091532	0.240493767617	-0.58056640625	0.34814453125	0.56689453125	89.3125	24.9375	-76.5
18	12	12	15	32	38	0.685195610697	-0.0434579792282	0.258916780739	-0.8056640625	0.47998046875	0.87744140625	75.5625	76.5	-104.75
18	12	12	15	32	38	0.695151066267	-0.0592059473421	0.282418472528	-1.05908203125	0.62060546875	1.0244140625	59.375	137.0625	-138.5625
18	12	12	15	32	38	0.703461011706	-0.0851477753865	0.306593029223	-1.1376953125	0.45849609375	1.0712890625	26.125	182.9375	-155.4375
18	12	12	15	32	38	0.707910310503	-0.118534387222	0.333263519171	-1.1552734375	0.13427734375	1.23876953125	10.6875	231.25	-156.0
18	12	12	15	32	38	0.709424863035	-0.152285557367	0.365241192498	-1.34619140625	0.16845703125	1.0048828125	31.75	260.625	-159.8125
18	12	12	15	32	38	0.707059568724	-0.187995810745	0.397537894605	-1.447265625	0.27001953125	0.8994140625	21.875	278.0625	-157.75
18	12	12	15	32	38	0.701016270357	-0.229989491224	0.421464287925	-1.46484375	0.12158203125	0.84375	-39.8125	271.5625	-157.125
18	12	12	15	32	38	0.691139690588	-0.275222897188	0.438684178774	-1.4619140625	-0.08251953125	0.7119140625	-85.3125	259.625	-147.125
18	12	12	15	32	38	0.678365786556	-0.317697851271	0.451552104458	-1.3623046875	-0.2529296875	0.5380859375	-100.6875	236.0625	-122.1875
18	12	12	15	32	38	0.664851233859	-0.352536558044	0.464230100499	-1.20263671875	-0.31884765625	0.4033203125	-77.5	213.1875	-93.875
18	12	12	15	32	38	0.651620831766	-0.380437677444	0.47492147733	-1.0732421875	-0.29638671875	0.224609375	-65.375	178.375	-67.75
18	12	12	15	32	38	0.638403862674	-0.403282753675	0.481290224418	-0.958984375	-0.22607421875	0.19287109375	-76.1875	135.625	-40.625
18	12	12	15	32	38	0.626608149525	-0.422621744332	0.482010964036	-0.880859375	-0.23583984375	0.2666015625	-89.3125	96.4375	-19.125
18	12	12	15	32	38	0.615907554822	-0.437867485709	0.480348078134	-0.8095703125	-0.236328125	0.3359375	-90.6875	72.0	-2.0
18	12	12	15	32	38	0.606161221213	-0.449295413286	0.478654344653	-0.74609375	-0.20166015625	0.37744140625	-80.25	59.4375	10.25
18	12	12	15	32	38	0.597506338957	-0.457605988677	0.477626632173	-0.669921875	-0.15771484375	0.3779296875	-67.375	50.875	16.8125
18	12	12	15	32	38	0.589862941398	-0.463943317215	0.47706630277	-0.6015625	-0.125	0.3671875	-56.625	45.0	18.75
18	12	12	15	32	38	0.583327072071	-0.468761317725	0.476635042984	-0.57275390625	-0.08642578125	0.34619140625	-47.375	38.3125	17.875
18	12	12	15	32	38	0.577951570362	-0.472236909905	0.475899080591	-0.5634765625	-0.05517578125	0.3125	-40.6875	28.25	15.3125
18	12	12	15	32	38	0.57485673732	-0.474204925912	0.473594545006	-0.53759765625	-0.05419921875	0.30419921875	-34.375	12.0	10.3125
18	12	12	15	32	38	0.574348983008	-0.473822651976	0.470343598625	-0.5263671875	-0.01513671875	0.35107421875	-22.5625	-1.875	4.9375
18	12	12	15	32	38	0.575756412886	-0.471628305139	0.467111611133	-0.537109375	0.04296875	0.3837890625	-10.6875	-8.4375	-1.25
18	12	12	15	32	38	0.578984352748	-0.468631863841	0.463565903344	-0.56005859375	0.05419921875	0.40380859375	-0.75	-12.4375	-9.8125
18	12	12	15	32	38	0.584477139425	-0.464542137444	0.46020860811	-0.59765625	0.01953125	0.40576171875	14.4375	-16.75	-17.0625
18	12	12	15	32	38	0.59246717251	-0.458556285883	0.457518690134	-0.6396484375	-0.02001953125	0.3720703125	35.3125	-24.3125	-21.5
18	12	12	15	32	38	0.602562841304	-0.450029966464	0.455706460006	-0.7001953125	-0.0361328125	0.361328125	55.75	-32.625	-22.5625
18	12	12	15	32	38	0.613617209656	-0.439292057883	0.454795765358	-0.78955078125	-0.00634765625	0.375	68.5625	-38.5	-21.0
18	12	12	15	32	38	0.624152589096	-0.427922335434	0.454228786236	-0.990234375	0.0732421875	0.4169921875	68.125	-39.75	-22.6875
18	12	12	15	32	38	0.633256257394	-0.418651052478	0.452526447452	-1.3681640625	0.11572265625	0.44091796875	51.5	-42.1875	-30.8125
18	12	12	15	32	38	0.640717616468	-0.412801108904	0.448630511674	-1.796875	0.06201171875	0.3857421875	27.8125	-53.0625	-37.0625
18	12	12	15	32	38	0.646575459154	-0.410236350512	0.442281296802	-2.0654296875	-0.16015625	0.29833984375	6.0	-65.75	-29.8125
18	12	12	15	32	38	0.652186028086	-0.407364487735	0.434831377079	-2.0908203125	-0.41455078125	0.23974609375	6.0625	-80.9375	-9.0
18	12	12	15	32	38	0.655607528644	-0.402727723117	0.428668808646	-2.01220703125	-0.4853515625	0.16357421875	6.0	-89.0625	21.4375
18	12	12	15	32	38	0.657666619764	-0.393440281299	0.41999109147	-1.9462890625	-0.44580078125	0.09716796875	-12.4375	-101.625	48.0
18	12	12	15	32	38	0.657972033131	-0.384101855705	0.408455366022	-1.822265625	-0.37255859375	0.1201171875	-34.1875	-117.625	61.3125
18	12	12	15	32	38	0.657141348498	-0.374471686145	0.394675456008	-1.62890625	-0.33154296875	0.19873046875	-47.4375	-127.8125	69.3125
18	12	12	15	32	38	0.655316305917	-0.363732290142	0.381128447666	-1.4423828125	-0.2451171875	0.27880859375	-46.75	-127.8125	76.5625
18	12	12	15	32	38	0.65225872385	-0.352009738016	0.368673282056	-1.26416015625	-0.1572265625	0.30029296875	-43.25	-123.625	84.625
18	12	12	15	32	38	0.648053143341	-0.339316890255	0.357079296275	-1.10205078125	-0.1298828125	0.3173828125	-39.0625	-120.25	92.5625
18	12	12	15	32	38	0.644003944528	-0.32496227852	0.346874648541	-0.92578125	-0.1240234375	0.32470703125	-25.5625	-117.625	93.875
18	12	12	15	32	39	0.641029874186	-0.308124053027	0.338643471908	-0.76025390625	-0.109375	0.31103515625	-3.375	-116.4375	91.4375
18	12	12	15	32	39	0.639058723189	-0.289132872182	0.332469232589	-0.62451171875	-0.0634765625	0.29541015625	17.75	-114.125	87.1875
18	12	12	15	32	39	0.637236717458	-0.269238616926	0.327713020693	-0.5107421875	0.00537109375	0.27197265625	28.125	-109.4375	84.875
18	12	12	15	32	39	0.634725758721	-0.250862858769	0.322581559269	-0.4287109375	0.08984375	0.25927734375	20.375	-102.625	80.9375
18	12	12	15	32	39	0.631018041291	-0.2359755995	0.317096026747	-0.3818359375	0.1494140625	0.2197265625	1.375	-93.1875	71.4375
18	12	12	15	32	39	0.627302652911	-0.224808375078	0.310080517348	-0.3544921875	0.1728515625	0.203125	-17.0	-83.375	58.3125
18	12	12	15	32	39	0.624229651261	-0.216743863462	0.302501432644	-0.34521484375	0.16015625	0.15771484375	-26.375	-74.3125	44.0
18	12	12	15	32	39	0.622588010394	-0.209909820367	0.295424114736	-0.31884765625	0.12890625	0.1396484375	-22.1875	-67.375	30.8125
18	12	12	15	32	39	0.622220743613	-0.203317372668	0.290418510703	-0.3115234375	0.1337890625	0.13037109375	-9.75	-59.25	19.5625
18	12	12	15	32	39	0.62325145742	-0.197089311136	0.288401051446	-0.3603515625	0.166015625	0.11328125	4.875	-49.9375	6.5
18	12	12	15	32	39	0.626130433999	-0.192209469357	0.288833029215	-0.46728515625	0.1845703125	0.1044921875	16.0625	-41.0	-11.0
18	12	12	15	32	39	0.630096172931	-0.190011565081	0.290785446851	-0.5283203125	0.19677734375	0.09521484375	17.0625	-28.125	-26.5
18	12	12	15	32	39	0.634989594969	-0.19093025599	0.293292800522	-0.48681640625	0.087890625	0.095703125	17.8125	-10.125	-37.625
18	12	12	15	32	39	0.640516003307	-0.194706122599	0.297918678496	-0.5	0.0078125	0.12841796875	25.125	11.0625	-48.0625
18	12	12	15	32	39	0.645543740575	-0.200328532202	0.305742113894	-0.5224609375	-0.009765625	0.162109375	34.4375	34.0625	-51.1875
18	12	12	15	32	39	0.649435398969	-0.207831535102	0.315989385382	-0.5302734375	-0.0166015625	0.2177734375	38.125	56.4375	-50.4375
18	12	12	15	32	39	0.652429213235	-0.217232254645	0.327893136262	-0.5537109375	0.01025390625	0.31005859375	37.5625	76.9375	-53.5625
18	12	12	15	32	39	0.655127596483	-0.228589662613	0.341450086157	-0.6787109375	0.12890625	0.447265625	36.6875	103.0	-66.4375
18	12	12	15	32	39	0.65756849851	-0.24629062392	0.356526278641	-0.95849609375	0.32568359375	0.57177734375	23.5	136.625	-92.5625
18	12	12	15	32	39	0.658536300192	-0.273571201915	0.370865377696	-1.22998046875	0.4609375	0.6376953125	-10.875	175.125	-124.1875
18	12	12	15	32	39	0.6555062642	-0.31185226779	0.38320777788	-1.5771484375	0.35107421875	0.7294921875	-59.625	218.0	-145.875
18	12	12	15	32	39	0.64779457425	-0.360367395305	0.395036887265	-2.1865234375	0.18408203125	0.77783203125	-97.3125	267.625	-171.6875
18	12	12	15	32	39	0.634969456841	-0.409742378523	0.409254081334	-2.48828125	-0.34423828125	0.40869140625	-94.6875	300.375	-159.125
18	12	12	15	32	39	0.619760767059	-0.447089582303	0.428168384963	-2.15087890625	-0.982421875	0.13330078125	-48.375	282.0	-104.125
18	12	12	15	32	39	0.611293908434	-0.468099149654	0.451313745279	-1.79150390625	-1.36669921875	0.06103515625	48.6875	237.3125	-62.125
18	12	12	15	32	39	0.611611179016	-0.471404504545	0.47665386197	-1.49560546875	-1.08740234375	0.0869140625	136.875	178.375	-36.0625
18	12	12	15	32	39	0.612508166098	-0.468887666364	0.498490701796	-1.34716796875	-0.6337890625	0.06103515625	131.8125	133.5	-15.9375
18	12	12	15	32	39	0.608840876712	-0.470470724581	0.510327676209	-1.26904296875	-0.37109375	0.05615234375	44.4375	86.875	4.9375
18	12	12	15	32	39	0.605166633476	-0.472475533005	0.514528968251	-1.1572265625	-0.3525390625	0.16259765625	-2.5	45.5625	15.4375
18	12	12	15	32	39	0.60463522503	-0.470902560176	0.51716881301	-1.05029296875	-0.27587890625	0.23974609375	9.5	24.375	16.125
18	12	12	15	32	39	0.606272486868	-0.465217849079	0.520882855424	-0.9521484375	-0.13037109375	0.3037109375	30.8125	16.5625	18.9375
18	12	12	15	32	39	0.609083826466	-0.456553464472	0.525646849737	-0.83447265625	-0.00732421875	0.3564453125	45.375	13.6875	22.125
18	12	12	15	32	39	0.61231465691	-0.44708979883	0.530098962845	-0.70849609375	0.0654296875	0.4072265625	47.25	12.125	21.1875
18	12	12	15	32	39	0.61557058057	-0.438437628184	0.533230004151	-0.57763671875	0.12158203125	0.427734375	39.5625	8.5625	15.0
18	12	12	15	32	39	0.618782983503	-0.431768674818	0.534003977379	-0.48583984375	0.15478515625	0.44580078125	24.625	3.9375	5.25
18	12	12	15	32	39	0.621477507966	-0.427441267755	0.532424700647	-0.41943359375	0.14892578125	0.46240234375	5.5	-0.125	-0.875
18	12	12	15	32	39	0.623978782163	-0.425365169998	0.5287614389	-0.35107421875	0.07763671875	0.458984375	-8.5625	-3.875	-4.8125
18	12	12	15	32	39	0.626784703068	-0.424021163912	0.524304274939	-0.3095703125	0.0146484375	0.43408203125	-11.375	-6.9375	-6.0625
18	12	12	15	32	39	0.62976569474	-0.422244531519	0.519962585141	-0.29931640625	0.00048828125	0.3935546875	-8.0	-10.875	-4.1875
18	12	12	15	32	39	0.632358657952	-0.419944745822	0.515958275644	-0.2998046875	0.033203125	0.3427734375	-8.3125	-15.0	-0.8125
18	12	12	15	32	39	0.633728695457	-0.41827436675	0.511231007719	-0.32958984375	0.08203125	0.310546875	-21.25	-20.1875	2.6875
18	12	12	15	32	39	0.633191878028	-0.418465733156	0.504893311649	-0.37744140625	0.12841796875	0.2705078125	-45.1875	-27.0	4.5625
18	12	12	15	32	39	0.63125964192	-0.421043222777	0.495754284633	-0.4638671875	0.134765625	0.2470703125	-71.625	-36.875	3.0625
18	12	12	15	32	39	0.62854814313	-0.425542596029	0.483709849904	-0.60693359375	0.13037109375	0.25146484375	-92.875	-47.25	-1.25
18	12	12	15	32	39	0.625627262938	-0.433239249984	0.46888474477	-0.86669921875	0.150390625	0.33349609375	-108.3125	-53.8125	-9.0625
18	12	12	15	32	39	0.622275649496	-0.443924551131	0.451615255578	-1.4033203125	0.263671875	0.361328125	-124.4375	-53.75	-28.375
18	12	12	15	32	39	0.619636946207	-0.45673200044	0.430669650555	-2.06201171875	0.21142578125	0.18017578125	-137.125	-66.8125	-49.625
18	12	12	15	32	39	0.618324543841	-0.465666134745	0.408594718309	-2.3251953125	-0.41357421875	-0.0390625	-123.9375	-93.875	-32.3125
18	12	12	15	32	39	0.62311725459	-0.462775494593	0.391485363007	-2.13623046875	-0.994140625	0.056640625	-45.25	-117.375	-4.875
18	12	12	15	32	40	0.635816518938	-0.440438898018	0.390633168974	-1.92529296875	-1.0634765625	0.03466796875	105.6875	-117.8125	40.6875
18	12	12	15	32	40	0.650602754734	-0.405474631738	0.400408487762	-1.97509765625	-0.60009765625	-0.01806640625	190.125	-117.125	76.1875
18	12	12	15	32	40	0.660726027079	-0.371959760649	0.40668984004	-1.9306640625	-0.0625	-0.0283203125	149.6875	-127.375	88.8125
18	12	12	15	32	40	0.66274594085	-0.35145433113	0.400284387557	-1.8046875	0.0478515625	0.16259765625	23.9375	-135.3125	89.4375
18	12	12	15	32	40	0.65860938091	-0.341878697171	0.385277332002	-1.703125	0.03857421875	0.23193359375	-68.375	-132.0	87.3125
18	12	12	15	32	40	0.650119179654	-0.336809467029	0.36568059387	-1.5849609375	-0.0625	0.23828125	-115.9375	-132.3125	98.375
18	12	12	15	32	40	0.638763752643	-0.331253787443	0.34498736072	-1.36669921875	-0.2236328125	0.32177734375	-126.25	-133.8125	117.0625
18	12	12	15	32	40	0.626794824649	-0.321545928158	0.328443173769	-1.13525390625	-0.3115234375	0.3740234375	-93.6875	-127.0	131.0625
18	12	12	15	32	40	0.61555624267	-0.306526866702	0.318429044919	-0.91259765625	-0.25244140625	0.3544921875	-43.875	-116.5	138.0
18	12	12	15	32	40	0.605066269633	-0.288524993095	0.313123167882	-0.74365234375	-0.07861328125	0.31396484375	-10.5625	-106.375	136.4375
18	12	12	15	32	40	0.594994007021	-0.270762557976	0.308239611762	-0.62841796875	0.0576171875	0.2353515625	-7.1875	-102.1875	126.75
18	12	12	15	32	40	0.584926927206	-0.255566006909	0.299879577728	-0.5458984375	0.08984375	0.19189453125	-28.75	-102.875	114.375
18	12	12	15	32	40	0.574917724004	-0.243114693142	0.287245228704	-0.48388671875	0.05810546875	0.17919921875	-54.9375	-105.125	103.1875
18	12	12	15	32	40	0.565011623812	-0.232181507722	0.272526401677	-0.412109375	-0.02001953125	0.17333984375	-66.0	-104.625	95.4375
18	12	12	15	32	40	0.555922308694	-0.221197018743	0.258612518878	-0.3359375	-0.0166015625	0.185546875	-58.625	-100.0625	87.0
18	12	12	15	32	40	0.548553738806	-0.210216877317	0.248610145561	-0.267578125	-0.01025390625	0.1787109375	-32.875	-90.75	76.1875
18	12	12	15	32	40	0.544286431148	-0.198072162058	0.244339865861	-0.255859375	0.0537109375	0.1904296875	2.75	-76.75	55.625
18	12	12	15	32	40	0.54299113375	-0.185432448779	0.245127292395	-0.22509765625	0.12451171875	0.171875	31.3125	-62.4375	33.875
18	12	12	15	32	40	0.544784057203	-0.173659455769	0.248861019744	-0.2021484375	0.17724609375	0.181640625	47.375	-48.375	9.3125
18	12	12	15	32	40	0.549022607393	-0.164126936218	0.254338766538	-0.212890625	0.2607421875	0.19775390625	50.25	-33.5625	-14.9375
18	12	12	15	32	40	0.554877656325	-0.158693422775	0.259219602509	-0.23583984375	0.25927734375	0.20458984375	39.875	-18.6875	-34.1875
18	12	12	15	32	40	0.561964539469	-0.157779769146	0.261908313116	-0.234375	0.15234375	0.22021484375	24.6875	-5.5	-48.4375
18	12	12	15	32	40	0.569844750139	-0.159917871183	0.264230711584	-0.22265625	0.0419921875	0.2548828125	22.375	8.25	-56.625
18	12	12	15	32	40	0.577985313619	-0.163403388379	0.269124220905	-0.23583984375	0.009765625	0.2685546875	34.0625	24.1875	-61.6875
18	12	12	15	32	40	0.586393903174	-0.167977102273	0.277540655536	-0.26904296875	0.0361328125	0.29296875	47.6875	41.4375	-68.375
18	12	12	15	32	40	0.594685365256	-0.174627407369	0.287851399214	-0.3291015625	0.09326171875	0.4150390625	49.8125	60.8125	-75.75
18	12	12	15	32	40	0.602152282707	-0.185803502135	0.300557307659	-0.46240234375	0.27880859375	0.56640625	39.25	92.6875	-90.625
18	12	12	15	32	40	0.609902642628	-0.205945908349	0.315083811173	-0.6728515625	0.4287109375	0.73876953125	27.3125	139.6875	-117.625
18	12	12	15	32	40	0.618613314791	-0.236885868249	0.333019659151	-1.07177734375	0.48193359375	0.92333984375	18.25	201.125	-164.9375
18	12	12	15	32	40	0.626245052541	-0.279246697405	0.35609294703	-1.63330078125	0.35009765625	1.1142578125	16.125	278.25	-209.4375
18	12	12	15	32	40	0.628373185311	-0.328316596774	0.384775576513	-2.28125	0.078125	0.990234375	21.0	348.25	-219.8125
18	12	12	15	32	40	0.624054699666	-0.37788758271	0.407979422199	-2.32177734375	-0.20751953125	0.5107421875	-14.125	333.6875	-200.9375
18	12	12	15	32	40	0.616704096153	-0.421878336561	0.42132901581	-2.1279296875	-0.7333984375	0.04833984375	-45.6875	269.375	-167.0
18	12	12	15	32	40	0.612428487172	-0.448731735867	0.431397702545	-1.8916015625	-1.33544921875	-0.04931640625	-11.375	189.5	-122.4375
18	12	12	15	32	40	0.612808927508	-0.465405186479	0.439403532782	-1.693359375	-1.388671875	-0.05224609375	28.8125	128.6875	-86.9375
18	12	12	15	32	40	0.607982930563	-0.476571701821	0.45118058656	-1.703125	-0.4814453125	-0.33984375	29.875	86.5625	-30.3125
18	12	12	15	32	40	0.595662236619	-0.491044440373	0.448867720883	-1.56640625	-0.32421875	-0.2060546875	-93.0	25.0	1.6875
18	12	12	15	32	40	0.582899013265	-0.503917722882	0.437876180227	-1.2626953125	-0.51025390625	-0.03857421875	-140.875	-11.375	18.5
18	12	12	15	32	40	0.575826911892	-0.510761034419	0.429031944423	-1.04248046875	-0.51806640625	0.09521484375	-88.25	-22.375	30.0625
18	12	12	15	32	40	0.574352572351	-0.508005999966	0.427926236424	-0.873046875	-0.3798828125	0.13037109375	-10.8125	-22.5625	42.0
18	12	12	15	32	40	0.577080132871	-0.497247154151	0.433588288093	-0.75146484375	-0.16552734375	0.1689453125	51.375	-21.375	47.9375
18	12	12	15	32	40	0.581933331351	-0.482258784456	0.441485607894	-0.64794921875	-0.00830078125	0.1982421875	78.0625	-26.5	48.1875
18	12	12	15	32	40	0.587766406693	-0.465452400565	0.44854572407	-0.60546875	0.1318359375	0.26904296875	80.4375	-34.1875	42.0
18	12	12	15	32	40	0.594809943712	-0.447465541031	0.453264098718	-0.5625	0.14208984375	0.34765625	78.375	-46.25	39.5
18	12	12	15	32	40	0.603049107431	-0.428604335261	0.455888034757	-0.482421875	0.10595703125	0.41845703125	77.875	-55.5625	37.9375
18	12	12	15	32	40	0.612441655198	-0.408579274456	0.458629320028	-0.36669921875	0.07470703125	0.4443359375	89.8125	-55.1875	36.6875
18	12	12	15	32	40	0.620675070647	-0.389409671622	0.464667058003	-0.25341796875	0.0810546875	0.4326171875	104.4375	-48.0	38.0
18	12	12	15	32	40	0.628374681212	-0.37049386255	0.47193715737	-0.154296875	0.1015625	0.38134765625	110.125	-38.4375	35.5625
18	12	12	15	32	40	0.635702082617	-0.351268889627	0.477493748662	-0.10546875	0.1376953125	0.35546875	99.9375	-31.5	32.0
18	12	12	15	32	40	0.640233571293	-0.33577317911	0.481106016677	-0.1083984375	0.22265625	0.37158203125	68.1875	-23.5625	28.1875
18	12	12	15	32	40	0.640759227491	-0.327215680947	0.481454447175	-0.14794921875	0.31591796875	0.36328125	15.125	-13.1875	19.6875
18	12	12	15	32	41	0.637535391058	-0.327404484216	0.477068129872	-0.2109375	0.34765625	0.32958984375	-48.0625	-5.375	8.5
18	12	12	15	32	41	0.631637622688	-0.338098259767	0.467013862697	-0.283203125	0.30859375	0.32568359375	-107.1875	-4.0625	-0.5625
18	12	12	15	32	41	0.623791620134	-0.354438154415	0.452584624588	-0.3857421875	0.25048828125	0.35302734375	-148.875	-1.0625	-11.6875
18	12	12	15	32	41	0.614997286247	-0.374271869717	0.435796012684	-0.55859375	0.134765625	0.42431640625	-167.875	5.0	-23.1875
18	12	12	15	32	41	0.605421231426	-0.396798409668	0.419198812122	-0.94482421875	0.189453125	0.603515625	-172.125	22.75	-38.125
18	12	12	15	32	41	0.596947497639	-0.424455306603	0.402725929388	-1.74267578125	0.35888671875	0.55810546875	-171.9375	47.3125	-81.9375
18	12	12	15	32	41	0.590356238873	-0.45265527993	0.383255461527	-2.3828125	0.2119140625	0.130859375	-172.25	30.25	-104.8125
18	12	12	15	32	41	0.585765969851	-0.473031808518	0.360297647185	-2.7236328125	-0.5390625	-0.00146484375	-159.8125	-12.125	-78.8125
18	12	12	15	32	41	0.590212058512	-0.476442122931	0.348267839283	-2.63916015625	-1.34228515625	-0.02880859375	-37.75	-38.875	-53.6875
18	12	12	15	32	41	0.607614815637	-0.453132334634	0.36237158819	-2.03466796875	-1.650390625	-0.08349609375	187.9375	-37.75	1.8125
18	12	12	15	32	41	0.635088163086	-0.409740205555	0.395274478053	-1.744140625	-1.06494140625	-0.03564453125	374.0625	-36.75	32.5
18	12	12	15	32	41	0.660039322367	-0.358523301238	0.428775313448	-1.67236328125	-0.22216796875	-0.06591796875	392.9375	-52.8125	48.375
18	12	12	15	32	41	0.674652991201	-0.320876755156	0.445699460938	-1.56201171875	0.18212890625	0.18115234375	242.0	-70.0625	49.125
18	12	12	15	32	41	0.678025298341	-0.300435768674	0.451996519105	-1.4970703125	0.33544921875	0.19580078125	87.375	-77.6875	45.875
18	12	12	15	32	41	0.675494130972	-0.29407524379	0.444103668289	-1.32275390625	0.19775390625	0.1982421875	-43.5625	-94.5625	58.1875
18	12	12	15	32	41	0.670009828605	-0.293590896929	0.425615244135	-1.0458984375	-0.05029296875	0.26318359375	-118.625	-101.875	75.875
18	12	12	15	32	41	0.662796691374	-0.291755058916	0.406748057032	-0.8408203125	-0.2490234375	0.310546875	-119.375	-103.625	92.6875
18	12	12	15	32	41	0.656220623337	-0.284132359932	0.391925646214	-0.6435546875	-0.3056640625	0.31298828125	-77.5625	-103.1875	102.6875
18	12	12	15	32	41	0.651081266571	-0.27094307137	0.381786193157	-0.49462890625	-0.2109375	0.30810546875	-31.6875	-101.125	104.1875
18	12	12	15	32	41	0.647272334592	-0.255148845586	0.374543855626	-0.4130859375	-0.0380859375	0.26123046875	-1.6875	-99.125	99.75
18	12	12	15	32	41	0.643518169916	-0.23871759106	0.36830016478	-0.39306640625	0.087890625	0.21337890625	1.4375	-98.8125	91.4375
18	12	12	15	32	41	0.639547831502	-0.224433801912	0.359936396485	-0.38525390625	0.1083984375	0.20263671875	-14.8125	-99.6875	83.6875
18	12	12	15	32	41	0.636182071546	-0.210819617684	0.348578701967	-0.37109375	0.11181640625	0.2275390625	-25.5	-104.5	77.0625
18	12	12	15	32	41	0.633395825994	-0.196909986957	0.336382807849	-0.29541015625	0.1533203125	0.2470703125	-25.9375	-107.625	71.1875
18	12	12	15	32	41	0.63136232707	-0.183231796777	0.324775613142	-0.212890625	0.17431640625	0.23486328125	-20.6875	-103.625	61.4375
18	12	12	15	32	41	0.630261729269	-0.169009754827	0.315191901021	-0.14892578125	0.1884765625	0.20361328125	-10.5625	-96.4375	47.625
18	12	12	15	32	41	0.630637496808	-0.154912695209	0.307628047224	-0.1240234375	0.23583984375	0.1787109375	0.375	-89.0625	31.4375
18	12	12	15	32	41	0.632669159819	-0.141976697129	0.301288468198	-0.1240234375	0.27978515625	0.15576171875	4.25	-81.5625	13.0625
18	12	12	15	32	41	0.63649637557	-0.130985924623	0.29535922146	-0.126953125	0.2666015625	0.1591796875	5.375	-73.9375	-5.25
18	12	12	15	32	41	0.642244623415	-0.121527185442	0.290359026191	-0.12158203125	0.208984375	0.18212890625	12.9375	-64.75	-21.8125
18	12	12	15	32	41	0.649561646535	-0.112675324141	0.287914140829	-0.12060546875	0.1298828125	0.2138671875	31.25	-52.5625	-34.6875
18	12	12	15	32	41	0.65774443288	-0.10358131984	0.289441731692	-0.13330078125	0.080078125	0.2490234375	56.6875	-38.0	-43.0
18	12	12	15	32	41	0.665990015832	-0.094304332734	0.295853139652	-0.2099609375	0.138671875	0.396484375	80.5	-17.9375	-49.9375
18	12	12	15	32	41	0.673872622798	-0.0877133115	0.308308932767	-0.4111328125	0.43994140625	0.6015625	86.75	15.375	-68.625
18	12	12	15	32	41	0.684356998984	-0.0907023279067	0.325820340758	-0.81787109375	0.7783203125	0.8583984375	89.5	68.0625	-115.875
18	12	12	15	32	41	0.697176333222	-0.106511355408	0.34736740609	-1.19580078125	0.916015625	1.1826171875	70.5	131.3125	-179.4375
18	12	12	15	32	41	0.706964227686	-0.138011234571	0.373869443497	-1.43603515625	0.583984375	1.53076171875	40.6875	219.875	-217.375
18	12	12	15	32	41	0.709437641861	-0.177618819394	0.41236864049	-1.7255859375	0.01953125	1.5537109375	64.0625	319.375	-224.125
18	12	12	15	32	41	0.702987633938	-0.217665529445	0.456572675337	-2.23779296875	-0.4384765625	1.1123046875	70.3125	364.625	-206.0625
18	12	12	15	32	41	0.692500318429	-0.257101043739	0.486978187785	-2.37109375	-0.5947265625	0.3935546875	4.125	305.5	-172.0625
18	12	12	15	32	41	0.681726693747	-0.293956106821	0.501117034261	-2.03857421875	-0.828125	-0.01171875	-65.0625	216.5	-138.25
18	12	12	15	32	41	0.66996192135	-0.329975778683	0.505218187228	-1.609375	-0.916015625	0.03955078125	-110.125	155.375	-99.25
18	12	12	15	32	41	0.656634800757	-0.361521465411	0.507094434346	-1.48974609375	-0.6884765625	-0.32763671875	-118.6875	126.125	-71.25
18	12	12	15	32	41	0.64090415148	-0.389913878062	0.503384432119	-1.36279296875	-0.583984375	-0.2578125	-155.8125	85.625	-30.875
18	12	12	15	32	41	0.623196118914	-0.412554609964	0.497153025323	-1.2177734375	-0.46533203125	-0.103515625	-171.125	51.8125	14.75
18	12	12	15	32	41	0.607630705704	-0.427813522479	0.492025225382	-1.07421875	-0.52490234375	0.06298828125	-139.1875	32.875	36.875
18	12	12	15	32	41	0.596836918438	-0.436732271572	0.489897024687	-0.89990234375	-0.3984375	0.18115234375	-82.75	30.4375	49.1875
18	12	12	15	32	41	0.588404380864	-0.439105924889	0.49294126347	-0.74853515625	-0.197265625	0.22216796875	-35.4375	35.875	51.75
18	12	12	15	32	41	0.581507832113	-0.438862318977	0.498008019546	-0.61328125	-0.0751953125	0.24951171875	-12.6875	39.4375	47.0625
18	12	12	15	32	41	0.576623594806	-0.438251022621	0.501669241633	-0.49951171875	-0.04052734375	0.30517578125	-8.6875	34.6875	34.8125
18	12	12	15	32	42	0.574300422525	-0.436356012395	0.503619171671	-0.47021484375	0.025390625	0.38916015625	-2.5	25.0625	22.5
18	12	12	15	32	42	0.574952995677	-0.431580958857	0.50451820194	-0.45654296875	0.02392578125	0.44677734375	11.625	8.6875	20.5625
18	12	12	15	32	42	0.577972128272	-0.424338603416	0.504054687429	-0.40185546875	-0.02880859375	0.5107421875	20.25	-6.8125	24.4375
18	12	12	15	32	42	0.582901264108	-0.413829379126	0.505140404372	-0.2724609375	-0.0595703125	0.529296875	44.375	-11.25	30.6875
18	12	12	15	32	42	0.588395700075	-0.400463090061	0.509291879816	-0.169921875	-0.03466796875	0.47509765625	69.375	-9.375	36.9375
18	12	12	15	32	42	0.591321937639	-0.387093696171	0.514415905288	-0.10107421875	0.1044921875	0.40625	60.25	-6.0625	42.1875
18	12	12	15	32	42	0.587715739735	-0.378606369673	0.516608788152	-0.0361328125	0.4111328125	0.37939453125	-2.25	0.5	41.875
18	12	12	15	32	42	0.577009874147	-0.380888777602	0.511392015826	-0.095703125	0.55078125	0.34033203125	-98.625	7.0	29.0
18	12	12	15	32	42	0.56203385315	-0.398148004355	0.495136687311	-0.201171875	0.43603515625	0.3251953125	-194.6875	3.1875	13.6875
18	12	12	15	32	42	0.544517995556	-0.421099613423	0.471577853791	-0.3408203125	0.3037109375	0.34521484375	-247.3125	-1.5	-0.875
18	12	12	15	32	42	0.527482862283	-0.444899627769	0.445509999051	-0.52783203125	0.19970703125	0.3408203125	-250.6875	-2.9375	-16.625
18	12	12	15	32	42	0.513087229529	-0.467247530579	0.419515646985	-0.783203125	0.1279296875	0.40771484375	-227.4375	-2.375	-33.875
18	12	12	15	32	42	0.502581239017	-0.489458216623	0.394972455389	-1.36376953125	0.2236328125	0.5068359375	-196.0	9.5625	-64.8125
18	12	12	15	32	42	0.499023228362	-0.513000273285	0.370727383692	-2.345703125	0.37158203125	0.35400390625	-159.375	19.5	-122.1875
18	12	12	15	32	42	0.505265812551	-0.529131351655	0.345714612502	-3.02294921875	-0.17529296875	-0.07470703125	-103.25	-17.0625	-141.4375
18	12	12	15	32	42	0.523139270925	-0.527655932464	0.333561558232	-2.94189453125	-1.2255859375	-0.0537109375	32.0625	-53.6875	-115.5
18	12	12	15	32	42	0.55068000633	-0.501850034587	0.34925637289	-2.3134765625	-1.85302734375	-0.13671875	235.8125	-55.25	-30.6875
18	12	12	15	32	42	0.58386025362	-0.453428582913	0.384703238403	-2.10693359375	-1.09716796875	-0.27294921875	395.5625	-67.8125	41.9375
18	12	12	15	32	42	0.608175827552	-0.403883927229	0.409682472354	-1.90185546875	-0.1142578125	-0.220703125	322.3125	-126.9375	77.3125
18	12	12	15	32	42	0.61935467412	-0.369891527069	0.409627399036	-1.7041015625	-0.00537109375	0.0400390625	117.75	-170.5625	84.5
18	12	12	15	32	42	0.622045299646	-0.348958196259	0.396080065686	-1.6171875	0.07763671875	0.17333984375	-10.5	-173.3125	81.8125
18	12	12	15	32	42	0.617693506782	-0.336252324987	0.375682167416	-1.4462890625	-0.09228515625	0.103515625	-87.4375	-166.125	95.25
18	12	12	15	32	42	0.609331010023	-0.328073142229	0.352793072016	-1.0576171875	0.1337890625	0.26171875	-124.0	-147.8125	94.125
18	12	12	15	32	42	0.599982071137	-0.320499069739	0.328738904897	-0.9921875	-0.07421875	0.31982421875	-128.1875	-145.875	94.5625
18	12	12	15	32	42	0.593465283597	-0.310252394993	0.306468084844	-0.7138671875	-0.2919921875	0.18408203125	-97.1875	-146.8125	80.8125
18	12	12	15	32	42	0.589864984035	-0.291270250809	0.293284483474	-0.59326171875	-0.21630859375	0.3251953125	-20.6875	-145.4375	86.0625
18	12	12	15	32	42	0.591999631749	-0.260811880241	0.293222624077	-0.3583984375	-0.07568359375	0.29052734375	90.625	-142.625	78.75
18	12	12	15	32	42	0.598401624897	-0.226506367808	0.300726724385	-0.3076171875	0.1083984375	0.154296875	149.5625	-130.5	53.5625
18	12	12	15	32	42	0.604148512527	-0.193366587966	0.308788373901	-0.35595703125	0.330078125	0.083984375	147.5625	-122.3125	46.8125
18	12	12	15	32	42	0.6092179196	-0.163398093454	0.312879576783	-0.23974609375	0.35791015625	0.08203125	119.375	-120.375	38.75
18	12	12	15	32	42	0.614399611587	-0.137211437199	0.312571072018	-0.10888671875	0.29248046875	0.12060546875	89.75	-118.1875	27.5625
18	12	12	15	32	42	0.620575757299	-0.114019427032	0.309646977159	-0.05224609375	0.23828125	0.0966796875	71.5	-115.625	12.125
18	12	12	15	32	42	0.627351736707	-0.0942431486161	0.303848700655	-0.05078125	0.2236328125	0.06982421875	49.375	-113.1875	-0.25
18	12	12	15	32	42	0.634051303582	-0.0785544886129	0.29517444206	-0.04296875	0.2138671875	0.078125	23.0625	-106.375	-7.6875
18	12	12	15	32	42	0.64015128258	-0.0654311760989	0.285956212709	-0.03369140625	0.16162109375	0.08837890625	6.0625	-96.25	-12.5625
18	12	12	15	32	42	0.646401028198	-0.0546297375106	0.277299326827	-0.0419921875	0.1171875	0.12939453125	4.9375	-84.0	-18.5625
18	12	12	15	32	42	0.65275733481	-0.0449251354423	0.272175514861	-0.08154296875	0.10107421875	0.16015625	19.9375	-67.4375	-24.875
18	12	12	15	32	42	0.659156836033	-0.0356465961889	0.271866334632	-0.13037109375	0.09130859375	0.1904296875	42.375	-49.75	-31.0625
18	12	12	15	32	42	0.665537528877	-0.0263675910193	0.276493489161	-0.1689453125	0.08935546875	0.22900390625	66.6875	-31.5625	-36.875
18	12	12	15	32	42	0.671565030062	-0.0183120804416	0.285546374353	-0.23486328125	0.12744140625	0.2958984375	82.25	-10.875	-43.0625
18	12	12	15	32	42	0.677161037612	-0.0145881997466	0.297562651736	-0.3505859375	0.2255859375	0.41943359375	77.6875	15.75	-53.125
18	12	12	15	32	42	0.682276138355	-0.0186774466216	0.310314178511	-0.49609375	0.41943359375	0.74462890625	48.75	52.9375	-68.5625
18	12	12	15	32	42	0.687284738002	-0.0385758396463	0.326124543086	-0.8994140625	1.0615234375	1.13916015625	0.0	127.5625	-109.8125
18	12	12	15	32	42	0.697883698069	-0.0844735908805	0.343631731689	-1.32861328125	0.97021484375	0.908203125	-74.625	217.625	-223.3125
18	12	12	15	32	42	0.700213971351	-0.147770050962	0.363168857178	-1.93017578125	-0.0234375	1.33837890625	-131.375	312.6875	-228.4375
18	12	12	15	32	42	0.687833111394	-0.214913513641	0.392899257968	-2.02197265625	-0.44580078125	1.27392578125	-125.625	397.0625	-174.375
18	12	12	15	32	42	0.670437084372	-0.278331491691	0.422929584633	-2.10888671875	-0.64111328125	0.7353515625	-108.3125	402.0625	-163.25
18	12	12	15	32	42	0.655421852381	-0.331922521256	0.443560309299	-2.0224609375	-0.44580078125	-0.08056640625	-92.9375	314.125	-154.25
18	12	12	15	32	42	0.6437714291	-0.37733905136	0.450951295931	-2.08837890625	-0.66015625	-0.22900390625	-107.1875	221.125	-146.625
18	12	12	15	32	42	0.62551163391	-0.41883887899	0.444596676561	-2.0087890625	-0.8798828125	-0.4375	-199.3125	149.75	-85.5625
18	12	12	15	32	42	0.604010934528	-0.44897983371	0.43878684401	-1.89208984375	-1.14794921875	-0.43017578125	-190.1875	104.4375	-11.125
18	12	12	15	32	43	0.591821897867	-0.471272367309	0.437030196857	-1.64404296875	-1.2216796875	-0.0390625	-85.75	76.75	28.125
18	12	12	15	32	43	0.58797857301	-0.475363555133	0.444539390349	-1.35986328125	-0.7578125	0.09130859375	20.125	54.6875	39.6875
18	12	12	15	32	43	0.588219004772	-0.470355468587	0.455767490779	-1.10498046875	-0.4443359375	0.138671875	66.9375	37.625	44.125
18	12	12	15	32	43	0.589866188311	-0.463213421264	0.466082182734	-0.919921875	-0.26416015625	0.2197265625	70.5	31.0	36.125
18	12	12	15	32	43	0.591637032314	-0.455340169304	0.475299450184	-0.765625	-0.04150390625	0.25537109375	64.75	25.9375	25.625
18	12	12	15	32	43	0.593470853141	-0.447773545062	0.481649542542	-0.65869140625	0.12939453125	0.31298828125	48.5	15.8125	14.4375
18	12	12	15	32	43	0.594632430674	-0.441060762066	0.48439775917	-0.67041015625	0.1826171875	0.3994140625	23.5625	3.875	13.5625
18	12	12	15	32	43	0.597615085923	-0.431899126544	0.484146957567	-0.65869140625	0.07080078125	0.52197265625	21.125	-17.5	26.3125
18	12	12	15	32	43	0.604273199987	-0.418596525809	0.48482242702	-0.4873046875	-0.02197265625	0.572265625	53.9375	-25.9375	30.5625
18	12	12	15	32	43	0.611178536342	-0.403220354646	0.492519685383	-0.33251953125	0.01220703125	0.5068359375	100.1875	-18.5	30.0
18	12	12	15	32	43	0.618837798375	-0.385987793365	0.50287056128	-0.2197265625	0.14501953125	0.4140625	123.75	-10.4375	26.4375
18	12	12	15	32	43	0.625030005882	-0.371660908771	0.511560203056	-0.15234375	0.26611328125	0.337890625	104.25	-6.5	17.875
18	12	12	15	32	43	0.628375257101	-0.360972440068	0.515273814516	-0.123046875	0.31689453125	0.29541015625	51.4375	-5.4375	8.6875
18	12	12	15	32	43	0.628418028447	-0.358154330898	0.513549853472	-0.130859375	0.2685546875	0.28857421875	-9.75	-4.875	1.25
18	12	12	15	32	43	0.62624664024	-0.361221015296	0.507589382089	-0.17724609375	0.2099609375	0.33203125	-54.9375	-2.0625	-4.25
18	12	12	15	32	43	0.622280628154	-0.368302237399	0.499289410329	-0.2890625	0.21337890625	0.3759765625	-83.6875	3.6875	-10.375
18	12	12	15	32	43	0.615546666281	-0.382206566609	0.490362113723	-0.509765625	0.35498046875	0.4599609375	-109.6875	16.0625	-21.3125
18	12	12	15	32	43	0.607397853632	-0.402856580642	0.478178553447	-1.06298828125	0.47705078125	0.49462890625	-142.5	29.125	-50.5625
18	12	12	15	32	43	0.599568635496	-0.432570795048	0.458511614562	-2.1484375	0.55078125	0.45068359375	-187.9375	28.9375	-106.125
18	12	12	15	32	43	0.594426220796	-0.460391927658	0.431033778752	-2.6806640625	0.0888671875	-0.0283203125	-201.375	-16.9375	-106.6875
18	12	12	15	32	43	0.595166617314	-0.471933984727	0.40595356084	-2.46435546875	-0.98388671875	-0.1572265625	-132.0	-78.5625	-65.25
18	12	12	15	32	43	0.610747677286	-0.456626361561	0.397846628078	-1.9306640625	-1.771484375	-0.07275390625	66.1875	-113.75	-25.1875
18	12	12	15	32	43	0.642828581738	-0.40472809775	0.418949428888	-1.38818359375	-1.7890625	-0.2265625	356.875	-118.125	35.5
18	12	12	15	32	43	0.680194742859	-0.330148363615	0.453381779429	-1.4443359375	-0.81298828125	-0.38232421875	528.0	-133.5625	69.875
18	12	12	15	32	43	0.70687939496	-0.257213519589	0.47591215288	-1.48095703125	-0.01416015625	-0.21435546875	439.625	-162.8125	97.8125
18	12	12	15	32	43	0.720799295337	-0.219676235407	0.469627384056	-1.2685546875	-0.30615234375	-0.1533203125	146.5625	-180.4375	81.25
18	12	12	15	32	43	0.733308130347	-0.188423688895	0.457112084915	-1.51953125	-0.0361328125	0.33984375	95.1875	-184.75	67.375
18	12	12	15	32	43	0.744121507474	-0.157113342649	0.443079158622	-1.658203125	0.09326171875	0.14404296875	84.3125	-193.875	75.0
18	12	12	15	32	43	0.748458002775	-0.136299683591	0.419886038256	-1.5361328125	0.10693359375	0.0908203125	-22.6875	-199.9375	111.0
18	12	12	15	32	43	0.749046077867	-0.117984523184	0.389416067209	-1.30224609375	-0.03515625	0.2890625	-72.8125	-217.6875	144.1875
18	12	12	15	32	43	0.748364309642	-0.0982151854987	0.35715167828	-0.99853515625	-0.23388671875	0.3818359375	-69.1875	-222.6875	149.1875
18	12	12	15	32	43	0.747729555534	-0.0775197171859	0.326376321097	-0.77880859375	-0.2744140625	0.35546875	-50.25	-215.875	131.3125
18	12	12	15	32	43	0.7479563232	-0.0546898046015	0.298169302989	-0.6513671875	-0.1953125	0.3095703125	-23.25	-210.3125	109.25
18	12	12	15	32	43	0.749069122168	-0.0322895669513	0.270707428032	-0.59326171875	-0.0751953125	0.25634765625	-17.0625	-206.5	86.5
18	12	12	15	32	43	0.750834425526	-0.0121466588635	0.242994215756	-0.54443359375	0.0341796875	0.2275390625	-24.5	-200.1875	66.5
18	12	12	15	32	43	0.752961084504	0.00616480784168	0.21625657607	-0.4833984375	0.07275390625	0.228515625	-25.625	-189.3125	50.0
18	12	12	15	32	43	0.756251631926	0.0239266053039	0.19415951906	-0.42236328125	0.11572265625	0.27197265625	-6.125	-168.125	25.0
18	12	12	15	32	43	0.761095963351	0.0425442205835	0.179882091908	-0.38916015625	0.1865234375	0.30712890625	30.1875	-139.4375	-5.0
18	12	12	15	32	43	0.7680772836	0.0614022367532	0.174318874918	-0.4501953125	0.33251953125	0.33447265625	66.0	-107.0	-40.5625
18	12	12	15	32	43	0.777274819637	0.0794732067824	0.180493296817	-0.50390625	0.41943359375	0.33251953125	94.125	-78.75	-79.5625
18	12	12	15	32	43	0.789481478038	0.095953678945	0.187085258248	-0.533203125	0.42431640625	0.296875	106.8125	-56.75	-118.8125
18	12	12	15	32	43	0.803767793181	0.110115211034	0.19654710617	-0.55029296875	0.39501953125	0.283203125	111.0	-40.875	-152.875
18	12	12	15	32	43	0.819215387474	0.121530276169	0.208023697229	-0.54248046875	0.39453125	0.2841796875	108.9375	-26.9375	-180.0
18	12	12	15	32	43	0.835586211264	0.129467335385	0.220845270827	-0.52099609375	0.4326171875	0.294921875	100.625	-13.4375	-207.75
18	12	12	15	32	43	0.852844645568	0.132638950388	0.235307479864	-0.490234375	0.49072265625	0.3603515625	87.6875	4.1875	-241.6875
18	12	12	15	32	43	0.87027454311	0.130742605649	0.252939942955	-0.4755859375	0.478515625	0.44189453125	79.375	29.25	-279.625
18	12	12	15	32	43	0.886288530731	0.124641954528	0.275347628246	-0.4677734375	0.38818359375	0.54052734375	81.3125	61.5	-316.875
18	12	12	15	32	43	0.898399312052	0.117861884066	0.304267991751	-0.53564453125	0.29248046875	0.6552734375	105.5	99.1875	-344.75
18	12	12	15	32	43	0.904549436568	0.113526447504	0.34039623534	-0.6416015625	0.21240234375	0.703125	147.4375	138.1875	-369.125
18	12	12	15	32	43	0.903438345384	0.113410475355	0.381493794923	-0.830078125	0.15283203125	0.69580078125	195.375	167.625	-391.5
18	12	12	15	32	44	0.894392941024	0.117010255097	0.423910392098	-1.10595703125	0.12939453125	0.64208984375	235.5625	182.3125	-411.5625
18	12	12	15	32	44	0.877545066734	0.122259356519	0.463645567706	-1.4013671875	0.0634765625	0.56298828125	258.1875	182.4375	-424.0
18	12	12	15	32	44	0.853752208647	0.128487052206	0.497772879211	-1.5849609375	-0.1298828125	0.470703125	269.3125	171.625	-417.625
18	12	12	15	32	44	0.823568132575	0.1387974456	0.525159728205	-1.69091796875	-0.4521484375	0.36767578125	294.6875	159.0625	-393.1875
18	12	12	15	32	44	0.787857579986	0.157718003307	0.54377310041	-1.751953125	-0.79296875	0.23388671875	344.0	142.625	-353.6875
18	12	12	15	32	44	0.747888779401	0.187079009946	0.550860706284	-1.81005859375	-0.8896484375	0.0595703125	406.1875	117.8125	-309.4375
18	12	12	15	32	44	0.707074073148	0.223097007714	0.543612024815	-1.87646484375	-0.720703125	-0.138671875	449.5	71.75	-263.1875
18	12	12	15	32	44	0.668659263751	0.257331579733	0.524123879309	-1.8271484375	-0.24658203125	-0.1728515625	443.125	19.3125	-228.8125
18	12	12	15	32	44	0.635561551496	0.280091420322	0.500856438258	-1.611328125	0.15673828125	-0.08154296875	365.75	-23.0625	-207.75
18	12	12	15	32	44	0.609958430983	0.286881279458	0.48281508947	-1.384765625	0.3701171875	-0.02587890625	239.1875	-49.0	-193.375
18	12	12	15	32	44	0.592288903914	0.278383109105	0.474795484702	-1.26318359375	0.41162109375	-0.00634765625	103.5	-63.3125	-181.5
18	12	12	15	32	44	0.58069475653	0.259829470102	0.475957295714	-1.19580078125	0.29541015625	0.0087890625	0.375	-65.5625	-165.3125
18	12	12	15	32	44	0.572938170678	0.237671379207	0.482361815582	-1.17333984375	0.171875	0.0439453125	-55.25	-59.0625	-143.625
18	12	12	15	32	44	0.566729393702	0.216620637399	0.491165474542	-1.185546875	0.10498046875	0.09423828125	-75.5625	-44.875	-122.4375
18	12	12	15	32	44	0.560316853341	0.199834137019	0.499646379242	-1.1748046875	0.08984375	0.16796875	-65.75	-26.75	-105.375
18	12	12	15	32	44	0.553708680883	0.19372479642	0.505246964324	-1.10400390625	0.06201171875	0.23779296875	-32.0	-7.5625	-94.8125
18	12	12	15	32	44	0.544189904192	0.193786781719	0.506409111157	-0.998046875	-0.00048828125	0.29248046875	18.25	11.0625	-89.4375
18	12	12	15	32	44	0.531262027159	0.200871246712	0.501598269668	-0.87255859375	-0.03271484375	0.32958984375	80.5	28.25	-85.3125
18	12	12	15	32	44	0.513799042454	0.212343415146	0.491887203984	-0.74951171875	0.00927734375	0.32080078125	139.0	42.25	-80.3125
18	12	12	15	32	44	0.493736699181	0.228526418807	0.477866808986	-0.65185546875	0.1201171875	0.2861328125	178.125	52.75	-78.6875
18	12	12	15	32	44	0.471542962693	0.246086102197	0.462632106809	-0.5869140625	0.25927734375	0.2548828125	188.6875	60.625	-83.0625
18	12	12	15	32	44	0.448061281153	0.262330389102	0.449831309371	-0.552734375	0.36669921875	0.23828125	170.5625	68.3125	-90.3125
18	12	12	15	32	44	0.424269543128	0.27631538221	0.442336552877	-0.55029296875	0.39892578125	0.24609375	132.6875	79.1875	-96.1875
18	12	12	15	32	44	0.4030882571	0.292489238041	0.437757265282	-0.59228515625	0.3603515625	0.2783203125	93.5625	95.9375	-98.4375
18	12	12	15	32	44	0.378673088051	0.306222257053	0.440625567802	-0.69970703125	0.2900390625	0.33056640625	69.375	117.1875	-97.0
18	12	12	15	32	44	0.353142810016	0.322992006672	0.445182104434	-0.826171875	0.20068359375	0.37158203125	63.875	141.6875	-91.0
18	12	12	15	32	44	0.326356307487	0.343507256131	0.448976434986	-0.93212890625	0.1005859375	0.38916015625	72.625	163.3125	-81.0
18	12	12	15	32	44	0.298717650392	0.367690054345	0.450456939088	-1.02734375	0.04736328125	0.38330078125	87.5	180.75	-67.9375
18	12	12	15	32	44	0.271659580827	0.394458744302	0.449632921131	-1.08251953125	-0.0146484375	0.318359375	96.5	189.8125	-50.25
18	12	12	15	32	44	0.247558014593	0.421385732927	0.448363208876	-1.13427734375	0.00048828125	0.23583984375	85.4375	188.0625	-32.5
18	12	12	15	32	44	0.228635207841	0.447260758959	0.448847655757	-1.15966796875	0.01611328125	0.22509765625	54.1875	182.25	-11.9375
18	12	12	15	32	44	0.216674971773	0.471374875213	0.453064314218	-1.1572265625	0.0498046875	0.22802734375	5.9375	175.125	9.5
18	12	12	15	32	44	0.213072068352	0.493709527613	0.462581840744	-1.16650390625	0.12646484375	0.26318359375	-56.75	170.5625	31.125
18	12	12	15	32	44	0.219910179578	0.513612034735	0.47863880884	-1.2109375	0.173828125	0.30126953125	-135.8125	164.0	57.1875
18	12	12	15	32	44	0.23846572798	0.530154418539	0.500491161872	-1.28173828125	0.1162109375	0.3564453125	-219.5	153.0	87.625
18	12	12	15	32	44	0.267957885632	0.542507901479	0.524867849327	-1.365234375	-0.06201171875	0.41650390625	-288.9375	134.1875	120.9375
18	12	12	15	32	44	0.306042269196	0.550314539104	0.546591248633	-1.42822265625	-0.28125	0.49267578125	-325.625	103.5625	155.75
18	12	12	15	32	44	0.350349328994	0.554028024264	0.561596546354	-1.49169921875	-0.46484375	0.4990234375	-332.6875	62.5625	189.75
18	12	12	15	32	44	0.399968741451	0.553474217531	0.566963167914	-1.52880859375	-0.55078125	0.4248046875	-320.875	3.875	220.1875
18	12	12	15	32	44	0.453271560278	0.548430510247	0.562164162424	-1.498046875	-0.70263671875	0.2548828125	-298.9375	-62.75	241.5
18	12	12	15	32	44	0.496363129588	0.545865158375	0.548672918331	-1.13818359375	-2.32861328125	-0.65087890625	-201.1875	-90.6875	212.25
18	12	12	15	32	44	0.507821541856	0.550180694506	0.537729300931	-0.9677734375	-0.85400390625	-0.10400390625	-19.5	-38.875	106.375
18	12	12	15	32	44	0.498683047947	0.561674590846	0.528897014744	-1.0185546875	-0.50927734375	-0.7939453125	101.3125	-5.8125	31.75
18	12	12	15	32	44	0.48768938457	0.557333137736	0.536031060738	-1.01611328125	-0.31494140625	-0.49609375	29.0625	-9.0	-60.4375
18	12	12	15	32	44	0.490797412547	0.546524068144	0.541702155995	-1.296875	0.013671875	0.21337890625	-41.0625	2.1875	-46.5625
18	12	12	15	32	44	0.490503782838	0.535122780505	0.546292789497	-0.8486328125	-0.11767578125	0.2333984375	-13.5	-15.5625	-64.0625
18	12	12	15	32	44	0.482560085121	0.522844635612	0.554950201609	-0.97119140625	-0.17138671875	0.2470703125	10.25	-13.4375	-117.8125
18	12	12	15	32	44	0.469966788436	0.514644150661	0.55553736472	-0.99853515625	-0.2783203125	0.396484375	84.25	-36.875	-116.4375
18	12	12	15	32	44	0.448601799864	0.512260531463	0.546378681956	-0.8896484375	-0.47265625	0.39013671875	187.9375	-55.3125	-121.125
18	12	12	15	32	45	0.413770257658	0.518387785557	0.52436941784	-0.96875	-0.3330078125	0.2490234375	323.875	-60.875	-128.8125
18	12	12	15	32	45	0.371403844466	0.527106590108	0.492255054333	-1.10302734375	-0.10986328125	0.08203125	398.3125	-71.0	-130.5
18	12	12	15	32	45	0.327389860818	0.533809045994	0.45373158563	-1.16259765625	0.03173828125	0.017578125	416.375	-84.375	-122.5
18	12	12	15	32	45	0.284858351885	0.538282795215	0.410105692375	-1.2041015625	0.03369140625	0.0146484375	414.625	-93.4375	-99.6875
18	12	12	15	32	45	0.245495369621	0.5411640843	0.361711974235	-1.21044921875	-0.0107421875	-0.0078125	408.4375	-100.25	-67.1875
18	12	12	15	32	45	0.212763629093	0.542712045293	0.309807280916	-1.23291015625	-0.0341796875	0.0205078125	386.125	-104.875	-21.25
18	12	12	15	32	45	0.18957453747	0.54241755135	0.256651941423	-1.32421875	0.064453125	0.02099609375	347.1875	-111.875	27.125
18	12	12	15	32	45	0.177986519168	0.538903627479	0.206735370515	-1.3955078125	0.2529296875	0.08447265625	282.5	-120.75	69.125
18	12	12	15	32	45	0.17877521772	0.531320679499	0.165652420926	-1.404296875	0.32421875	0.162109375	192.5	-128.4375	99.375
18	12	12	15	32	45	0.19122223129	0.519467733964	0.13555843463	-1.38134765625	0.2080078125	0.19091796875	98.3125	-136.8125	123.875
18	12	12	15	32	45	0.212040295293	0.503977178536	0.111330310482	-1.33203125	0.11328125	0.22900390625	41.0	-147.0	148.125
18	12	12	15	32	45	0.237484599669	0.486016414074	0.0883166835572	-1.29931640625	0.037109375	0.27001953125	18.625	-156.375	169.3125
18	12	12	15	32	45	0.264099104368	0.465759247847	0.0622558554323	-1.17919921875	0.00927734375	0.314453125	26.875	-169.4375	184.8125
18	12	12	15	32	45	0.290960047385	0.444466344673	0.0281987711122	-1.1025390625	0.1220703125	0.38525390625	62.4375	-182.3125	208.6875
18	12	12	15	32	45	0.319156083824	0.421452047964	-0.0108643685065	-1.017578125	0.34521484375	0.4052734375	78.0	-193.3125	230.25
18	12	12	15	32	45	0.348687406164	0.395256370089	-0.0515737542812	-0.947265625	0.57470703125	0.4697265625	75.375	-205.25	244.25
18	12	12	15	32	45	0.3779941881	0.365115652061	-0.0903938951358	-0.7900390625	0.685546875	0.5458984375	58.6875	-215.3125	243.25
18	12	12	15	32	45	0.405877737278	0.33117181992	-0.124692965001	-0.580078125	0.68017578125	0.5546875	31.6875	-221.25	231.3125
18	12	12	15	32	45	0.430169606836	0.293635922033	-0.156003620186	-0.3525390625	0.6279296875	0.6650390625	17.9375	-231.375	210.6875
18	12	12	15	32	45	0.451166092504	0.257565058221	-0.186276909405	-0.20263671875	0.59619140625	0.70556640625	24.4375	-220.125	196.875
18	12	12	15	32	45	0.469657529067	0.222774526458	-0.215755603022	-0.134765625	0.6337890625	0.69189453125	29.3125	-212.1875	187.625
18	12	12	15	32	45	0.486137099179	0.187741081868	-0.244197681584	-0.0107421875	0.64990234375	0.65087890625	27.8125	-210.4375	180.625
18	12	12	15	32	45	0.501394873854	0.15093725174	-0.270380924062	0.16015625	0.58154296875	0.66748046875	16.25	-212.0625	177.4375
18	12	12	15	32	45	0.501394873854	0.15093725174	-0.270380924062	0.16015625	0.58154296875	0.66748046875	16.25	-212.0625	177.4375
18	12	12	15	32	45	0.17877521772	0.531320679499	0.165652420926	-1.404296875	0.32421875	0.162109375	192.5	-128.4375	99.375
18	12	12	15	32	45	0.19122223129	0.519467733964	0.13555843463	-1.38134765625	0.2080078125	0.19091796875	98.3125	-136.8125	123.875
18	12	12	15	32	45	0.212040295293	0.503977178536	0.111330310482	-1.33203125	0.11328125	0.22900390625	41.0	-147.0	148.125
18	12	12	15	32	45	0.516460851212	0.112239601203	-0.293751604453	0.31884765625	0.58251953125	0.6796875	0.1875	-210.25	180.75
18	12	12	15	32	45	0.530270188948	0.0729975996756	-0.314695337732	0.36376953125	0.56494140625	0.65087890625	-9.5	-207.6875	178.6875
18	12	12	15	32	45	0.543016526258	0.0328361122993	-0.332267277616	0.39697265625	0.52880859375	0.58154296875	-26.125	-203.0	176.8125
18	12	12	15	32	45	0.555577197224	-0.00756800752013	-0.346419441002	0.52587890625	0.51025390625	0.5517578125	-39.5	-192.8125	179.5
18	12	12	15	32	45	0.567004429817	-0.0452260799241	-0.358268676322	0.59423828125	0.46826171875	0.53076171875	-39.0625	-176.0625	172.0625
18	12	12	15	32	45	0.576709750156	-0.0790999932482	-0.367851588971	0.57861328125	0.47412109375	0.51806640625	-37.5625	-156.625	157.5
18	12	12	15	32	45	0.585143451145	-0.110473521078	-0.374938585625	0.54150390625	0.44091796875	0.45068359375	-42.0625	-141.0	147.125
18	12	12	15	32	45	0.593126964536	-0.139584417359	-0.379142282743	0.58251953125	0.36962890625	0.4296875	-46.875	-122.3125	140.125
18	12	12	15	32	45	0.600209856016	-0.163876699553	-0.381585521641	0.62109375	0.30517578125	0.41552734375	-40.6875	-98.25	122.6875
18	12	12	15	32	45	0.607573394589	-0.183523174036	-0.382487439868	0.6025390625	0.228515625	0.39697265625	-31.0625	-73.625	112.5
18	12	12	15	32	45	0.615572985745	-0.200064271988	-0.381574688368	0.60302734375	0.20068359375	0.39306640625	-27.875	-53.5	108.25
18	12	12	15	32	45	0.622376682327	-0.214538985817	-0.380005611863	0.625	0.1650390625	0.39697265625	-28.1875	-39.625	93.4375
18	12	12	15	32	45	0.628033685772	-0.225091179118	-0.377796745863	0.609375	0.11376953125	0.396484375	-21.1875	-23.75	72.0
18	12	12	15	32	45	0.63339664064	-0.232290192164	-0.375533776244	0.6015625	0.11181640625	0.42041015625	-12.875	-12.375	60.0
18	12	12	15	32	45	0.637317310247	-0.23693409293	-0.373894449586	0.5927734375	0.12646484375	0.39794921875	-8.1875	-4.9375	43.125
18	12	12	15	32	45	0.638913804479	-0.239562159207	-0.372252129683	0.66015625	0.1103515625	0.4501953125	-9.3125	1.1875	18.25
18	12	12	15	32	45	0.638345587483	-0.239799198128	-0.371142510516	0.62744140625	0.12744140625	0.462890625	-8.375	5.25	-4.375
18	12	12	15	32	45	0.635773036432	-0.239246453184	-0.369062066939	0.6259765625	0.13525390625	0.49609375	-17.625	9.375	-22.25
18	12	12	15	32	45	0.632360297841	-0.238332879362	-0.366013387332	0.58349609375	0.1064453125	0.54833984375	-22.4375	10.5625	-31.3125
18	12	12	15	32	45	0.628714486856	-0.23693521386	-0.362543835737	0.6591796875	0.12060546875	0.6103515625	-23.375	14.875	-35.0
18	12	12	15	32	45	0.625342733839	-0.233145543945	-0.359483574303	0.69482421875	0.15576171875	0.6044921875	-14.75	25.25	-39.3125
18	12	12	15	32	45	0.623228873015	-0.229369709606	-0.355285013203	0.70458984375	0.1103515625	0.6318359375	-13.5625	31.1875	-33.6875
18	12	12	15	32	45	0.622914454017	-0.224544608694	-0.351434590068	0.7646484375	0.12060546875	0.654296875	-3.125	37.625	-23.75
18	12	12	15	32	45	0.62266276397	-0.219598179255	-0.348439690208	0.81005859375	0.14599609375	0.6982421875	1.5625	35.3125	-23.0
18	12	12	15	32	45	0.621973569428	-0.216601334305	-0.345378120832	0.7998046875	0.12841796875	0.67041015625	-5.3125	28.8125	-20.625
18	12	12	15	32	45	0.622036027195	-0.215930481183	-0.340679464659	0.7470703125	0.0537109375	0.69921875	-14.0	22.8125	-11.625
18	12	12	15	32	46	0.623025701318	-0.215446779551	-0.335865050387	0.68359375	0.029296875	0.70849609375	-10.8125	20.5	-4.75
18	12	12	15	32	46	0.624017591041	-0.213987252953	-0.332211242961	0.6767578125	0.0810546875	0.6953125	-5.5	20.625	-3.8125
18	12	12	15	32	46	0.62475760493	-0.213135361119	-0.328980411349	0.7099609375	0.10400390625	0.72265625	-6.875	16.5625	-2.875
18	12	12	15	32	46	0.625047500993	-0.213008083045	-0.326531015556	0.708984375	0.09814453125	0.7314453125	-6.4375	9.875	-3.5
18	12	12	15	32	46	0.62556110716	-0.213260855539	-0.325323514602	0.720703125	0.10107421875	0.70556640625	-1.1875	5.3125	0.0625
18	12	12	15	32	46	0.626334281533	-0.214779802837	-0.324275388597	0.75341796875	0.080078125	0.681640625	-3.1875	2.0625	4.75
18	12	12	15	32	46	0.62812522524	-0.218021893359	-0.322149930893	0.76318359375	0.0185546875	0.6572265625	-8.0625	1.4375	13.625
18	12	12	15	32	46	0.630675413158	-0.222167667076	-0.319579644178	0.76025390625	-0.025390625	0.63330078125	-9.375	0.8125	20.75
18	12	12	15	32	46	0.633890307744	-0.225639559766	-0.317860651139	0.74609375	0.04931640625	0.599609375	-5.5	1.375	28.125
18	12	12	15	32	46	0.637479137683	-0.229663379139	-0.315108165425	0.69873046875	0.03662109375	0.60205078125	-10.75	0.625	33.0
18	12	12	15	32	46	0.641027737176	-0.232474021794	-0.312365986753	0.65771484375	0.03759765625	0.6376953125	-7.125	2.4375	29.875
18	12	12	15	32	46	0.643116316629	-0.233028195586	-0.310724605481	0.611328125	0.1044921875	0.66552734375	-2.9375	2.5	17.0
18	12	12	15	32	46	0.643296352765	-0.23321018633	-0.309441414471	0.5869140625	0.14501953125	0.7119140625	-7.4375	-1.75	4.0
18	12	12	15	32	46	0.641224218907	-0.233333351312	-0.309076665195	0.60595703125	0.1611328125	0.728515625	-10.875	-6.25	-11.6875
18	12	12	15	32	46	0.636834149181	-0.234128406772	-0.309933276743	0.66015625	0.1279296875	0.70703125	-12.4375	-12.0	-28.25
18	12	12	15	32	46	0.630365638684	-0.236204010622	-0.311703845542	0.7080078125	0.115234375	0.646484375	-18.0	-17.5	-40.625
18	12	12	15	32	46	0.622217877976	-0.239244147294	-0.3130314366	0.69287109375	0.1064453125	0.59912109375	-27.125	-19.25	-49.625
18	12	12	15	32	46	0.614436295444	-0.242490851475	-0.31457282872	0.701171875	0.12353515625	0.54150390625	-26.6875	-18.625	-45.375
18	12	12	15	32	46	0.608383953066	-0.246026857425	-0.316581818274	0.673828125	0.1328125	0.49169921875	-20.625	-20.0625	-31.125
18	12	12	15	32	46	0.604180553232	-0.249325948071	-0.319637696462	0.6962890625	0.1240234375	0.4853515625	-8.5625	-21.8125	-19.0625
18	12	12	15	32	46	0.600380585063	-0.25182172349	-0.324450868171	0.72216796875	0.16943359375	0.4921875	1.75	-24.8125	-16.25
18	12	12	15	32	46	0.596660731211	-0.253898183494	-0.329518339587	0.787109375	0.169921875	0.52099609375	5.0	-23.5	-17.875
18	12	12	15	32	46	0.593915991954	-0.255241668724	-0.333913718218	0.865234375	0.1484375	0.5556640625	8.3125	-15.875	-15.125
18	12	12	15	32	46	0.59312848908	-0.254450779067	-0.33788426791	0.9228515625	0.1103515625	0.5576171875	20.375	-0.875	-11.9375
18	12	12	15	32	46	0.595446239785	-0.251764630906	-0.340629916384	0.8837890625	0.08056640625	0.60400390625	31.0625	10.3125	1.8125
18	12	12	15	32	46	0.600107486152	-0.249088552785	-0.342168690741	0.87353515625	0.11474609375	0.6416015625	31.75	14.3125	20.0625
18	12	12	15	32	46	0.605945553999	-0.247798040818	-0.342034537129	0.82958984375	0.11083984375	0.66015625	23.5625	13.1875	32.8125
18	12	12	15	32	46	0.612663391838	-0.247250388557	-0.340877171091	0.79638671875	0.099609375	0.65234375	20.0625	13.5	41.625
18	12	12	15	32	46	0.619739617813	-0.246699579988	-0.338983044843	0.767578125	0.08349609375	0.6025390625	17.4375	18.375	44.125
18	12	12	15	32	46	0.627534893548	-0.24443466725	-0.336898717408	0.71142578125	0.087890625	0.5859375	23.1875	25.4375	45.4375
18	12	12	15	32	46	0.634617198695	-0.240834724567	-0.334885994349	0.6484375	0.111328125	0.5908203125	24.125	27.8125	38.3125
18	12	12	15	32	46	0.638684327107	-0.237065168815	-0.333807777614	0.59326171875	0.10693359375	0.61083984375	19.9375	18.9375	16.8125
18	12	12	15	32	46	0.638846490272	-0.233822576119	-0.3339189021	0.5595703125	0.14453125	0.65625	10.125	5.9375	-7.1875
18	12	12	15	32	46	0.63586182509	-0.232176846098	-0.334654481376	0.57666015625	0.14404296875	0.71435546875	-1.0	-7.625	-25.1875
18	12	12	15	32	46	0.631087366925	-0.230890087918	-0.337881979042	0.61376953125	0.15283203125	0.65966796875	4.0	-16.875	-35.75
18	12	12	15	32	46	0.626288697979	-0.228518164432	-0.344730393352	0.7685546875	0.22412109375	0.4921875	20.0625	-12.5	-36.3125
18	12	12	15	32	46	0.620241779816	-0.223389580213	-0.35064839845	0.638671875	0.3408203125	0.60107421875	16.625	-9.5	-47.25
18	12	12	15	32	46	0.611552836204	-0.223015375598	-0.355579523326	0.775390625	0.31201171875	0.62255859375	-7.5625	-23.1875	-54.875
18	12	12	15	32	46	0.603931556853	-0.227168595716	-0.359246199458	0.80712890625	0.19580078125	0.62939453125	-17.0	-36.3125	-39.75
18	12	12	15	32	46	0.601308568201	-0.231624646399	-0.361932583174	0.88623046875	0.07861328125	0.59326171875	-2.0625	-24.8125	-11.1875
18	12	12	15	32	46	0.602721402318	-0.232299509592	-0.366576682767	0.85107421875	0.16162109375	0.603515625	27.875	-15.5	10.5625
18	12	12	15	32	46	0.602881360605	-0.234182605856	-0.370041474929	0.818359375	0.2138671875	0.59716796875	12.25	-19.1875	8.5
18	12	12	15	32	46	0.601661313258	-0.237539646095	-0.371750766794	0.78662109375	0.16845703125	0.58056640625	-3.375	-19.9375	1.1875
18	12	12	15	32	46	0.600451854265	-0.240778874271	-0.371818733094	0.80126953125	0.15478515625	0.58154296875	-10.5625	-12.3125	-0.6875
18	12	12	15	32	46	0.601013123142	-0.241455053839	-0.370666466624	0.72900390625	0.16259765625	0.580078125	-4.5625	2.1875	3.875
18	12	12	15	32	46	0.602347940677	-0.240231177881	-0.368647437602	0.65234375	0.17431640625	0.55078125	-1.875	13.3125	4.3125
18	12	12	15	32	46	0.60318009947	-0.238452357445	-0.365826319561	0.58056640625	0.19482421875	0.560546875	-7.1875	15.8125	0.375
18	12	12	15	32	46	0.602701559279	-0.236686242722	-0.361804034775	0.52978515625	0.193359375	0.57568359375	-17.125	16.8125	-8.3125
18	12	12	15	32	46	0.601845547161	-0.234549481568	-0.357103569256	0.50830078125	0.1826171875	0.58349609375	-20.3125	20.3125	-12.6875
18	12	12	15	32	46	0.601120771089	-0.231256635359	-0.351737131057	0.5029296875	0.18896484375	0.5625	-20.375	29.6875	-15.5
18	12	12	15	32	46	0.600468344397	-0.226197975639	-0.343203242585	0.54052734375	0.0849609375	0.470703125	-27.4375	57.625	-27.625
18	12	12	15	32	47	0.597415970713	-0.216859311805	-0.330324400644	0.38330078125	0.10888671875	0.55078125	-43.5	81.9375	-54.75
18	12	12	15	32	47	0.588855233289	-0.203792249581	-0.317803606938	0.45166015625	0.19775390625	0.55859375	-49.375	96.375	-98.3125
18	12	12	15	32	47	0.576524642431	-0.187068391811	-0.302422147284	0.4638671875	0.2333984375	0.54541015625	-60.1875	122.875	-133.5
