18	12	12	16	21	23	0.289315174098	0.492690313358	0.55140786557	-1.11474609375	-0.04931640625	0.24755859375	-93.5625	15.375	-7.75
18	12	12	16	21	23	0.301148398257	0.48639067404	0.560426549007	-1.36962890625	-0.0966796875	0.15771484375	-104.8125	-14.1875	3.5625
18	12	12	16	21	24	0.317692590343	0.478583592869	0.565376842334	-1.46728515625	-0.25048828125	0.11376953125	-100.125	-47.8125	24.5625
18	12	12	16	21	24	0.338211854024	0.47200726713	0.562160472038	-1.49365234375	-0.3818359375	0.09228515625	-71.5	-72.0	51.25
18	12	12	16	21	24	0.359000296798	0.467518237584	0.552599232779	-1.3505859375	-0.38623046875	0.07275390625	-34.625	-92.125	76.375
18	12	12	16	21	24	0.380443635838	0.464369514112	0.539078805026	-1.1708984375	-0.33935546875	0.0751953125	-13.9375	-109.0	95.25
18	12	12	16	21	24	0.404434963448	0.460650568841	0.522603706164	-1.01123046875	-0.30078125	0.08349609375	-10.875	-126.8125	110.4375
18	12	12	16	21	24	0.431596644357	0.454607807548	0.505330026677	-0.955078125	-0.228515625	0.10400390625	-25.75	-142.5625	119.0625
18	12	12	16	21	24	0.461443486543	0.445207512016	0.489215548233	-1.06689453125	-0.13818359375	0.1005859375	-51.625	-154.1875	119.8125
18	12	12	16	21	24	0.49305642764	0.432019484381	0.474318086059	-1.23583984375	-0.0849609375	0.05615234375	-75.25	-166.5625	116.5
18	12	12	16	21	24	0.525163953256	0.41596842648	0.459854163625	-1.3701171875	-0.05615234375	0.01123046875	-88.625	-175.5625	112.5
18	12	12	16	21	24	0.555924484373	0.399181612626	0.444959320496	-1.482421875	-0.07177734375	-0.025390625	-87.5	-177.3125	109.3125
18	12	12	16	21	24	0.584476530848	0.3836695356	0.427859281667	-1.486328125	-0.1162109375	-0.07275390625	-69.5625	-177.75	110.25
18	12	12	16	21	24	0.610365201967	0.371285152357	0.407174626232	-1.4091796875	-0.1474609375	-0.09228515625	-38.5625	-176.625	115.0625
18	12	12	16	21	24	0.63430197335	0.362868093876	0.382339064767	-1.26611328125	-0.21826171875	-0.07763671875	-6.0	-173.5	127.5625
18	12	12	16	21	24	0.656154590933	0.358718188922	0.353896215649	-1.1181640625	-0.16943359375	-0.0068359375	25.0	-166.6875	138.6875
18	12	12	16	21	24	0.675931933437	0.357375968058	0.324110399725	-1.01171875	-0.0576171875	0.05712890625	41.625	-155.3125	142.5625
18	12	12	16	21	24	0.694133414768	0.356222529774	0.295549946738	-0.95166015625	0.0693359375	0.107421875	38.4375	-144.1875	138.5625
18	12	12	16	21	24	0.711358239009	0.353207218288	0.269589819108	-0.86669921875	0.15625	0.14306640625	22.25	-135.5625	130.1875
18	12	12	16	21	24	0.728217801005	0.346622151698	0.247500057252	-0.765625	0.21142578125	0.173828125	-5.375	-127.75	118.875
18	12	12	16	21	24	0.744549601508	0.33607887407	0.229993679167	-0.68017578125	0.22021484375	0.19140625	-35.3125	-118.375	103.5
18	12	12	16	21	24	0.759454820567	0.323056687717	0.216612164124	-0.62890625	0.1923828125	0.21533203125	-55.0625	-106.9375	86.5
18	12	12	16	21	24	0.771390732838	0.310985581881	0.20868688998	-0.61279296875	0.13916015625	0.26513671875	-61.5625	-91.3125	70.8125
18	12	12	16	21	24	0.781135015459	0.29999051422	0.203920306817	-0.6044921875	0.0966796875	0.3193359375	-58.5	-71.0	58.8125
18	12	12	16	21	24	0.788667869505	0.291882188064	0.201912647034	-0.57763671875	0.08837890625	0.36474609375	-48.625	-45.25	50.4375
18	12	12	16	21	24	0.793734365148	0.287121382164	0.202767268611	-0.55517578125	0.09228515625	0.40478515625	-36.5	-18.375	39.0625
18	12	12	16	21	24	0.795875936195	0.285963552502	0.206675045629	-0.55029296875	0.15234375	0.42041015625	-25.75	8.25	21.3125
18	12	12	16	21	24	0.795063099768	0.287238365385	0.214299596444	-0.5517578125	0.20166015625	0.4111328125	-20.875	33.0625	-0.0625
18	12	12	16	21	24	0.791664539508	0.289320733791	0.225963155378	-0.556640625	0.2314453125	0.41259765625	-23.875	54.75	-22.875
18	12	12	16	21	24	0.785907570624	0.291022623232	0.24201021416	-0.55029296875	0.21923828125	0.42138671875	-31.5625	76.125	-44.875
18	12	12	16	21	24	0.77754659451	0.292671004056	0.262457834712	-0.552734375	0.17041015625	0.40771484375	-36.0625	98.4375	-64.4375
18	12	12	16	21	24	0.766756336318	0.294629265675	0.285595677252	-0.548828125	0.0615234375	0.37353515625	-33.5625	118.5	-77.8125
18	12	12	16	21	24	0.753739180603	0.298651373447	0.30957689886	-0.5234375	-0.06787109375	0.34375	-21.4375	131.4375	-82.625
18	12	12	16	21	24	0.739027906882	0.304876477938	0.332709045294	-0.47119140625	-0.13720703125	0.310546875	-5.75	137.625	-82.3125
18	12	12	16	21	24	0.722925488128	0.312693961135	0.354748643786	-0.41943359375	-0.14111328125	0.275390625	6.8125	140.0	-82.1875
18	12	12	16	21	24	0.705936176654	0.32068032787	0.375917422792	-0.3984375	-0.10791015625	0.21240234375	11.125	138.375	-84.0625
18	12	12	16	21	24	0.688923345891	0.327096678536	0.397044951273	-0.40380859375	-0.07568359375	0.16357421875	3.25	133.875	-86.125
18	12	12	16	21	24	0.672744320093	0.330634728901	0.418527291134	-0.4169921875	-0.048828125	0.1201171875	-13.1875	126.75	-87.125
18	12	12	16	21	24	0.657713191111	0.330931785653	0.440428580833	-0.4384765625	-0.02392578125	0.08544921875	-32.25	118.0625	-88.1875
18	12	12	16	21	24	0.643724134416	0.327599794179	0.463168853778	-0.50439453125	0.00927734375	0.06494140625	-53.6875	109.375	-92.9375
18	12	12	16	21	24	0.630330108699	0.320749948796	0.487076040227	-0.65966796875	0.02294921875	0.07666015625	-73.9375	103.375	-99.8125
18	12	12	16	21	24	0.614876664516	0.311466708261	0.51300758043	-1.06201171875	0.1044921875	0.05908203125	-84.4375	106.625	-120.3125
18	12	12	16	21	24	0.594129241907	0.301154066116	0.539562615416	-1.7001953125	-0.01806640625	-0.03662109375	-67.5	110.8125	-155.8125
18	12	12	16	21	24	0.571294816223	0.297000061511	0.561407021327	-2.04443359375	-0.40771484375	0.0322265625	-22.9375	118.0	-136.5
18	12	12	16	21	24	0.542571133999	0.30958721922	0.572968301817	-2.2314453125	-0.91455078125	0.19384765625	91.5	146.625	-95.4375
18	12	12	16	21	24	0.505633085852	0.347485412573	0.565571725435	-2.3798828125	-1.33642578125	0.201171875	273.625	177.3125	-38.75
18	12	12	16	21	24	0.461057948066	0.398558167973	0.544614782975	-2.05615234375	-1.10693359375	0.3076171875	385.875	197.125	3.1875
18	12	12	16	21	24	0.41461320728	0.447816443665	0.517213649123	-1.7158203125	-0.52734375	0.44970703125	401.0625	186.625	1.75
18	12	12	16	21	24	0.379407214625	0.476578431755	0.502030942775	-1.5859375	0.3671875	0.55078125	249.375	140.4375	-42.625
18	12	12	16	21	24	0.380450279126	0.478843645073	0.507287384857	-1.31005859375	0.7080078125	0.50634765625	-46.9375	66.3125	-61.1875
18	12	12	16	21	24	0.395931704548	0.455501512416	0.545954847723	-1.03515625	0.32470703125	0.21337890625	-305.0625	32.6875	-73.9375
18	12	12	16	21	24	0.415165467988	0.423649443297	0.591619947252	-1.05712890625	-0.29736328125	0.0146484375	-385.5625	30.375	-75.8125
18	12	12	16	21	25	0.426831089779	0.401134551984	0.624712741868	-1.07470703125	-0.8271484375	0.2021484375	-288.75	46.625	-42.25
18	12	12	16	21	25	0.429156205672	0.395951686275	0.637538979981	-0.86083984375	-0.65087890625	0.23974609375	-107.9375	45.25	-1.5625
18	12	12	16	21	25	0.427746946957	0.401073799723	0.636249168819	-0.7314453125	-0.36181640625	0.16015625	8.625	36.6875	29.6875
18	12	12	16	21	25	0.424260378916	0.411748024193	0.627998135328	-0.58056640625	-0.2470703125	0.13720703125	69.625	26.375	41.3125
18	12	12	16	21	25	0.419811105713	0.422008430488	0.61708204111	-0.458984375	-0.12841796875	0.18115234375	93.5	14.875	28.4375
18	12	12	16	21	25	0.415837437226	0.428227720473	0.607245950824	-0.390625	-0.07275390625	0.22119140625	82.75	2.625	8.25
18	12	12	16	21	25	0.413518824861	0.429388181978	0.60053309488	-0.35009765625	-0.0654296875	0.27392578125	52.75	-5.0625	-9.0625
18	12	12	16	21	25	0.413336420602	0.427679902416	0.596139518609	-0.353515625	-0.0615234375	0.2998046875	25.5625	-9.1875	-13.8125
18	12	12	16	21	25	0.415292827661	0.42450934985	0.592481992666	-0.34228515625	-0.03173828125	0.30615234375	9.6875	-15.625	-12.9375
18	12	12	16	21	25	0.418603365267	0.420556603483	0.588718206182	-0.36865234375	0.005859375	0.30078125	4.125	-22.625	-12.625
18	12	12	16	21	25	0.423477442432	0.415969842919	0.584372014102	-0.4599609375	0.00830078125	0.29052734375	-0.5	-31.75	-10.3125
18	12	12	16	21	25	0.430430282069	0.410471305575	0.578749281705	-0.56640625	-0.02587890625	0.31591796875	-2.75	-43.875	-4.0625
18	12	12	16	21	25	0.439344307127	0.405957069561	0.569841407521	-0.72021484375	0.04052734375	0.49267578125	4.75	-47.0	3.8125
18	12	12	16	21	25	0.447153226285	0.406502932986	0.558605832236	-1.38134765625	0.2744140625	0.50732421875	24.375	-32.625	-4.125
18	12	12	16	21	25	0.450821237778	0.409743158571	0.547687377009	-2.36572265625	0.15380859375	0.03271484375	51.875	-50.0625	-21.25
18	12	12	16	21	25	0.458512514789	0.407180109978	0.531757325458	-1.97216796875	-0.146484375	0.0576171875	60.8125	-101.0	21.0625
18	12	12	16	21	25	0.464789237355	0.410772366041	0.508185842445	-2.28662109375	-0.55126953125	0.20458984375	115.0	-102.6875	52.125
18	12	12	16	21	25	0.468690670697	0.424562092118	0.471498298104	-2.26318359375	-0.53173828125	-0.0634765625	205.3125	-111.125	95.5
18	12	12	16	21	25	0.4749191826	0.441715733772	0.427921653928	-2.09130859375	-0.4873046875	-0.109375	227.1875	-120.6875	138.25
18	12	12	16	21	25	0.487370933451	0.455876456098	0.382755557128	-1.91162109375	-0.28125	-0.03369140625	194.875	-136.5	171.125
18	12	12	16	21	25	0.508854183702	0.461063272602	0.345217615811	-1.79345703125	-0.04345703125	0.013671875	98.5	-145.875	187.3125
18	12	12	16	21	25	0.540518166905	0.453788682355	0.32036809599	-1.716796875	0.00146484375	0.03955078125	-29.125	-151.8125	192.875
18	12	12	16	21	25	0.580394355895	0.43482273545	0.305059521586	-1.55224609375	-0.02099609375	0.0986328125	-133.3125	-161.625	198.875
18	12	12	16	21	25	0.624154141174	0.407415303377	0.29437663044	-1.322265625	-0.06201171875	0.19091796875	-195.0	-169.625	202.1875
18	12	12	16	21	25	0.666655837431	0.37629859346	0.283826189714	-1.08154296875	-0.17041015625	0.24609375	-207.25	-174.8125	198.25
18	12	12	16	21	25	0.704656730169	0.347292922881	0.269289345475	-0.859375	-0.29443359375	0.27197265625	-174.125	-174.6875	194.6875
18	12	12	16	21	25	0.737459459061	0.325331809038	0.24872929115	-0.6669921875	-0.3037109375	0.29345703125	-114.75	-167.8125	199.0625
18	12	12	16	21	25	0.765034551502	0.312019836228	0.223821740893	-0.56494140625	-0.224609375	0.21435546875	-56.0	-152.5625	202.5
18	12	12	16	21	25	0.788770867423	0.305058948803	0.196780722477	-0.5087890625	-0.1162109375	0.06689453125	-17.9375	-138.1875	205.375
18	12	12	16	21	25	0.809655684252	0.301095476096	0.169255575758	-0.447265625	-0.0439453125	-0.06494140625	-0.25	-128.125	203.6875
18	12	12	16	21	25	0.828445023614	0.296819284597	0.143068970408	-0.38525390625	0.0673828125	-0.1240234375	-3.5625	-120.0625	194.1875
18	12	12	16	21	25	0.843613049538	0.294144510941	0.118475720219	-0.36767578125	0.072265625	-0.19677734375	7.0	-109.8125	173.6875
18	12	12	16	21	25	0.855246494574	0.292365879889	0.0950341701436	-0.345703125	0.03662109375	-0.26904296875	16.6875	-105.1875	147.375
18	12	12	16	21	25	0.863032071414	0.293272213801	0.0708614027519	-0.3349609375	0.02392578125	-0.267578125	40.4375	-106.8125	121.0
18	12	12	16	21	25	0.867141347209	0.29749045726	0.0460212976558	-0.3369140625	0.0595703125	-0.20947265625	65.6875	-106.75	96.6875
18	12	12	16	21	25	0.868566694825	0.303357447174	0.0220956530939	-0.337890625	0.169921875	-0.099609375	76.5625	-101.75	75.125
18	12	12	16	21	25	0.867046763488	0.310684127149	0.00268567811288	-0.34228515625	0.2734375	0.04150390625	68.5	-95.75	47.5625
18	12	12	16	21	25	0.864215601696	0.313483390798	-0.0126345525497	-0.36474609375	0.32373046875	0.185546875	42.3125	-94.0	10.5625
18	12	12	16	21	25	0.861241660367	0.306836415781	-0.0253916747493	-0.31591796875	0.38916015625	0.431640625	-1.125	-101.125	-36.125
18	12	12	16	21	25	0.856642239345	0.292485187812	-0.031311540348	-0.18359375	0.7119140625	0.92578125	-59.1875	-95.4375	-97.8125
18	12	12	16	21	25	0.848673765125	0.269178028208	-0.0186166209985	0.1513671875	1.15234375	1.23046875	-144.0	-41.0	-194.8125
18	12	12	16	21	25	0.832722678295	0.246771075888	0.0200810497075	0.3837890625	0.93798828125	1.71875	-191.875	80.0625	-303.3125
18	12	12	16	21	25	0.806230055685	0.245671585596	0.0852678770378	0.10009765625	0.0380859375	2.1396484375	-137.4375	276.4375	-342.75
18	12	12	16	21	25	0.77337843261	0.280884503738	0.147339242074	-0.74462890625	-0.89208984375	1.97900390625	28.4375	386.6875	-251.875
18	12	12	16	21	25	0.739235797929	0.336748732324	0.188486511766	-1.47021484375	-1.24560546875	1.5908203125	176.1875	382.8125	-140.3125
18	12	12	16	21	25	0.698263402185	0.387523980811	0.218512498236	-1.19482421875	-0.412109375	1.11279296875	220.0625	316.875	-159.9375
18	12	12	16	21	25	0.646126751127	0.42493240519	0.250796790136	-1.5830078125	0.662109375	0.720703125	185.875	263.875	-281.3125
18	12	12	16	21	25	0.603109485319	0.435134856881	0.291697219952	-1.5205078125	0.9150390625	0.39501953125	27.4375	195.375	-309.5
18	12	12	16	21	25	0.575326000911	0.420172309598	0.35150673024	-1.2900390625	0.40966796875	-0.03759765625	-182.75	177.8125	-295.375
18	12	12	16	21	25	0.551581756075	0.400334705997	0.414800222893	-1.583984375	-0.3515625	-0.2802734375	-236.3125	184.8125	-256.5
18	12	12	16	21	26	0.528951553725	0.3911897655	0.459246652461	-1.26220703125	-0.833984375	-0.18603515625	-140.625	167.875	-172.0625
18	12	12	16	21	26	0.503609281245	0.397467414794	0.480293471593	-1.0244140625	-0.7802734375	-0.1298828125	10.6875	142.9375	-111.4375
18	12	12	16	21	26	0.478157215218	0.411749881779	0.482856998926	-0.9970703125	-0.49560546875	-0.0869140625	117.0625	100.875	-75.25
18	12	12	16	21	26	0.45646787173	0.425585034038	0.476975052489	-0.89697265625	-0.203125	-0.00244140625	142.75	61.5	-55.1875
18	12	12	16	21	26	0.43835902056	0.435246195435	0.471196273841	-0.8310546875	-0.02880859375	0.08349609375	118.75	41.5	-54.3125
18	12	12	16	21	26	0.424443769583	0.441961077876	0.467413055431	-0.79296875	0.02783203125	0.18505859375	82.5	36.25	-55.875
18	12	12	16	21	26	0.412855991399	0.446975816826	0.465225956008	-0.72509765625	0.1005859375	0.30078125	59.0625	41.625	-55.625
18	12	12	16	21	26	0.402156171085	0.452082373535	0.464289269	-0.677734375	0.15869140625	0.3603515625	45.3125	51.8125	-54.0625
18	12	12	16	21	26	0.393376416552	0.457036866895	0.463872888409	-0.6708984375	0.18408203125	0.42041015625	32.6875	56.4375	-46.875
18	12	12	16	21	26	0.387582906055	0.461132103189	0.463146313566	-0.62841796875	0.21240234375	0.509765625	18.8125	54.0625	-35.9375
18	12	12	16	21	26	0.38569491666	0.463517518138	0.4632733688	-0.53173828125	0.267578125	0.57080078125	-4.375	48.8125	-26.6875
18	12	12	16	21	26	0.387882029696	0.462894935203	0.467533650271	-0.455078125	0.3095703125	0.54296875	-45.625	43.625	-24.6875
18	12	12	16	21	26	0.391718328422	0.457452301577	0.482842582759	-0.44775390625	0.30322265625	0.47509765625	-107.8125	36.25	-26.5
18	12	12	16	21	26	0.40154441574	0.446038393408	0.504875422861	-0.47607421875	0.22216796875	0.38623046875	-176.3125	26.0625	-25.0625
18	12	12	16	21	26	0.416204425429	0.429449235565	0.530830017298	-0.5205078125	0.0703125	0.33056640625	-227.4375	14.0625	-20.375
18	12	12	16	21	26	0.433720226441	0.409855237905	0.556035922161	-0.58984375	-0.08740234375	0.2861328125	-244.6875	-2.4375	-10.875
18	12	12	16	21	26	0.451853668755	0.39057296047	0.576185145623	-0.78662109375	-0.13623046875	0.31640625	-224.5625	-18.5625	0.75
18	12	12	16	21	26	0.469435814414	0.372142785136	0.590777434367	-1.28076171875	0.00146484375	0.19384765625	-192.625	-37.6875	1.5
18	12	12	16	21	26	0.48872068534	0.35218163537	0.599929513701	-1.6640625	-0.08642578125	-0.08251953125	-169.875	-75.1875	3.125
18	12	12	16	21	26	0.509418272164	0.332470803795	0.602805518319	-1.99658203125	-0.474609375	-0.1298828125	-139.875	-106.0625	15.8125
18	12	12	16	21	26	0.52710958376	0.322943122704	0.591686001038	-2.390625	-0.873046875	-0.1572265625	-24.4375	-124.3125	37.125
18	12	12	16	21	26	0.53907690514	0.329903835177	0.562698141812	-2.36474609375	-0.9677734375	-0.37109375	137.0625	-135.875	66.25
18	12	12	16	21	26	0.546090776946	0.352117770449	0.520760758791	-1.99169921875	-0.9248046875	-0.37158203125	255.5625	-137.5625	116.1875
18	12	12	16	21	26	0.552384024713	0.380443052601	0.470350419275	-1.62451171875	-0.56884765625	-0.24853515625	298.6875	-138.6875	150.125
18	12	12	16	21	26	0.562222761641	0.405476691519	0.419942742383	-1.39404296875	-0.1982421875	-0.15087890625	258.375	-141.125	173.0625
18	12	12	16	21	26	0.57990455307	0.419745670083	0.375738598958	-1.3505859375	0.0185546875	0.025390625	160.3125	-151.8125	188.25
18	12	12	16	21	26	0.605305546949	0.421827834523	0.339061441293	-1.36669921875	0.15478515625	0.1787109375	58.5625	-165.3125	194.875
18	12	12	16	21	26	0.636558481187	0.413405944298	0.308299634526	-1.3642578125	0.1923828125	0.234375	-22.625	-178.3125	199.375
18	12	12	16	21	26	0.671401083088	0.396248711946	0.282293637208	-1.19140625	0.1337890625	0.2548828125	-85.25	-186.0625	201.125
18	12	12	16	21	26	0.705082062337	0.373964490646	0.260499501563	-0.95703125	0.00439453125	0.2978515625	-116.8125	-180.0	186.25
18	12	12	16	21	26	0.734086206527	0.351814491928	0.241399430183	-0.74853515625	-0.14306640625	0.3388671875	-111.8125	-161.0	164.125
18	12	12	16	21	26	0.757577298732	0.335086961814	0.223025092617	-0.595703125	-0.2099609375	0.35546875	-77.9375	-134.0625	151.375
18	12	12	16	21	26	0.776322699255	0.326056754416	0.203983839996	-0.4765625	-0.1904296875	0.33203125	-33.5625	-107.3125	147.5625
18	12	12	16	21	26	0.79182999784	0.322579321559	0.185246592419	-0.3720703125	-0.1025390625	0.2919921875	-5.625	-85.0625	145.0625
18	12	12	16	21	26	0.805423616921	0.32074121756	0.16870194583	-0.2841796875	-0.0009765625	0.21240234375	-2.625	-67.75	138.0625
18	12	12	16	21	26	0.817387736291	0.318422328273	0.1549081597	-0.228515625	0.05712890625	0.14208984375	-9.25	-56.25	123.6875
18	12	12	16	21	26	0.827649244482	0.314885136599	0.144350329144	-0.20068359375	0.1025390625	0.08837890625	-20.0625	-46.375	103.3125
18	12	12	16	21	26	0.835796363585	0.310867660829	0.137458074256	-0.1650390625	0.12158203125	0.05859375	-29.625	-37.5	79.375
18	12	12	16	21	26	0.841640177465	0.306711283759	0.133121852712	-0.12890625	0.1123046875	0.064453125	-29.5	-27.875	52.5625
18	12	12	16	21	26	0.844426945252	0.30444536342	0.131348520866	-0.13427734375	0.10546875	0.091796875	-17.375	-14.4375	24.5
18	12	12	16	21	26	0.843828514803	0.305487285106	0.131777632077	-0.16748046875	0.1083984375	0.13037109375	3.1875	-0.25	-1.625
18	12	12	16	21	26	0.839737307082	0.309698146252	0.134340878971	-0.240234375	0.14697265625	0.1708984375	21.5	11.25	-30.3125
18	12	12	16	21	26	0.832324835626	0.315974603948	0.139463389998	-0.330078125	0.203125	0.26904296875	33.8125	22.9375	-59.625
18	12	12	16	21	26	0.821618111072	0.323129505981	0.14831973924	-0.44580078125	0.35546875	0.41650390625	34.0	39.375	-95.1875
18	12	12	16	21	26	0.80599257749	0.328378649519	0.16437243553	-0.6259765625	0.59716796875	0.501953125	24.25	64.75	-155.125
18	12	12	16	21	26	0.783578047908	0.331973905793	0.190370768922	-0.77783203125	0.5888671875	0.60400390625	9.5	100.5625	-223.5
18	12	12	16	21	26	0.754156030617	0.335878976731	0.227052479273	-0.85986328125	0.322265625	0.8515625	0.4375	156.25	-270.0
18	12	12	16	21	26	0.714046603515	0.348142732409	0.275755411119	-1.1591796875	-0.0107421875	1.01318359375	21.8125	253.25	-299.6875
18	12	12	16	21	26	0.657984554392	0.375502873713	0.333570091814	-2.01123046875	-0.576171875	0.84912109375	83.5	366.75	-316.0
18	12	12	16	21	26	0.597914815482	0.422129324609	0.382943808936	-2.6796875	-1.080078125	0.60986328125	151.8125	446.875	-220.8125
18	12	12	16	21	27	0.545682223519	0.464135081391	0.419577136965	-2.4052734375	-0.81005859375	0.32080078125	138.8125	391.75	-144.5625
18	12	12	16	21	27	0.498189252052	0.485981723209	0.44960328726	-2.14794921875	-0.5537109375	-0.3525390625	105.9375	260.8125	-178.4375
18	12	12	16	21	27	0.476091918527	0.473467309232	0.49000845153	-1.40771484375	-0.0771484375	-0.1240234375	-114.0	139.3125	-205.375
18	12	12	16	21	27	0.461801961702	0.450510214027	0.538219627054	-1.0859375	-0.0595703125	-0.2314453125	-215.4375	131.5	-206.1875
18	12	12	16	21	27	0.448369176054	0.428654604332	0.588324324528	-1.2705078125	-0.2373046875	-0.59375	-250.3125	158.3125	-176.8125
18	12	12	16	21	27	0.441038520115	0.405760321301	0.637265871647	-1.34716796875	-0.24169921875	-0.4912109375	-300.8125	162.0625	-133.3125
18	12	12	16	21	27	0.438253501158	0.387469808545	0.673921574692	-1.22900390625	-0.1953125	-0.197265625	-263.1875	130.4375	-78.3125
18	12	12	16	21	27	0.436609256283	0.378988798023	0.696084434314	-1.04931640625	-0.4794921875	-0.02294921875	-175.75	101.1875	-19.5625
18	12	12	16	21	27	0.426476988194	0.379599311519	0.703409304702	-0.70166015625	-0.6875	0.13427734375	-19.125	87.875	-1.0625
18	12	12	16	21	27	0.4054664103	0.394113594958	0.69960198628	-0.6357421875	-0.6064453125	0.14501953125	141.25	86.625	-10.5
18	12	12	16	21	27	0.375923231151	0.413216475871	0.688063416912	-0.681640625	-0.32421875	0.2099609375	242.8125	86.625	-30.875
18	12	12	16	21	27	0.344978148686	0.431527868225	0.673049194189	-0.64013671875	-0.14306640625	0.2197265625	263.4375	77.3125	-37.6875
18	12	12	16	21	27	0.316969956024	0.445149603174	0.658904424278	-0.49853515625	0.07568359375	0.291015625	231.6875	62.9375	-45.5625
18	12	12	16	21	27	0.29315571221	0.453619249042	0.647713599412	-0.3828125	0.2626953125	0.35205078125	185.0625	49.3125	-53.75
18	12	12	16	21	27	0.2752697473	0.456117698796	0.642458838155	-0.30224609375	0.4208984375	0.35546875	115.9375	36.875	-63.3125
18	12	12	16	21	27	0.27087374039	0.45507764947	0.640807435861	-0.33837890625	0.5380859375	0.38330078125	29.8125	25.8125	-63.3125
18	12	12	16	21	27	0.27448036368	0.450142913529	0.645215015446	-0.39453125	0.4658203125	0.30810546875	-43.9375	9.5625	-54.0
18	12	12	16	21	27	0.283646173421	0.440759418608	0.652868403466	-0.45263671875	0.220703125	0.2900390625	-90.4375	-11.875	-43.75
18	12	12	16	21	27	0.292611019315	0.430920691774	0.663166192085	-0.49951171875	0.20166015625	0.4189453125	-108.375	-15.75	-26.625
18	12	12	16	21	27	0.30310793802	0.421457976647	0.672745810081	-0.79541015625	0.2705078125	0.22021484375	-110.8125	-21.125	-20.3125
18	12	12	16	21	27	0.318181593435	0.409186534124	0.679454728203	-1.59423828125	-0.0390625	-0.0615234375	-107.875	-58.375	-16.125
18	12	12	16	21	27	0.340585780488	0.397044892845	0.6783028277	-1.9091796875	-0.4296875	-0.177734375	-84.6875	-112.8125	20.25
18	12	12	16	21	27	0.363597333101	0.392406791088	0.665913530995	-2.560546875	-0.97412109375	-0.34765625	-9.0625	-136.375	70.625
18	12	12	16	21	27	0.386059755598	0.401319034476	0.630330291868	-2.75146484375	-1.76318359375	-0.7060546875	153.625	-180.5625	137.1875
18	12	12	16	21	27	0.402536427306	0.425181008736	0.570875391144	-2.2890625	-1.48095703125	-0.67919921875	325.4375	-197.4375	197.6875
18	12	12	16	21	27	0.418828932492	0.452520796487	0.505316923944	-1.8984375	-0.7958984375	-0.5546875	336.0	-195.5625	244.0
18	12	12	16	21	27	0.447212317632	0.471748874434	0.447273353843	-1.69189453125	-0.33740234375	-0.3916015625	207.0	-194.0	281.0625
18	12	12	16	21	27	0.493426957295	0.474688452113	0.405594029098	-1.6591796875	0.041015625	-0.21533203125	7.3125	-201.75	304.5
18	12	12	16	21	27	0.553425740707	0.457841235364	0.378675779789	-1.638671875	0.24365234375	-0.10986328125	-169.3125	-225.4375	303.0
18	12	12	16	21	27	0.619650478417	0.425002588773	0.356030461053	-1.79052734375	0.28125	0.0302734375	-265.4375	-264.0625	300.0625
18	12	12	16	21	27	0.684905579729	0.380631957507	0.331801687141	-1.56787109375	0.0185546875	0.10400390625	-301.8125	-299.25	289.75
18	12	12	16	21	27	0.737895140572	0.338947118504	0.302812291536	-1.0615234375	-0.3564453125	0.24169921875	-238.375	-290.3125	256.5
18	12	12	16	21	27	0.774015137985	0.317455463501	0.263498411062	-0.66748046875	-0.60009765625	0.38525390625	-73.1875	-257.125	232.0625
18	12	12	16	21	27	0.797642882477	0.320815043641	0.216684437771	-0.4560546875	-0.50048828125	0.310546875	81.4375	-203.625	242.875
18	12	12	16	21	27	0.813612078179	0.338018281242	0.17261027435	-0.4140625	-0.17431640625	0.1708984375	142.3125	-138.6875	250.25
18	12	12	16	21	27	0.825592541163	0.356763891993	0.136540774403	-0.3984375	0.06787109375	0.02587890625	129.75	-89.0625	238.6875
18	12	12	16	21	27	0.836879011528	0.36909104972	0.109317359029	-0.35595703125	0.15234375	-0.1123046875	77.0625	-60.125	217.625
18	12	12	16	21	27	0.848473260128	0.371836493828	0.0908228336861	-0.271484375	0.14453125	-0.240234375	11.125	-45.125	182.0625
18	12	12	16	21	27	0.859589582274	0.366346422837	0.0792265339623	-0.17919921875	0.06103515625	-0.294921875	-39.3125	-39.0	134.8125
18	12	12	16	21	27	0.867508068597	0.358038579497	0.0748304293323	-0.185546875	-0.0068359375	-0.28125	-63.6875	-37.0625	78.9375
18	12	12	16	21	27	0.872263863344	0.348392843885	0.0744027464429	-0.29150390625	-0.04296875	-0.23974609375	-65.125	-39.25	28.75
18	12	12	16	21	27	0.875015486909	0.338445931564	0.0761121869542	-0.37548828125	-0.06201171875	-0.181640625	-60.875	-41.0625	0.0
18	12	12	16	21	27	0.87660278992	0.327581616314	0.0791029951077	-0.376953125	-0.08251953125	-0.091796875	-60.0	-40.0625	-20.875
18	12	12	16	21	27	0.876439400986	0.316907400927	0.083926748127	-0.3251953125	-0.05078125	0.046875	-54.6875	-30.375	-47.875
18	12	12	16	21	27	0.871783291248	0.309881941446	0.0929584787909	-0.39111328125	0.16357421875	0.185546875	-40.8125	-10.5	-97.0
18	12	12	16	21	27	0.859635227986	0.30878263408	0.107057667558	-0.64990234375	0.55419921875	0.3740234375	-5.5	24.625	-174.5
18	12	12	16	21	27	0.83723647377	0.31561929036	0.128481648851	-0.92626953125	1.0400390625	0.58642578125	36.875	65.9375	-258.5625
18	12	12	16	21	27	0.802330384486	0.326608587857	0.168583987976	-1.267578125	1.20947265625	0.98779296875	39.3125	162.6875	-359.0
18	12	12	16	21	27	0.75872591597	0.342833518623	0.230223968711	-1.7919921875	-0.03955078125	1.439453125	30.5625	303.75	-363.4375
18	12	12	16	21	27	0.717592903695	0.370667832282	0.288514217552	-1.953125	-1.09130859375	1.64453125	47.4375	368.5	-242.6875
18	12	12	16	21	28	0.66505972427	0.410718326415	0.341929568223	-1.54931640625	-0.79931640625	1.5009765625	131.4375	410.3125	-233.375
18	12	12	16	21	28	0.595999116706	0.450066306871	0.388910022699	-1.86767578125	-0.45556640625	0.63037109375	212.4375	392.0	-298.0
18	12	12	16	21	28	0.533318464191	0.461175820031	0.433588277594	-2.09814453125	-0.5458984375	0.3828125	112.5625	270.375	-350.0625
18	12	12	16	21	28	0.483344422027	0.452338112343	0.469733384508	-1.5263671875	-0.44970703125	0.2109375	46.5625	145.6875	-344.25
18	12	12	16	21	28	0.434461221895	0.442884325102	0.501357751707	-1.35498046875	-0.544921875	-0.22607421875	47.75	131.6875	-320.5
18	12	12	16	21	28	0.390217418239	0.43984150099	0.526088523041	-1.31982421875	-0.37939453125	-0.33544921875	53.5625	142.9375	-253.6875
18	12	12	16	21	28	0.355893264282	0.43847319681	0.545528039127	-1.064453125	0.01806640625	-0.2509765625	30.9375	125.4375	-192.0
18	12	12	16	21	28	0.33184848635	0.431335893513	0.568909277407	-0.80810546875	0.2685546875	-0.22998046875	-44.25	100.8125	-171.0625
18	12	12	16	21	28	0.318242991217	0.418769689824	0.598826618111	-0.76953125	0.2021484375	0.1494140625	-138.125	91.0625	-148.0625
18	12	12	16	21	28	0.309156427537	0.403154630579	0.631863245383	-0.5244140625	0.05126953125	0.1787109375	-186.5	85.625	-135.9375
18	12	12	16	21	28	0.299447859992	0.388745091783	0.662618419909	-0.4228515625	-0.10107421875	0.240234375	-179.5625	91.125	-123.8125
18	12	12	16	21	28	0.28895509873	0.376300841502	0.687351788508	-0.46630859375	-0.10107421875	0.42578125	-142.625	85.1875	-112.125
18	12	12	16	21	28	0.281020305674	0.365741457776	0.707006559649	-0.4462890625	0.05126953125	0.52001953125	-121.6875	69.4375	-91.4375
18	12	12	16	21	28	0.276445387521	0.356345368149	0.723555668729	-0.4248046875	0.19580078125	0.642578125	-116.3125	55.5	-71.75
18	12	12	16	21	28	0.274662251944	0.345525112945	0.737010376049	-0.71435546875	0.287109375	0.50830078125	-101.5625	28.75	-71.6875
18	12	12	16	21	28	0.285711268226	0.334540367688	0.740737438835	-1.04638671875	0.12451171875	0.30712890625	-76.0625	-25.75	-63.0625
18	12	12	16	21	28	0.303421231839	0.325761238046	0.738135778844	-1.138671875	0.0341796875	0.17919921875	-49.625	-69.8125	-25.6875
18	12	12	16	21	28	0.320687332867	0.320076964894	0.731281868116	-1.50244140625	-0.177734375	-0.03076171875	-10.5625	-100.5	22.1875
18	12	12	16	21	28	0.341987319436	0.323432233748	0.711807267404	-2.2294921875	-0.6591796875	-0.38232421875	73.3125	-133.0625	80.25
18	12	12	16	21	28	0.363046220962	0.343148260634	0.670488019043	-2.97607421875	-1.19189453125	-0.7333984375	234.625	-158.5625	166.6875
18	12	12	16	21	28	0.381234488622	0.375558086534	0.610670998826	-2.5126953125	-1.0546875	-0.94384765625	355.5	-162.1875	227.0
18	12	12	16	21	28	0.399423571478	0.412790588922	0.546338690143	-2.0732421875	-0.8681640625	-0.68701171875	354.5	-149.1875	275.0
18	12	12	16	21	28	0.426111936707	0.444606696314	0.483854651522	-1.53369140625	-0.62890625	-0.26513671875	269.9375	-153.0	318.0
18	12	12	16	21	28	0.466494310311	0.464358067885	0.430117153573	-1.33056640625	-0.22314453125	0.14404296875	126.8125	-165.3125	347.375
18	12	12	16	21	28	0.525819570382	0.466676312843	0.386719999761	-1.47119140625	0.14306640625	0.345703125	-50.4375	-199.5625	386.875
18	12	12	16	21	28	0.601961247965	0.449731339992	0.349323080724	-1.63623046875	0.1865234375	0.4736328125	-209.6875	-243.8125	437.5
18	12	12	16	21	28	0.683990816145	0.41255523169	0.318312699107	-1.43798828125	-0.07275390625	0.29248046875	-338.8125	-271.625	448.5
18	12	12	16	21	28	0.758630868277	0.361889324806	0.289071992289	-1.12890625	-0.42919921875	0.10400390625	-382.3125	-285.375	414.8125
18	12	12	16	21	28	0.816502078466	0.312940581318	0.254832636435	-0.85595703125	-0.6455078125	0.1025390625	-311.375	-288.3125	353.125
18	12	12	16	21	28	0.856833889758	0.281196305037	0.212529961828	-0.615234375	-0.55078125	0.1630859375	-166.875	-272.5	306.1875
18	12	12	16	21	28	0.882719506079	0.27283613554	0.165899019328	-0.5419921875	-0.30224609375	0.10205078125	-15.9375	-234.6875	282.3125
18	12	12	16	21	28	0.898326772816	0.283572916599	0.120484919795	-0.5595703125	-0.0087890625	-0.01513671875	90.125	-182.3125	276.4375
18	12	12	16	21	28	0.907177614206	0.30182286902	0.0822154508737	-0.54345703125	0.20068359375	-0.1240234375	122.8125	-127.1875	258.0
18	12	12	16	21	28	0.910803889797	0.321607404861	0.052126157478	-0.42041015625	0.43505859375	-0.2216796875	124.3125	-85.125	213.8125
18	12	12	16	21	28	0.909834027706	0.341203019916	0.028077529367	-0.2353515625	0.38330078125	-0.41064453125	124.0625	-66.8125	148.9375
18	12	12	16	21	28	0.904831078943	0.356219250992	0.0116583065352	-0.2353515625	0.2734375	-0.4521484375	101.125	-66.0	37.5625
18	12	12	16	21	28	0.895292018381	0.367382237431	0.00537126381358	-0.48876953125	0.28125	-0.2451171875	61.25	-83.5625	-80.0
18	12	12	16	21	28	0.88996518237	0.360478318845	0.00292972558492	-0.5390625	0.130859375	0.0068359375	-21.5	-86.8125	-137.9375
18	12	12	16	21	28	0.885546786443	0.34364684365	0.00683631376356	-0.25732421875	-0.13427734375	0.1826171875	-79.0	-78.4375	-181.625
18	12	12	16	21	28	0.877282638902	0.328744471796	0.0191655707657	0.0341796875	-0.3427734375	0.3271484375	-72.3125	-34.375	-224.4375
18	12	12	16	21	28	0.862743679129	0.322819336322	0.0441900547357	0.19140625	-0.35546875	0.36474609375	-40.125	49.3125	-265.4375
18	12	12	16	21	28	0.842313432	0.327342531581	0.0815457061704	0.03173828125	-0.1064453125	0.37744140625	-9.375	140.4375	-280.0625
18	12	12	16	21	28	0.811407973391	0.348391508358	0.122803734201	-0.35595703125	0.32275390625	0.7255859375	77.375	205.5625	-300.1875
18	12	12	16	21	28	0.763708073229	0.388140955696	0.164314428799	-1.0810546875	0.5654296875	0.44287109375	194.875	251.75	-345.3125
18	12	12	16	21	28	0.715965742358	0.40992548386	0.215339057037	-1.86669921875	0.5859375	0.60107421875	87.8125	244.6875	-370.1875
18	12	12	16	21	28	0.672012364008	0.423593624543	0.272650247959	-1.94921875	0.91015625	0.828125	8.625	278.5625	-337.5625
18	12	12	16	21	28	0.615052168847	0.435669582339	0.34014942314	-1.90478515625	0.328125	0.58544921875	4.25	336.75	-398.8125
18	12	12	16	21	28	0.5468115418	0.447202608189	0.414793083834	-2.771484375	-0.67919921875	0.51025390625	-7.6875	407.375	-425.5625
18	12	12	16	21	28	0.476641679763	0.462847209328	0.481280528228	-2.94775390625	-1.27880859375	0.3203125	6.3125	433.0	-360.0
18	12	12	16	21	29	0.413295464901	0.476226734184	0.524874863785	-2.2724609375	-1.45068359375	-0.19384765625	61.6875	338.625	-287.1875
18	12	12	16	21	29	0.371285832205	0.474803960007	0.552076336066	-1.63525390625	-1.0791015625	-0.1025390625	35.0625	174.25	-216.75
18	12	12	16	21	29	0.348632878087	0.470398037713	0.565857040047	-1.12451171875	-0.498046875	-0.01025390625	20.125	76.0625	-134.0
18	12	12	16	21	29	0.344744242247	0.468774040449	0.580352028202	-1.19580078125	0.07666015625	-0.28564453125	-69.1875	55.5625	-69.25
18	12	12	16	21	29	0.356278109041	0.455342589249	0.608242480143	-1.20458984375	0.208984375	-0.31298828125	-232.5	40.125	-41.125
18	12	12	16	21	29	0.370973301448	0.437746054292	0.634768399977	-1.09326171875	-0.38720703125	-0.05517578125	-249.625	19.3125	-31.5625
18	12	12	16	21	29	0.379408874788	0.426041497107	0.651269738414	-0.80517578125	-0.60888671875	0.2294921875	-160.875	19.375	-17.3125
18	12	12	16	21	29	0.377584102957	0.422996739977	0.653600157528	-0.671875	-0.4580078125	0.32373046875	-19.75	32.0	-10.9375
18	12	12	16	21	29	0.367499653859	0.430122913261	0.645520069625	-0.59912109375	-0.16455078125	0.32470703125	96.625	41.375	-11.5625
18	12	12	16	21	29	0.349798806435	0.441658377834	0.635326431021	-0.5322265625	0.0283203125	0.3388671875	151.8125	47.8125	-19.5
18	12	12	16	21	29	0.331063248609	0.452282203576	0.623551280935	-0.45751953125	0.14794921875	0.40576171875	163.5	42.1875	-27.3125
18	12	12	16	21	29	0.313901625379	0.458737043816	0.612849741479	-0.376953125	0.2880859375	0.48291015625	147.25	26.6875	-41.0
18	12	12	16	21	29	0.306646575546	0.460152972341	0.601513137342	-0.35888671875	0.37744140625	0.51416015625	99.875	6.5625	-48.4375
18	12	12	16	21	29	0.307376365295	0.456914112509	0.594610911577	-0.37451171875	0.33349609375	0.54736328125	34.6875	-12.0625	-38.0625
18	12	12	16	21	29	0.312262110253	0.45026536109	0.590954212562	-0.38134765625	0.1376953125	0.5810546875	-6.4375	-22.9375	-27.5625
18	12	12	16	21	29	0.316475576325	0.443493064142	0.586990475895	-0.40185546875	-0.017578125	0.55078125	-2.8125	-24.9375	-21.5
18	12	12	16	21	29	0.319341463424	0.439338657058	0.580637488829	-0.50439453125	-0.0302734375	0.40673828125	20.875	-27.0625	-14.625
18	12	12	16	21	29	0.323489157089	0.43725968328	0.572026486837	-0.69921875	0.052734375	0.27392578125	32.75	-36.25	-8.1875
18	12	12	16	21	29	0.331485212213	0.434940825304	0.56336006421	-0.888671875	0.052734375	0.13720703125	20.125	-54.3125	3.3125
18	12	12	16	21	29	0.345166218501	0.431595107165	0.555561966542	-1.0810546875	-0.02783203125	0.08447265625	-8.4375	-70.9375	25.3125
18	12	12	16	21	29	0.364319603615	0.430176673862	0.548768228532	-1.75537109375	-0.02099609375	-0.12255859375	-34.8125	-81.75	44.0625
18	12	12	16	21	29	0.38903662797	0.423094117523	0.539426689363	-2.2890625	-0.65771484375	-0.49951171875	-44.9375	-127.9375	89.875
18	12	12	16	21	29	0.415229977326	0.422676406435	0.514536044224	-1.958984375	-1.31884765625	-0.291015625	41.0	-157.5625	153.4375
18	12	12	16	21	29	0.433668518281	0.436476224381	0.467238917303	-1.7001953125	-1.20458984375	-0.31298828125	205.9375	-165.75	198.875
18	12	12	16	21	29	0.446360521181	0.459910642294	0.404367353046	-1.6728515625	-0.89990234375	-0.28857421875	307.5	-161.625	234.125
18	12	12	16	21	29	0.456683946632	0.484517130228	0.339979896116	-1.97509765625	-0.42578125	-0.1279296875	306.8125	-140.5	242.0625
18	12	12	16	21	29	0.473516209692	0.503057566419	0.286868546732	-1.99267578125	0.20849609375	0.22509765625	202.625	-108.0	249.0
18	12	12	16	21	29	0.503314566213	0.509052083703	0.248910599201	-1.9580078125	0.5361328125	0.3017578125	54.375	-104.25	261.0
18	12	12	16	21	29	0.550054505221	0.494450903994	0.227602446734	-1.79931640625	0.4013671875	0.3095703125	-127.25	-135.625	273.1875
18	12	12	16	21	29	0.60579894267	0.459674744307	0.216927903501	-1.49072265625	0.1474609375	0.45166015625	-255.875	-178.25	260.625
18	12	12	16	21	29	0.657437885197	0.415484141169	0.2094816472	-1.13134765625	-0.263671875	0.60205078125	-282.9375	-197.0625	223.375
18	12	12	16	21	29	0.697409875254	0.375744371789	0.19916404892	-0.8115234375	-0.57958984375	0.6982421875	-219.5	-183.875	184.3125
18	12	12	16	21	29	0.725109616106	0.351934515696	0.181033259375	-0.61181640625	-0.6669921875	0.70068359375	-98.8125	-153.0625	167.5625
18	12	12	16	21	29	0.743914003327	0.344734680898	0.157413375006	-0.4990234375	-0.50439453125	0.5673828125	4.25	-114.375	163.9375
18	12	12	16	21	29	0.756118629109	0.348883926702	0.132693081989	-0.453125	-0.27197265625	0.3681640625	65.625	-79.6875	151.6875
18	12	12	16	21	29	0.764242040443	0.357797846904	0.110964941261	-0.486328125	-0.05517578125	0.162109375	81.375	-52.5	134.0
18	12	12	16	21	29	0.771562082671	0.366096778092	0.0947896459448	-0.552734375	0.0927734375	-0.0234375	60.4375	-29.8125	122.8125
18	12	12	16	21	29	0.780240366001	0.369336967431	0.0857574680615	-0.56494140625	0.17431640625	-0.1572265625	11.375	-14.0625	111.5
18	12	12	16	21	29	0.788440414533	0.369318234118	0.085753118317	-0.48681640625	0.2265625	-0.1953125	-41.1875	-7.4375	91.1875
18	12	12	16	21	29	0.795354884009	0.364931843411	0.08972232979	-0.41259765625	0.2021484375	-0.171875	-65.4375	-5.1875	55.6875
18	12	12	16	21	29	0.799118902394	0.359151819561	0.096319097768	-0.3935546875	0.115234375	-0.1201171875	-63.5625	-4.6875	17.5625
18	12	12	16	21	29	0.800083172158	0.35310353608	0.103825257541	-0.369140625	0.048828125	-0.04833984375	-53.375	-5.625	-12.0
18	12	12	16	21	29	0.798720970845	0.347174452252	0.111147095209	-0.3154296875	0.0244140625	0.03857421875	-41.4375	-6.3125	-35.9375
18	12	12	16	21	29	0.795326370958	0.342057481416	0.118963246124	-0.2607421875	0.0498046875	0.10888671875	-32.875	-0.1875	-56.0625
18	12	12	16	21	29	0.790442288265	0.337540220394	0.128790210675	-0.22998046875	0.09375	0.162109375	-32.875	13.0625	-71.875
18	12	12	16	21	29	0.784164251297	0.333027177946	0.141792913191	-0.23583984375	0.1650390625	0.25732421875	-40.0	30.625	-89.25
18	12	12	16	21	29	0.775290437307	0.329049814795	0.160343881184	-0.2724609375	0.330078125	0.45556640625	-47.3125	59.75	-114.0625
18	12	12	16	21	29	0.760762962882	0.327340482183	0.18781030462	-0.4287109375	0.6142578125	0.5751953125	-53.75	106.5	-159.625
18	12	12	16	21	29	0.735876523976	0.328995891194	0.227916634085	-0.81396484375	0.5595703125	0.56787109375	-52.5	170.1875	-231.625
18	12	12	16	21	29	0.70094671044	0.334176527313	0.277107111233	-1.20263671875	0.08984375	0.7998046875	-39.375	230.0625	-276.8125
18	12	12	16	21	29	0.654552442057	0.354010086155	0.328252800577	-1.533203125	-0.36376953125	0.94775390625	33.0625	313.0625	-274.5
18	12	12	16	21	30	0.595184634509	0.389668619291	0.375080461395	-2.392578125	-0.9541015625	0.8212890625	121.9375	381.9375	-273.6875
18	12	12	16	21	30	0.537541087681	0.437198457029	0.408389623898	-2.7958984375	-1.28515625	0.7099609375	177.75	400.8125	-168.8125
18	12	12	16	21	30	0.484875454974	0.47571995167	0.43415396667	-2.31689453125	-0.9462890625	0.36083984375	157.25	340.9375	-145.9375
18	12	12	16	21	30	0.447153890127	0.484081013185	0.466136262476	-1.95458984375	-0.49609375	-0.091796875	15.25	210.3125	-186.5
18	12	12	16	21	30	0.439526502778	0.461255628592	0.51130586221	-1.212890625	-0.1357421875	-0.09619140625	-226.25	93.625	-179.0625
18	12	12	16	21	30	0.437451928786	0.433118304264	0.560258302543	-1.15234375	-0.76513671875	-0.451171875	-292.0625	88.8125	-153.75
18	12	12	16	21	30	0.435000895226	0.41199046482	0.599491903031	-1.30029296875	-0.9619140625	-0.216796875	-247.0	95.875	-104.375
18	12	12	16	21	30	0.424694728421	0.402721445548	0.620928351858	-1.13671875	-0.70068359375	-0.09228515625	-98.375	84.5	-68.375
18	12	12	16	21	30	0.410780115645	0.405164696531	0.625081599453	-1.0107421875	-0.6162109375	0.02685546875	35.5625	66.4375	-34.875
18	12	12	16	21	30	0.392898055476	0.416946810153	0.61904180187	-0.85693359375	-0.37353515625	0.13427734375	127.3125	62.6875	-23.75
18	12	12	16	21	30	0.370631551972	0.432464516753	0.607037349204	-0.74609375	-0.12548828125	0.1640625	184.125	63.0	-25.3125
18	12	12	16	21	30	0.345589684384	0.446117096991	0.594192083624	-0.62451171875	0.01220703125	0.2041015625	196.625	60.6875	-44.8125
18	12	12	16	21	30	0.320560272147	0.455022244641	0.583868919147	-0.49560546875	0.0986328125	0.2822265625	174.75	54.0	-65.5
18	12	12	16	21	30	0.299021272259	0.458938752014	0.577167820061	-0.39892578125	0.20703125	0.38330078125	132.4375	41.375	-75.5
18	12	12	16	21	30	0.2891904159	0.457650852347	0.570690246659	-0.3056640625	0.3310546875	0.49365234375	72.0625	18.3125	-70.5
18	12	12	16	21	30	0.288590188463	0.451685151148	0.568146673904	-0.1962890625	0.3701171875	0.55615234375	7.9375	-6.5	-55.375
18	12	12	16	21	30	0.293527149487	0.441725094789	0.569292518875	-0.0986328125	0.20703125	0.5615234375	-37.75	-25.1875	-40.0
18	12	12	16	21	30	0.299324107574	0.429637519008	0.570998577969	-0.08984375	0.0400390625	0.54833984375	-44.9375	-36.125	-35.5625
18	12	12	16	21	30	0.302434010635	0.419623374998	0.569406031325	-0.20263671875	-0.033203125	0.453125	-12.375	-38.0625	-33.8125
18	12	12	16	21	30	0.304320670072	0.413085097282	0.563231276259	-0.3427734375	0.013671875	0.38037109375	23.0	-39.1875	-27.0625
18	12	12	16	21	30	0.30664784418	0.411020418533	0.553846046594	-0.5283203125	0.2880859375	0.435546875	37.4375	-26.0	-24.875
18	12	12	16	21	30	0.308658337038	0.413701049722	0.546637149795	-1.37646484375	0.4599609375	0.12158203125	32.0625	-15.0	-46.75
18	12	12	16	21	30	0.310003093269	0.404487202027	0.546335437655	-2.41748046875	-0.1494140625	-0.3212890625	-1.625	-52.0	-32.5
18	12	12	16	21	30	0.321668345446	0.40461849373	0.53511696101	-2.13330078125	-0.9931640625	-0.171875	40.3125	-90.5625	57.8125
18	12	12	16	21	30	0.332336105127	0.416320399095	0.497924324265	-2.451171875	-1.2734375	-0.34814453125	188.6875	-94.0	133.4375
18	12	12	16	21	30	0.345344693671	0.439035769102	0.44739777388	-2.08740234375	-1.02880859375	-0.51171875	258.375	-93.9375	213.9375
18	12	12	16	21	30	0.366760473196	0.462707796189	0.398071527073	-1.93505859375	-0.8994140625	-0.20361328125	205.125	-79.0	270.625
18	12	12	16	21	30	0.393137163942	0.47828331263	0.35346333122	-1.88525390625	-0.56005859375	0.009765625	143.625	-98.75	267.375
18	12	12	16	21	30	0.429946305009	0.480485138136	0.321055872281	-1.81640625	-0.3486328125	0.07861328125	21.125	-127.5	263.0
18	12	12	16	21	30	0.482310083077	0.465769203235	0.303046008919	-1.7880859375	-0.0947265625	0.349609375	-138.25	-160.1875	274.4375
18	12	12	16	21	30	0.543906620821	0.439593253636	0.293347011521	-1.86279296875	-0.060546875	0.29443359375	-242.625	-177.5625	294.875
18	12	12	16	21	30	0.611745915882	0.400994778743	0.288630792797	-1.7607421875	-0.05517578125	0.25732421875	-330.4375	-199.3125	313.125
18	12	12	16	21	30	0.677200046517	0.353401376236	0.282721100988	-1.474609375	-0.30078125	0.30712890625	-355.8125	-222.0	308.3125
18	12	12	16	21	30	0.731109957842	0.308362623728	0.268627059982	-1.0810546875	-0.6533203125	0.46826171875	-284.4375	-229.0625	279.875
18	12	12	16	21	30	0.77243305948	0.2795530156	0.240794027629	-0.73974609375	-0.8466796875	0.55810546875	-139.9375	-221.375	269.125
18	12	12	16	21	30	0.803974591039	0.272711696991	0.201604014136	-0.51611328125	-0.658203125	0.56640625	7.0	-192.5	282.5625
18	12	12	16	21	30	0.826766487861	0.282486179832	0.158516985528	-0.49169921875	-0.3154296875	0.2763671875	103.0	-157.3125	279.875
18	12	12	16	21	30	0.843216231231	0.298833635042	0.119631112068	-0.44189453125	0.0341796875	-0.005859375	126.3125	-114.6875	263.375
18	12	12	16	21	30	0.853536913175	0.318855608869	0.0875876337533	-0.30419921875	-0.048828125	-0.34130859375	137.3125	-71.4375	231.5625
18	12	12	16	21	30	0.860326752245	0.335768532394	0.0581079154407	0.0185546875	-0.27099609375	-0.60546875	124.625	-69.25	194.875
18	12	12	16	21	30	0.859644757214	0.352854753015	0.0329599665504	0.123046875	-0.03662109375	-0.4912109375	131.9375	-66.5	105.9375
18	12	12	16	21	30	0.853463671848	0.365909655491	0.0177003836684	-0.18896484375	0.2822265625	-0.39013671875	102.125	-56.4375	7.75
18	12	12	16	21	30	0.84787601637	0.37080460726	0.0145880331087	-0.45458984375	0.43017578125	-0.24658203125	10.4375	-48.75	-34.125
18	12	12	16	21	30	0.846834018415	0.35865624133	0.019898218971	-0.36767578125	0.1474609375	-0.17822265625	-82.1875	-51.6875	-68.375
18	12	12	16	21	30	0.84463110095	0.338572677914	0.0293588350598	-0.1455078125	-0.20068359375	0.0615234375	-108.9375	-44.5	-128.1875
18	12	12	16	21	30	0.835232551422	0.323802154728	0.0439467580403	-0.0908203125	-0.32177734375	0.34619140625	-75.5625	-17.8125	-189.1875
18	12	12	16	21	30	0.816350317896	0.321596248598	0.0661014874229	-0.20166015625	-0.0791015625	0.5625	-17.9375	45.25	-244.9375
18	12	12	16	21	30	0.785471359984	0.332523736824	0.0976574851172	-0.57080078125	0.34765625	0.7041015625	36.9375	118.625	-313.4375
18	12	12	16	21	30	0.743535982197	0.352236591139	0.13653669284	-1.2060546875	0.64501953125	0.91650390625	74.125	176.8125	-361.375
18	12	12	16	21	30	0.697818783592	0.371767183667	0.190491771503	-1.83154296875	0.62841796875	1.265625	27.75	262.125	-365.75
18	12	12	16	21	31	0.661603719126	0.394496248428	0.240921660614	-1.82177734375	-0.31005859375	1.240234375	17.9375	297.875	-226.875
18	12	12	16	21	31	0.628429172093	0.415717860444	0.286137913634	-1.35107421875	-0.60302734375	1.2822265625	14.6875	293.1875	-178.1875
18	12	12	16	21	31	0.578613690796	0.441040351233	0.33471703379	-1.513671875	-0.30224609375	0.85498046875	60.9375	329.8125	-261.75
18	12	12	16	21	31	0.513906426231	0.463065089764	0.387199806177	-2.4111328125	-0.189453125	0.31494140625	77.0625	348.0	-348.9375
18	12	12	16	21	31	0.4566286693	0.472193474897	0.439110633197	-2.263671875	-0.61474609375	0.10595703125	6.875	299.0	-322.5
18	12	12	16	21	31	0.408944593908	0.471995305177	0.485667482645	-1.89208984375	-0.55126953125	-0.08349609375	-37.5625	240.75	-288.625
18	12	12	16	21	31	0.367370737535	0.473022630985	0.516906924104	-1.6591796875	-0.35546875	-0.2626953125	6.5	187.9375	-229.9375
18	12	12	16	21	31	0.34174724135	0.470230531766	0.538225964319	-1.283203125	-0.20849609375	-0.20361328125	-14.25	111.75	-157.0625
18	12	12	16	21	31	0.329169771927	0.464426626107	0.559887691061	-1.00390625	-0.13671875	-0.09814453125	-78.1875	82.3125	-108.625
18	12	12	16	21	31	0.324285795304	0.458687700303	0.579478513197	-0.931640625	-0.2470703125	0.0498046875	-103.1875	66.0	-67.75
18	12	12	16	21	31	0.320870391857	0.453564367869	0.593094464081	-0.75439453125	-0.3505859375	0.1474609375	-79.375	55.3125	-48.75
18	12	12	16	21	31	0.31513495787	0.449905050253	0.601643478544	-0.609375	-0.33935546875	0.20458984375	-38.9375	48.6875	-45.125
18	12	12	16	21	31	0.307446262821	0.446978158157	0.605370664017	-0.51513671875	-0.3046875	0.25634765625	0.75	37.75	-46.25
18	12	12	16	21	31	0.298103391921	0.443981177894	0.604629852655	-0.427734375	-0.27099609375	0.3232421875	36.1875	24.625	-50.3125
18	12	12	16	21	31	0.287055647981	0.44172267158	0.598831163586	-0.3310546875	-0.1962890625	0.37060546875	75.125	12.8125	-50.9375
18	12	12	16	21	31	0.274119670032	0.441545689827	0.59084355509	-0.24755859375	-0.0751953125	0.39990234375	104.3125	2.0625	-48.9375
18	12	12	16	21	31	0.262156837181	0.440753089938	0.580773528702	-0.18505859375	0.076171875	0.4111328125	112.25	-10.0625	-45.6875
18	12	12	16	21	31	0.256105831637	0.437931206386	0.567998300575	-0.1337890625	0.1943359375	0.4072265625	96.5	-24.5625	-38.6875
18	12	12	16	21	31	0.255434024908	0.4332917904	0.556766828008	-0.14404296875	0.2626953125	0.404296875	64.625	-40.125	-29.25
18	12	12	16	21	31	0.260066289499	0.426628341609	0.547964127463	-0.224609375	0.35595703125	0.4931640625	25.5625	-48.625	-25.0
18	12	12	16	21	31	0.268924260069	0.419560908695	0.543402788786	-0.333984375	0.55615234375	0.50830078125	-19.8125	-44.5	-28.8125
18	12	12	16	21	31	0.279787888629	0.411991328152	0.54590376874	-0.57470703125	0.69677734375	0.44384765625	-70.625	-31.75	-46.625
18	12	12	16	21	31	0.283024901741	0.398505409417	0.563181101652	-1.57958984375	0.76708984375	0.26318359375	-122.5625	-14.6875	-84.125
18	12	12	16	21	31	0.284489646758	0.378546404032	0.582773470767	-4.3271484375	-0.27392578125	-0.71923828125	-129.6875	-35.8125	-94.0
18	12	12	16	21	31	0.304679764933	0.372976370895	0.567002206776	-2.85302734375	-1.84033203125	-0.76025390625	33.125	-131.3125	78.9375
18	12	12	16	21	31	0.328611930988	0.388243033621	0.521116022804	-2.60205078125	-2.22021484375	-0.55712890625	207.0625	-136.125	209.9375
18	12	12	16	21	31	0.353093925896	0.415289727191	0.459846091219	-1.81982421875	-1.19580078125	-0.40673828125	292.1875	-131.3125	291.75
18	12	12	16	21	31	0.390887549226	0.437276452632	0.402484775078	-1.90478515625	-0.7138671875	-0.23095703125	195.5625	-145.375	347.125
18	12	12	16	21	31	0.445081721041	0.436231357691	0.36530637691	-1.67919921875	-0.6689453125	0.04931640625	-10.25	-193.75	342.75
18	12	12	16	21	31	0.508498815014	0.417919983964	0.338755062217	-1.54833984375	-0.6337890625	0.21923828125	-136.0	-232.9375	338.3125
18	12	12	16	21	31	0.573441875752	0.387950671876	0.316110215489	-1.3798828125	-0.14990234375	0.43701171875	-200.5625	-256.8125	319.4375
18	12	12	16	21	31	0.633632166983	0.358291187765	0.292248416869	-1.54443359375	-0.01416015625	0.2978515625	-193.5625	-246.25	320.5
18	12	12	16	21	31	0.692942328137	0.327519469108	0.264469224682	-1.515625	-0.10498046875	0.1728515625	-191.5625	-253.125	349.6875
18	12	12	16	21	31	0.751233445089	0.292668538284	0.233463432521	-1.04833984375	-0.25537109375	0.19091796875	-203.875	-261.375	374.9375
18	12	12	16	21	31	0.802157479306	0.260264761205	0.19538168401	-0.62060546875	-0.42041015625	0.345703125	-157.1875	-266.1875	372.0625
18	12	12	16	21	31	0.842537849871	0.236452595653	0.151063545235	-0.37646484375	-0.4560546875	0.33544921875	-80.4375	-259.3125	349.75
18	12	12	16	21	31	0.873558603504	0.220403865096	0.106814390451	-0.38427734375	-0.38037109375	0.20849609375	-30.0625	-234.375	322.5625
18	12	12	16	21	31	0.898511408641	0.205264171405	0.0657358051155	-0.4609375	-0.21826171875	0.0419921875	-27.875	-216.1875	298.0625
18	12	12	16	21	31	0.919289586294	0.184456087231	0.0285046302901	-0.44873046875	-0.06982421875	-0.091796875	-63.0625	-210.875	269.4375
