18	12	13	15	22	30	0.670086018683	0.00781299056216	0.70634317801	-1.09130859375	0.64111328125	0.11181640625	83.9375	-20.75	-18.9375
18	12	13	15	22	30	0.671473933188	0.0164801347115	0.706936741586	-0.89306640625	0.6357421875	0.15234375	63.875	-4.4375	-12.625
18	12	13	15	22	30	0.670560497392	0.0207528280642	0.707976625638	-0.7509765625	0.61767578125	0.13720703125	24.8125	11.5	-7.9375
18	12	13	15	22	30	0.667616470503	0.0196537304354	0.709426425001	-0.6767578125	0.55517578125	0.07373046875	-17.6875	24.375	-4.9375
18	12	13	15	22	30	0.663493050224	0.0142220681419	0.710859251417	-0.65869140625	0.48046875	0.0048828125	-50.25	30.875	-1.8125
18	12	13	15	22	30	0.658843290622	0.00695832269139	0.712129393337	-0.69677734375	0.41259765625	-0.0634765625	-65.5625	30.5	2.75
18	12	13	15	22	30	0.654256006321	0.000549333338641	0.713217784669	-0.74169921875	0.39208984375	-0.109375	-61.8125	25.8125	7.875
18	12	13	15	22	30	0.649818728402	-0.00335713226208	0.714641900444	-0.76416015625	0.39404296875	-0.14404296875	-45.875	20.75	11.8125
18	12	13	15	22	30	0.645792854846	-0.00470000470918	0.716292925483	-0.7607421875	0.40087890625	-0.13037109375	-27.625	17.25	14.5625
18	12	13	15	22	30	0.642064894677	-0.00384543096917	0.718241051019	-0.72802734375	0.4033203125	-0.087890625	-11.0	17.0625	16.125
18	12	13	15	22	30	0.638396567889	-0.0020142543972	0.720370618054	-0.70751953125	0.42333984375	-0.06640625	-3.1875	17.6875	16.4375
18	12	13	15	22	30	0.634684478764	-0.000854547288199	0.722214536712	-0.71533203125	0.455078125	-0.05078125	-8.6875	19.1875	14.75
18	12	13	15	22	30	0.630723275577	-0.00183119116107	0.723686746854	-0.71435546875	0.46240234375	-0.0458984375	-22.5625	22.5	11.75
18	12	13	15	22	30	0.626370189281	-0.00531029102197	0.724702129929	-0.70654296875	0.443359375	-0.04345703125	-39.625	26.875	9.8125
18	12	13	15	22	30	0.621435556389	-0.0111700920164	0.725445593526	-0.70263671875	0.408203125	-0.0556640625	-55.6875	31.5	8.8125
18	12	13	15	22	30	0.616068441698	-0.0191052632767	0.725938965333	-0.71826171875	0.35986328125	-0.07568359375	-68.0625	34.9375	8.25
18	12	13	15	22	30	0.610508142046	-0.0282608748018	0.726115262725	-0.7451171875	0.33203125	-0.08984375	-75.0	35.9375	7.5
18	12	13	15	22	30	0.604872452592	-0.0375985298483	0.726274199131	-0.7822265625	0.30712890625	-0.107421875	-74.4375	35.5	8.0625
18	12	13	15	22	30	0.599450335302	-0.0457171674108	0.726713745251	-0.82080078125	0.29150390625	-0.11328125	-63.625	33.75	10.0
18	12	13	15	22	30	0.594336743234	-0.0517610720203	0.727829036286	-0.8505859375	0.29052734375	-0.11376953125	-46.3125	32.0	12.375
18	12	13	15	22	30	0.589374213898	-0.0554827216687	0.729881612448	-0.884765625	0.31005859375	-0.11962890625	-27.4375	30.5	14.25
18	12	13	15	22	30	0.584734386955	-0.0576189208023	0.732382871511	-0.93212890625	0.35546875	-0.12939453125	-15.25	28.5	14.875
18	12	13	15	22	30	0.580405703558	-0.0595726119121	0.734830609437	-0.96923828125	0.380859375	-0.11767578125	-11.875	28.0625	12.8125
18	12	13	15	22	30	0.57642629618	-0.0620128247479	0.737012656329	-0.9775390625	0.38037109375	-0.0869140625	-12.0	29.375	10.0625
18	12	13	15	22	30	0.572361447195	-0.0647622369067	0.739241707047	-0.99462890625	0.3671875	-0.07373046875	-12.0	31.9375	10.125
18	12	13	15	22	30	0.568270516725	-0.0677529831971	0.741376336857	-1.04833984375	0.35888671875	-0.052734375	-12.625	34.3125	11.625
18	12	13	15	22	30	0.564229336564	-0.0709864472548	0.743496056759	-1.0908203125	0.34912109375	-0.03369140625	-12.0625	36.9375	11.875
18	12	13	15	22	30	0.560082822377	-0.0740998851749	0.746003951077	-1.078125	0.32275390625	-0.01513671875	-7.0	40.4375	11.5
18	12	13	15	22	30	0.555612578602	-0.0764783654826	0.749219422425	-1.03369140625	0.30908203125	-0.01220703125	0.375	43.3125	12.4375
18	12	13	15	22	30	0.550561929122	-0.0782505979085	0.752780517945	-1.013671875	0.3330078125	-0.0576171875	1.5625	43.5625	14.875
18	12	13	15	22	30	0.545370633792	-0.0801423214514	0.756011266944	-1.04931640625	0.3583984375	-0.107421875	-4.3125	40.625	16.8125
18	12	13	15	22	30	0.540487862258	-0.0823397093378	0.75839205969	-1.0947265625	0.38037109375	-0.14208984375	-12.8125	35.9375	18.1875
18	12	13	15	22	30	0.536225119907	-0.0852710862277	0.760115130131	-1.11962890625	0.3623046875	-0.19287109375	-18.25	30.5625	16.6875
18	12	13	15	22	30	0.533219737508	-0.0874661039204	0.760949000402	-1.27783203125	0.4033203125	-0.28564453125	-20.3125	16.8125	19.5625
18	12	13	15	22	30	0.532740427015	-0.0899091027719	0.759985226485	-1.44189453125	0.43017578125	-0.27587890625	-22.6875	3.5	16.3125
18	12	13	15	22	30	0.53495079293	-0.0932074236427	0.758782896727	-1.37353515625	0.3740234375	-0.1904296875	-6.0625	-0.875	-4.4375
18	12	13	15	22	30	0.538223277396	-0.0942409548989	0.758932663998	-1.12646484375	0.283203125	-0.115234375	22.5	-2.5625	-10.75
18	12	13	15	22	30	0.541701926939	-0.0917383657679	0.760396913331	-0.94873046875	0.23291015625	-0.03955078125	48.5	-2.5	-5.8125
18	12	13	15	22	30	0.545010686698	-0.0866133009771	0.762795223616	-0.8369140625	0.25146484375	-0.03759765625	64.6875	-4.0625	-2.6875
18	12	13	15	22	30	0.547746167518	-0.0806909330798	0.765160012926	-0.75732421875	0.3017578125	-0.046875	63.875	-5.25	-1.4375
18	12	13	15	22	30	0.54976884187	-0.0761143272801	0.766514612657	-0.732421875	0.34130859375	-0.07861328125	44.1875	-6.125	-0.5625
18	12	13	15	22	30	0.551465913249	-0.0742815734835	0.766375872358	-0.74609375	0.333984375	-0.10693359375	16.75	-7.125	-1.375
18	12	13	15	22	30	0.553247927891	-0.074832519814	0.765110632845	-0.767578125	0.28369140625	-0.1328125	-2.75	-9.5	-2.8125
18	12	13	15	22	30	0.55563272593	-0.0756876392567	0.763346464955	-0.78173828125	0.24365234375	-0.1533203125	-5.625	-14.4375	-2.4375
18	12	13	15	22	30	0.55893812574	-0.0753226654104	0.761528017552	-0.80078125	0.22265625	-0.17431640625	2.8125	-21.625	-1.0
18	12	13	15	22	30	0.563194728163	-0.0730010723835	0.759919189946	-0.8076171875	0.224609375	-0.1884765625	17.3125	-29.3125	-0.1875
18	12	13	15	22	31	0.568465758275	-0.068425868681	0.758605437972	-0.79931640625	0.2275390625	-0.18359375	34.9375	-35.9375	0.375
18	12	13	15	22	31	0.574481154606	-0.0617695419105	0.757470370661	-0.7822265625	0.2412109375	-0.17822265625	49.9375	-41.875	1.0625
18	12	13	15	22	31	0.581027408636	-0.0537140581573	0.756086407267	-0.78369140625	0.2724609375	-0.17724609375	57.375	-47.4375	1.6875
18	12	13	15	22	31	0.587910689196	-0.0455337805378	0.754115091884	-0.82177734375	0.31103515625	-0.20703125	54.875	-53.125	0.9375
18	12	13	15	22	31	0.595307213504	-0.0382710574046	0.75113816973	-0.87744140625	0.3486328125	-0.21826171875	46.4375	-58.375	-2.375
18	12	13	15	22	31	0.603200508471	-0.0322292924988	0.747316719815	-0.9384765625	0.37744140625	-0.21728515625	39.0	-61.8125	-7.5
18	12	13	15	22	31	0.611371398576	-0.0271015276525	0.74297251033	-0.9619140625	0.39990234375	-0.212890625	34.25	-63.75	-12.8125
18	12	13	15	22	31	0.619675749227	-0.022645754823	0.738276023138	-0.96728515625	0.4140625	-0.19140625	31.6875	-64.3125	-16.8125
18	12	13	15	22	31	0.628026608181	-0.0186167864219	0.733379307736	-0.95458984375	0.4052734375	-0.17041015625	30.125	-64.125	-19.5
18	12	13	15	22	31	0.636250553109	-0.0145268257521	0.728355511344	-0.94189453125	0.40576171875	-0.142578125	30.5	-63.4375	-19.6875
18	12	13	15	22	31	0.644251656587	-0.0101322382751	0.723356360229	-0.8994140625	0.3984375	-0.09130859375	32.25	-60.5	-19.3125
18	12	13	15	22	31	0.651531052116	-0.0051883211008	0.718674031068	-0.88623046875	0.4130859375	-0.0869140625	33.0	-57.875	-15.625
18	12	13	15	22	31	0.658043790001	-0.000183112083295	0.714015050128	-0.9619140625	0.47412109375	-0.1064453125	25.875	-56.625	-11.0625
18	12	13	15	22	31	0.664147956643	0.00317394483461	0.709071483533	-1.048828125	0.5234375	-0.1171875	12.375	-55.625	-12.5
18	12	13	15	22	31	0.669941325722	0.00512710198257	0.704305116391	-1.03369140625	0.52099609375	-0.09033203125	7.375	-51.0	-17.9375
18	12	13	15	22	31	0.675278657617	0.00744680432335	0.700182724534	-0.98974609375	0.4873046875	-0.05029296875	13.4375	-45.375	-18.6875
18	12	13	15	22	31	0.679656515575	0.0111088896124	0.697235417819	-1.1015625	0.50244140625	-0.0859375	23.5	-41.9375	-14.625
18	12	13	15	22	31	0.683501703089	0.0159919133961	0.694915778681	-1.40966796875	0.60498046875	-0.11767578125	30.875	-42.3125	-11.375
18	12	13	15	22	31	0.687043750856	0.0215464147168	0.693391703067	-1.50390625	0.69873046875	-0.06689453125	42.5	-36.375	-20.25
18	12	13	15	22	31	0.689715995465	0.0268561980535	0.692706799339	-1.25830078125	0.6904296875	0.02978515625	46.4375	-22.0	-27.0625
18	12	13	15	22	31	0.690817873879	0.030640623139	0.692710023913	-0.974609375	0.5986328125	0.14404296875	33.3125	-2.375	-20.3125
18	12	13	15	22	31	0.689927281033	0.0326560289616	0.69377275734	-0.765625	0.52001953125	0.18408203125	15.75	15.4375	-11.8125
18	12	13	15	22	31	0.687108361231	0.0316788877569	0.695836840902	-0.65673828125	0.462890625	0.15283203125	-8.625	29.875	-6.25
18	12	13	15	22	31	0.682542145446	0.0277118703302	0.698839655089	-0.63037109375	0.43359375	0.09814453125	-31.75	40.9375	-3.3125
18	12	13	15	22	31	0.676714320913	0.0221563361136	0.702532861343	-0.623046875	0.40234375	0.03076171875	-44.1875	47.0	-0.1875
18	12	13	15	22	31	0.66991764047	0.0166029702239	0.706663920157	-0.60986328125	0.39208984375	-0.02783203125	-48.25	49.4375	5.625
18	12	13	15	22	31	0.662391457303	0.0122077305069	0.711039263373	-0.5830078125	0.3916015625	-0.068359375	-46.5	49.75	12.9375
18	12	13	15	22	31	0.654384458033	0.0090946072425	0.715666241063	-0.55126953125	0.3876953125	-0.09326171875	-40.875	49.6875	18.125
18	12	13	15	22	31	0.646191046604	0.00708020793484	0.720350121094	-0.52978515625	0.3955078125	-0.11474609375	-35.4375	48.3125	21.125
18	12	13	15	22	31	0.638019324756	0.00488295666129	0.724752842453	-0.5498046875	0.423828125	-0.1357421875	-37.125	46.625	19.875
18	12	13	15	22	31	0.629923818007	0.00183117388956	0.728807208044	-0.61279296875	0.46044921875	-0.1640625	-41.875	45.1875	17.0
18	12	13	15	22	31	0.622044975187	-0.00274673966082	0.732158716256	-0.671875	0.4755859375	-0.1767578125	-52.125	44.0	14.3125
18	12	13	15	22	31	0.614523392588	-0.00872833185737	0.734766845448	-0.7021484375	0.4697265625	-0.1669921875	-59.6875	43.5	11.625
18	12	13	15	22	31	0.607278988733	-0.0155039564919	0.736865207758	-0.74267578125	0.44140625	-0.1689453125	-63.5625	42.1875	10.8125
18	12	13	15	22	31	0.600606573707	-0.0230110445414	0.738245580181	-0.8251953125	0.4208984375	-0.17138671875	-67.125	39.25	11.0
18	12	13	15	22	31	0.594700132269	-0.0308855862597	0.738934599328	-0.91259765625	0.40478515625	-0.16357421875	-67.0625	35.875	10.1875
18	12	13	15	22	31	0.589571099372	-0.0386373854336	0.739359636266	-0.96142578125	0.37841796875	-0.1220703125	-60.25	34.25	8.1875
18	12	13	15	22	31	0.585038312128	-0.0452893508189	0.739949865198	-0.98193359375	0.357421875	-0.0869140625	-47.6875	34.0	7.75
18	12	13	15	22	31	0.580587371197	-0.0505999716907	0.741115628792	-0.97119140625	0.34765625	-0.041015625	-34.3125	36.125	8.9375
18	12	13	15	22	31	0.575884973504	-0.0545061241483	0.743126608628	-0.966796875	0.35302734375	-0.0244140625	-21.5	39.125	10.875
18	12	13	15	22	31	0.570717230562	-0.0578041943682	0.745411638463	-1.07958984375	0.40771484375	-0.0830078125	-20.6875	38.5625	14.8125
18	12	13	15	22	31	0.565883350558	-0.0622587657824	0.746922075372	-1.21630859375	0.43505859375	-0.0966796875	-29.375	37.5	14.5625
18	12	13	15	22	31	0.561315428469	-0.0681806582861	0.7485223031	-1.14697265625	0.3828125	-0.05517578125	-28.0	42.5625	5.1875
18	12	13	15	22	31	0.555914206818	-0.0734260859466	0.75098467289	-1.03564453125	0.33837890625	-0.1103515625	-24.0625	43.75	7.6875
18	12	13	15	22	31	0.550121074423	-0.0780655557736	0.752639850074	-1.2333984375	0.37939453125	-0.21533203125	-36.5625	36.8125	22.125
18	12	13	15	22	31	0.545667540532	-0.0845357431361	0.751971375767	-1.513671875	0.4287109375	-0.283203125	-57.625	25.3125	23.6875
18	12	13	15	22	31	0.543594679467	-0.0933254283523	0.749838382804	-1.578125	0.36767578125	-0.27001953125	-60.75	16.8125	9.125
18	12	13	15	22	31	0.543301607123	-0.10150663663	0.748207066635	-1.34619140625	0.2109375	-0.1943359375	-39.6875	14.0	-1.75
18	12	13	15	22	31	0.543286132051	-0.106325631056	0.748002645577	-1.1337890625	0.091796875	-0.1201171875	-14.375	13.8125	5.25
18	12	13	15	22	31	0.543675161174	-0.107123600299	0.74949896756	-1.015625	0.046875	-0.08642578125	15.5	12.0625	11.75
18	12	13	15	22	31	0.544507592877	-0.104189492326	0.752581394482	-0.93115234375	0.08740234375	-0.10546875	43.1875	7.375	13.6875
18	12	13	15	22	32	0.545181620728	-0.0995511893649	0.756247232515	-0.88330078125	0.1728515625	-0.138671875	52.9375	4.8125	12.375
18	12	13	15	22	32	0.54575647237	-0.0951609820406	0.759578743113	-0.83251953125	0.23388671875	-0.154296875	49.375	3.5	7.125
18	12	13	15	22	32	0.546044122019	-0.0921060339958	0.762301032852	-0.77197265625	0.24462890625	-0.16162109375	38.4375	3.6875	2.9375
18	12	13	15	22	32	0.546300910561	-0.0905821844996	0.764027765082	-0.73486328125	0.228515625	-0.16650390625	23.625	2.5625	1.25
18	12	13	15	22	32	0.547012404822	-0.0900293792806	0.764852984247	-0.71044921875	0.2001953125	-0.17041015625	14.4375	-1.625	-0.25
18	12	13	15	22	32	0.548466288563	-0.0899055022316	0.764898678864	-0.70263671875	0.18017578125	-0.1708984375	9.6875	-6.6875	-1.8125
18	12	13	15	22	32	0.550681798409	-0.0899695157232	0.764252582341	-0.70849609375	0.1787109375	-0.1748046875	7.125	-12.625	-3.375
18	12	13	15	22	32	0.553801679627	-0.0899096080779	0.762980380838	-0.7392578125	0.1708984375	-0.185546875	6.3125	-18.8125	-4.25
18	12	13	15	22	32	0.557942850384	-0.0894197873112	0.761197383999	-0.798828125	0.15966796875	-0.193359375	9.4375	-25.8125	-4.0625
18	12	13	15	22	32	0.563215497669	-0.0878364691824	0.759214735018	-0.85302734375	0.1513671875	-0.20556640625	18.4375	-33.125	-4.0
18	12	13	15	22	32	0.569714601476	-0.0842303567641	0.757279736502	-0.89404296875	0.15576171875	-0.205078125	34.375	-41.0625	-3.375
18	12	13	15	22	32	0.577119749077	-0.0780683404621	0.755657587897	-0.91357421875	0.173828125	-0.208984375	53.1875	-47.875	-2.375
18	12	13	15	22	32	0.585127906285	-0.0696464574453	0.754269302938	-0.9365234375	0.21240234375	-0.20947265625	69.75	-53.3125	-2.0
18	12	13	15	22	32	0.593457421498	-0.0595105405698	0.752884633773	-0.94677734375	0.26513671875	-0.205078125	81.5625	-57.0625	-2.6875
18	12	13	15	22	32	0.601826296364	-0.0485855711872	0.751306276059	-0.94482421875	0.314453125	-0.1982421875	86.5625	-59.0625	-4.875
18	12	13	15	22	32	0.609910530134	-0.0376616089965	0.74926458741	-0.94140625	0.36669921875	-0.1982421875	83.125	-60.3125	-6.0
18	12	13	15	22	32	0.617618717303	-0.0277711746588	0.746647867256	-0.919921875	0.39599609375	-0.1884765625	73.3125	-59.3125	-8.5625
18	12	13	15	22	32	0.624725876794	-0.0191049535356	0.743506194942	-0.947265625	0.443359375	-0.22021484375	58.6875	-60.0625	-8.3125
18	12	13	15	22	32	0.631683083178	-0.0126348824252	0.739415293229	-1.03857421875	0.4912109375	-0.2431640625	38.625	-61.4375	-9.6875
18	12	13	15	22	32	0.638806172526	-0.00866715808319	0.734633202037	-1.0615234375	0.49755859375	-0.2216796875	23.5625	-61.4375	-17.0
18	12	13	15	22	32	0.645950038305	-0.00555432802473	0.72975325125	-1.0322265625	0.4765625	-0.2041015625	21.625	-60.5625	-21.3125
18	12	13	15	22	32	0.653158216869	-0.00177007646848	0.724876832402	-1.0986328125	0.48876953125	-0.201171875	26.375	-62.375	-20.75
18	12	13	15	22	32	0.660496856083	0.00256361407961	0.719826210497	-1.333984375	0.59814453125	-0.23193359375	29.0625	-67.0	-22.5
18	12	13	15	22	32	0.668126397278	0.00579864861515	0.714637663012	-1.455078125	0.6630859375	-0.14208984375	30.375	-62.5625	-34.375
18	12	13	15	22	32	0.67532527972	0.00903363533972	0.710300097623	-1.35302734375	0.63525390625	-0.04833984375	42.375	-52.5	-43.4375
18	12	13	15	22	32	0.68114661878	0.0130625841401	0.706905546383	-1.20166015625	0.6005859375	0.03369140625	45.125	-39.5625	-38.0625
18	12	13	15	22	32	0.685413399785	0.016297566813	0.704213589217	-1.06396484375	0.59814453125	0.1015625	34.4375	-25.375	-32.8125
18	12	13	15	22	32	0.687760161662	0.0176395710614	0.702592050132	-0.9150390625	0.57861328125	0.11279296875	15.9375	-10.4375	-28.75
18	12	13	15	22	32	0.6880227556	0.0157478593812	0.702061544971	-0.8115234375	0.552734375	0.0888671875	-11.8125	4.125	-24.5625
18	12	13	15	22	32	0.686506077041	0.0103766367117	0.702437266345	-0.74951171875	0.4990234375	0.041015625	-38.75	15.5625	-21.0
18	12	13	15	22	32	0.683690750261	0.00323503345807	0.703528219579	-0.70556640625	0.4296875	0.0078125	-52.6875	23.5	-16.3125
18	12	13	15	22	32	0.679969827954	-0.00335712213083	0.705300840395	-0.64794921875	0.3720703125	-0.02734375	-50.75	27.1875	-9.375
18	12	13	15	22	32	0.675633559939	-0.00775187118188	0.70773973507	-0.60205078125	0.35009765625	-0.06005859375	-39.375	27.875	-1.4375
18	12	13	15	22	32	0.67081497005	-0.00994930301348	0.710612182104	-0.5888671875	0.37451171875	-0.0986328125	-30.25	26.75	5.625
18	12	13	15	22	32	0.665792533523	-0.0114139350723	0.713462497649	-0.615234375	0.41064453125	-0.12939453125	-29.375	24.9375	9.125
18	12	13	15	22	32	0.660621812639	-0.0135505906316	0.716044949096	-0.63720703125	0.4287109375	-0.15185546875	-36.5625	23.9375	9.6875
18	12	13	15	22	32	0.655314485739	-0.0170909143077	0.7181846348	-0.64697265625	0.4267578125	-0.15380859375	-47.625	24.8125	9.6875
18	12	13	15	22	32	0.649811839414	-0.0222789142764	0.719883602672	-0.658203125	0.40869140625	-0.1591796875	-59.375	26.0625	9.75
18	12	13	15	22	32	0.644124028454	-0.0286874152727	0.721213827368	-0.67529296875	0.37744140625	-0.14453125	-67.5	28.3125	10.5
18	12	13	15	22	32	0.638283441582	-0.0358908543225	0.722272923806	-0.7373046875	0.3544921875	-0.1611328125	-72.5625	28.5625	12.125
18	12	13	15	22	32	0.632489266544	-0.0440703773832	0.722888475553	-0.79931640625	0.32373046875	-0.1416015625	-77.5	29.625	12.5625
18	12	13	15	22	32	0.626504030147	-0.0524935177247	0.723617037938	-0.83056640625	0.29052734375	-0.1171875	-74.5625	33.5625	12.5
18	12	13	15	22	32	0.62046759021	-0.06049024908	0.724356998822	-0.84326171875	0.25048828125	-0.08203125	-69.9375	35.875	15.5
18	12	13	15	22	32	0.614224035688	-0.0675689165763	0.725557101484	-0.8505859375	0.20703125	-0.05322265625	-61.125	39.375	19.375
18	12	13	15	22	32	0.607770504224	-0.0730032663505	0.727469003649	-0.88525390625	0.20751953125	-0.05859375	-48.0	40.875	23.1875
18	12	13	15	22	32	0.6013400793	-0.0769681120582	0.729884761294	-1.06396484375	0.22119140625	-0.10205078125	-38.0625	39.0625	29.5
18	12	13	15	22	32	0.59519221395	-0.0795339405986	0.732591216473	-1.30859375	0.2353515625	-0.1015625	-27.4375	38.875	37.3125
18	12	13	15	22	32	0.589555709736	-0.0805077110614	0.73628849017	-1.35791015625	0.22705078125	-0.05029296875	-6.0	43.3125	35.25
18	12	13	15	22	32	0.58364855449	-0.0802654098676	0.741188495835	-1.16650390625	0.1943359375	-0.00732421875	10.3125	50.125	32.0
18	12	13	15	22	33	0.576521528351	-0.0796570242983	0.746517553386	-1.05859375	0.17626953125	-0.029296875	6.5625	54.0	37.8125
18	12	13	15	22	33	0.569304707082	-0.0797160874289	0.750954841989	-1.1728515625	0.212890625	-0.13671875	-7.375	47.25	42.6875
18	12	13	15	22	33	0.56363364848	-0.0800831001522	0.753220621859	-1.57177734375	0.3037109375	-0.27294921875	-23.8125	29.5625	50.8125
18	12	13	15	22	33	0.560255285449	-0.0819111660391	0.754046605996	-1.8291015625	0.3525390625	-0.2763671875	-24.625	21.125	40.875
18	12	13	15	22	33	0.558917416439	-0.084780636828	0.755579196036	-1.58984375	0.3173828125	-0.21533203125	-1.1875	20.875	10.0625
18	12	13	15	22	33	0.557899507454	-0.086431696122	0.758047481737	-1.2490234375	0.20361328125	-0.140625	16.4375	23.125	4.25
18	12	13	15	22	33	0.557499310357	-0.0859991819896	0.760869980612	-1.0810546875	0.15625	-0.0830078125	31.25	20.5625	5.375
18	12	13	15	22	33	0.558737716662	-0.0833162533585	0.763579728582	-1.0029296875	0.18896484375	-0.07861328125	49.1875	9.75	0.4375
18	12	13	15	22	33	0.560763254098	-0.0795945665988	0.765792509623	-0.91015625	0.279296875	-0.08251953125	53.875	1.9375	-6.25
18	12	13	15	22	33	0.562462623786	-0.0774568713603	0.767122111313	-0.8056640625	0.35693359375	-0.087890625	38.8125	1.0	-13.875
18	12	13	15	22	33	0.563635547903	-0.0789236261034	0.767079048138	-0.751953125	0.3564453125	-0.10693359375	8.75	1.4375	-20.0625
18	12	13	15	22	33	0.565164391534	-0.0838682226988	0.765190713065	-0.75048828125	0.291015625	-0.1201171875	-20.625	-2.8125	-23.125
18	12	13	15	22	33	0.567647980572	-0.0908236768915	0.761746967477	-0.7646484375	0.2333984375	-0.14013671875	-36.875	-10.75	-26.0
18	12	13	15	22	33	0.57112534093	-0.0983309740556	0.757410960308	-0.7744140625	0.20263671875	-0.15234375	-40.0625	-18.125	-29.0
18	12	13	15	22	33	0.575404418728	-0.105229364367	0.752841635789	-0.7587890625	0.16552734375	-0.13818359375	-33.625	-23.125	-29.6875
18	12	13	15	22	33	0.580344695234	-0.110172715071	0.748747199878	-0.72802734375	0.12060546875	-0.134765625	-18.0625	-26.75	-27.25
18	12	13	15	22	33	0.58588664566	-0.11224560281	0.745313244104	-0.70703125	0.10498046875	-0.12841796875	1.9375	-31.5625	-22.125
18	12	13	15	22	33	0.592008650313	-0.111333516669	0.742345520684	-0.72509765625	0.12548828125	-0.146484375	18.375	-38.1875	-16.125
18	12	13	15	22	33	0.59864900689	-0.108340333119	0.739277811119	-0.80615234375	0.17333984375	-0.17724609375	26.8125	-46.0625	-11.0
18	12	13	15	22	33	0.605749878461	-0.104193373895	0.735945816667	-0.8798828125	0.21142578125	-0.20263671875	30.75	-52.4375	-9.125
18	12	13	15	22	33	0.613245223956	-0.099369286812	0.732451745543	-0.91748046875	0.23095703125	-0.19921875	35.6875	-55.6875	-9.625
18	12	13	15	22	33	0.620938262145	-0.0935100184416	0.729097369638	-0.9384765625	0.2333984375	-0.19677734375	43.375	-57.6875	-9.0
18	12	13	15	22	33	0.628892404257	-0.0860660283415	0.725884545416	-0.97900390625	0.24072265625	-0.17724609375	53.875	-59.75	-6.625
18	12	13	15	22	33	0.636803183351	-0.0772733470836	0.722804878486	-1.0263671875	0.28076171875	-0.16357421875	61.8125	-60.6875	-4.75
18	12	13	15	22	33	0.644389765219	-0.06787547778	0.719773052142	-1.0517578125	0.314453125	-0.14453125	63.8125	-59.0625	-3.6875
18	12	13	15	22	33	0.651291279425	-0.0585979033035	0.716847683746	-1.05615234375	0.3447265625	-0.125	61.3125	-55.625	-2.8125
18	12	13	15	22	33	0.657432772223	-0.0495622886496	0.714014350521	-1.056640625	0.3583984375	-0.1064453125	56.1875	-51.625	0.0625
18	12	13	15	22	33	0.662686863586	-0.0410173687326	0.7110898002	-1.1044921875	0.3857421875	-0.1025390625	45.75	-48.6875	5.8125
18	12	13	15	22	33	0.667513957754	-0.0335099819684	0.708104373071	-1.08837890625	0.38330078125	-0.07275390625	38.6875	-44.375	5.5
18	12	13	15	22	33	0.671683130171	-0.0258198804128	0.705743397949	-0.99658203125	0.36328125	-0.0400390625	42.5	-38.25	5.0625
18	12	13	15	22	33	0.675063195367	-0.017395389754	0.704177584534	-0.9501953125	0.36962890625	-0.00390625	48.8125	-30.625	6.5
18	12	13	15	22	33	0.677640956076	-0.0083011322308	0.703704069772	-0.88818359375	0.3662109375	0.0390625	59.3125	-21.125	3.5
18	12	13	15	22	33	0.679031440235	0.00274664402792	0.704483674894	-0.95849609375	0.4697265625	-0.07373046875	70.25	-21.0	4.0625
18	12	13	15	22	33	0.679634137611	0.0131227067433	0.705025049264	-1.30419921875	0.66162109375	-0.19287109375	54.0625	-26.125	7.625
18	12	13	15	22	33	0.680356395274	0.0198991732334	0.705016720386	-1.47314453125	0.79833984375	-0.1748046875	34.1875	-23.3125	-7.0
18	12	13	15	22	33	0.681163177823	0.0225223308796	0.704967267371	-1.26318359375	0.7646484375	-0.09912109375	19.1875	-13.875	-25.75
18	12	13	15	22	33	0.681480381019	0.0217292445717	0.704735555687	-1.02001953125	0.57666015625	0.05126953125	-1.75	1.5625	-21.1875
18	12	13	15	22	33	0.680950981517	0.0191052041247	0.704878265916	-0.83642578125	0.43701171875	0.13720703125	-13.75	14.875	-15.25
18	12	13	15	22	33	0.679408982454	0.0157476882107	0.705899279676	-0.72119140625	0.35791015625	0.138671875	-16.75	23.0	-13.125
18	12	13	15	22	33	0.676736482365	0.0120856700197	0.707805199739	-0.654296875	0.3505859375	0.09716796875	-20.1875	29.25	-11.625
18	12	13	15	22	33	0.672946425642	0.00805704564034	0.71036285729	-0.60888671875	0.36962890625	0.04150390625	-26.9375	33.4375	-8.875
18	12	13	15	22	33	0.668016307973	0.0036623701095	0.71342969733	-0.5849609375	0.37890625	-0.0234375	-35.6875	36.375	-3.5
18	12	13	15	22	33	0.66226071826	-0.000976605667481	0.716645446368	-0.60107421875	0.3779296875	-0.0888671875	-44.4375	36.75	3.0625
18	12	13	15	22	33	0.656268602679	-0.00592057798176	0.719624890772	-0.65478515625	0.38623046875	-0.1474609375	-50.25	33.75	6.8125
18	12	13	15	22	33	0.650648448427	-0.0111086320463	0.72200004657	-0.71728515625	0.3984375	-0.1865234375	-53.8125	28.375	7.25
18	12	13	15	22	33	0.645676675452	-0.0165417261342	0.723685258476	-0.76904296875	0.404296875	-0.19189453125	-55.0625	23.5	5.375
18	12	13	15	22	33	0.641431313961	-0.0219120603018	0.724929081351	-0.7646484375	0.37744140625	-0.16455078125	-50.0	20.6875	2.75
18	12	13	15	22	33	0.637850386401	-0.0261243986009	0.726050750836	-0.7314453125	0.35107421875	-0.1220703125	-38.625	19.125	2.1875
18	12	13	15	22	33	0.634606485981	-0.0290538316175	0.727200314896	-0.73193359375	0.33984375	-0.09423828125	-28.8125	18.0625	3.875
18	12	13	15	22	33	0.631355680092	-0.0314335049543	0.728524883756	-0.75927734375	0.3544921875	-0.08984375	-24.125	18.8125	4.3125
18	12	13	15	22	33	0.628019474104	-0.0344254041593	0.729708699865	-0.79296875	0.369140625	-0.08447265625	-27.9375	19.9375	3.4375
18	12	13	15	22	34	0.624423727606	-0.0386984011048	0.730630695938	-0.81494140625	0.37451171875	-0.08837890625	-36.8125	22.1875	2.4375
18	12	13	15	22	34	0.620590859059	-0.0443148385637	0.7311948363	-0.84619140625	0.3642578125	-0.08349609375	-46.9375	24.3125	2.125
18	12	13	15	22	34	0.616536056508	-0.0512711897304	0.731407936356	-0.8759765625	0.33740234375	-0.078125	-55.125	26.375	2.625
18	12	13	15	22	34	0.612419992587	-0.0585989427772	0.731571176234	-0.876953125	0.2919921875	-0.04833984375	-55.75	29.5625	3.4375
18	12	13	15	22	34	0.607936327008	-0.0649442020017	0.732453406034	-0.86767578125	0.2626953125	-0.04150390625	-45.6875	32.9375	6.0
18	12	13	15	22	34	0.603114447693	-0.069522047963	0.733979479153	-0.98388671875	0.29931640625	-0.08984375	-36.5	31.75	12.5
18	12	13	15	22	34	0.598344509425	-0.0734884004231	0.735250225496	-1.18115234375	0.3515625	-0.11669921875	-36.5625	29.3125	18.1875
18	12	13	15	22	34	0.593902497937	-0.077457581694	0.736548966352	-1.25927734375	0.35009765625	-0.0966796875	-31.9375	30.625	17.25
18	12	13	15	22	34	0.589331400315	-0.0808156161592	0.738205484765	-1.23095703125	0.3212890625	-0.10546875	-27.25	31.5625	19.25
18	12	13	15	22	34	0.584440652748	-0.0839275088802	0.739599727346	-1.318359375	0.29345703125	-0.14306640625	-32.625	29.625	29.5
18	12	13	15	22	34	0.580023228581	-0.0870370539784	0.740059102025	-1.52587890625	0.2978515625	-0.18896484375	-40.1875	22.875	37.875
18	12	13	15	22	34	0.577174340842	-0.0901529718087	0.740023446316	-1.6005859375	0.2529296875	-0.16552734375	-32.0	17.8125	34.375
18	12	13	15	22	34	0.575536128676	-0.0910700926911	0.741073723433	-1.44873046875	0.16650390625	-0.1083984375	-4.625	16.875	29.6875
18	12	13	15	22	34	0.57406670803	-0.0882616118886	0.743997778222	-1.2392578125	0.10205078125	-0.05615234375	26.9375	19.1875	33.25
18	12	13	15	22	34	0.572175191563	-0.0815474776966	0.748942777947	-1.0947265625	0.11572265625	-0.048828125	56.8125	21.625	37.125
18	12	13	15	22	34	0.570236866605	-0.0722104702627	0.754822210709	-1.0390625	0.189453125	-0.08447265625	75.3125	19.25	36.75
18	12	13	15	22	34	0.568319694937	-0.0623192362293	0.760587661757	-0.9931640625	0.2861328125	-0.1181640625	78.125	16.625	30.625
18	12	13	15	22	34	0.566196476367	-0.0538973144278	0.765793552447	-0.9072265625	0.35205078125	-0.140625	68.875	16.5625	21.1875
18	12	13	15	22	34	0.56361911627	-0.0482805632412	0.770169591628	-0.82275390625	0.3798828125	-0.1640625	49.4375	17.9375	11.75
18	12	13	15	22	34	0.561356043544	-0.0457776484351	0.772970853043	-0.76123046875	0.37841796875	-0.171875	24.125	15.5	4.8125
18	12	13	15	22	34	0.560024285176	-0.0462058184063	0.774023755893	-0.73291015625	0.33349609375	-0.1748046875	1.125	9.625	-0.75
18	12	13	15	22	34	0.55991096626	-0.0486481020505	0.773608588943	-0.69921875	0.2744140625	-0.15673828125	-13.1875	2.8125	-5.5625
18	12	13	15	22	34	0.560878209017	-0.0518823024992	0.772374889205	-0.66748046875	0.21533203125	-0.12646484375	-16.375	-1.8125	-8.9375
18	12	13	15	22	34	0.562705083924	-0.0548117111795	0.770843096309	-0.64794921875	0.17236328125	-0.1123046875	-12.4375	-6.375	-9.625
18	12	13	15	22	34	0.565450934798	-0.0568258657488	0.769010829827	-0.66455078125	0.13916015625	-0.0986328125	-5.6875	-11.8125	-7.8125
18	12	13	15	22	34	0.569188283962	-0.0573766205817	0.766832430179	-0.7265625	0.14208984375	-0.11669921875	1.75	-20.0	-4.4375
18	12	13	15	22	34	0.573918761064	-0.0567021726075	0.764350169606	-0.7880859375	0.15966796875	-0.14306640625	9.3125	-28.6875	-3.875
18	12	13	15	22	34	0.579570226383	-0.0546303688902	0.761712149029	-0.83349609375	0.1884765625	-0.171875	19.25	-37.0625	-4.5
18	12	13	15	22	34	0.585973882813	-0.0510895979077	0.759019295081	-0.86474609375	0.2138671875	-0.19775390625	29.625	-44.25	-5.125
18	12	13	15	22	34	0.593097117789	-0.0462050548694	0.756127106634	-0.8994140625	0.23876953125	-0.20947265625	38.9375	-51.0	-5.625
18	12	13	15	22	34	0.600928094375	-0.0402856823044	0.75279290888	-0.95458984375	0.27880859375	-0.21533203125	45.125	-57.5625	-6.1875
18	12	13	15	22	34	0.609279167332	-0.0335707816102	0.7490556944	-0.9990234375	0.32861328125	-0.22314453125	49.5625	-63.0625	-8.1875
18	12	13	15	22	34	0.617892114492	-0.0267348361304	0.744852066892	-1.0087890625	0.3896484375	-0.20166015625	50.125	-65.9375	-12.4375
18	12	13	15	22	34	0.626309655465	-0.0206918402887	0.740267371746	-0.9462890625	0.408203125	-0.1728515625	44.0625	-64.4375	-16.0
18	12	13	15	22	34	0.634003536438	-0.0158699258182	0.735510023498	-0.9296875	0.42626953125	-0.1640625	32.1875	-61.625	-16.1875
18	12	13	15	22	34	0.641222573163	-0.0126962679884	0.730157488832	-0.99755859375	0.4541015625	-0.1630859375	14.5	-59.8125	-14.0
18	12	13	15	22	34	0.6481076701	-0.0118414850254	0.724405898357	-1.04931640625	0.45263671875	-0.15380859375	-1.6875	-57.5	-16.0625
18	12	13	15	22	34	0.65453042873	-0.0116586134372	0.718927482009	-1.08154296875	0.4404296875	-0.1474609375	-4.5625	-54.625	-17.0625
18	12	13	15	22	34	0.660743718941	-0.0108648851706	0.714030487221	-1.1015625	0.40576171875	-0.07763671875	5.75	-48.5	-17.0625
18	12	13	15	22	34	0.666094458201	-0.00762959839413	0.710834423184	-1.10986328125	0.39453125	-0.037109375	30.25	-39.6875	-16.875
18	12	13	15	22	34	0.670367294285	-0.00103762578556	0.709125669217	-1.2294921875	0.48046875	-0.0927734375	50.6875	-37.8125	-12.25
18	12	13	15	22	34	0.673792098147	0.00634789185681	0.707850979456	-1.40966796875	0.65966796875	-0.13037109375	50.8125	-36.75	-13.5625
18	12	13	15	22	34	0.676717135725	0.0113528806029	0.706442151067	-1.44091796875	0.78125	-0.09228515625	35.25	-29.875	-23.4375
18	12	13	15	22	34	0.678978606941	0.0125736779063	0.705102559096	-1.275390625	0.697265625	0.01611328125	15.0	-15.375	-28.625
18	12	13	15	22	34	0.679684411365	0.0115366280869	0.704771999428	-1.02392578125	0.5400390625	0.1201171875	2.75	4.6875	-24.0625
18	12	13	15	22	34	0.678618932718	0.00921671693114	0.705658704907	-0.81884765625	0.42724609375	0.15966796875	-7.4375	20.75	-17.1875
18	12	13	15	22	34	0.675951193881	0.00592082949309	0.707630683643	-0.705078125	0.3662109375	0.12060546875	-16.375	30.75	-11.9375
18	12	13	15	22	34	0.67190225105	0.00189216658635	0.710539071991	-0.64794921875	0.35791015625	0.05908203125	-24.0	36.75	-9.375
18	12	13	15	22	34	0.666911135271	-0.00268571205857	0.713850057386	-0.63037109375	0.3701171875	-0.00390625	-32.0625	39.1875	-6.3125
18	12	13	15	22	34	0.661100666524	-0.00762972793976	0.717377539808	-0.64501953125	0.37646484375	-0.07470703125	-40.4375	39.4375	-1.5
18	12	13	15	22	35	0.654880281092	-0.0127570117204	0.720740643036	-0.68359375	0.38916015625	-0.1298828125	-47.0625	37.5625	3.6875
18	12	13	15	22	35	0.648647298775	-0.0177619614137	0.723723630524	-0.7177734375	0.3984375	-0.181640625	-51.0	33.3125	6.75
18	12	13	15	22	35	0.64291605391	-0.0228893496835	0.726111210226	-0.74072265625	0.3828125	-0.19189453125	-51.75	28.4375	7.125
18	12	13	15	22	35	0.638152948407	-0.0274671283389	0.727939939044	-0.75146484375	0.3525390625	-0.1708984375	-44.6875	23.9375	6.0
18	12	13	15	22	35	0.634319747292	-0.0305196183262	0.729540956469	-0.76171875	0.32373046875	-0.13916015625	-30.6875	19.8125	6.625
18	12	13	15	22	35	0.631087383504	-0.0314963816508	0.731253201894	-0.77978515625	0.31298828125	-0.1083984375	-15.25	17.5	9.25
18	12	13	15	22	35	0.628143156575	-0.030885282016	0.733189738294	-0.79443359375	0.31591796875	-0.0703125	-2.6875	17.625	11.8125
18	12	13	15	22	35	0.624964576452	-0.0294811886343	0.735442736758	-0.79345703125	0.32763671875	-0.052734375	2.0	20.375	14.0
18	12	13	15	22	35	0.62141958143	-0.0285654026234	0.737634381846	-0.79150390625	0.32568359375	-0.03173828125	-2.8125	23.9375	16.125
18	12	13	15	22	35	0.617452151747	-0.0287485135896	0.739709630982	-0.81884765625	0.30517578125	-0.02001953125	-11.3125	28.1875	18.5625
18	12	13	15	22	35	0.613012491517	-0.0298479645875	0.741804322355	-0.84814453125	0.27734375	-0.02490234375	-17.9375	31.4375	21.1875
18	12	13	15	22	35	0.608294893766	-0.0309457667208	0.744163289665	-0.88330078125	0.25390625	-0.03271484375	-17.1875	34.0	23.75
18	12	13	15	22	34	0.676717135725	0.0113528806029	0.706442151067	-1.44091796875	0.78125	-0.09228515625	35.25	-29.875	-23.4375
18	12	13	15	22	34	0.678978606941	0.0125736779063	0.705102559096	-1.275390625	0.697265625	0.01611328125	15.0	-15.375	-28.625
18	12	13	15	22	34	0.679684411365	0.0115366280869	0.704771999428	-1.02392578125	0.5400390625	0.1201171875	2.75	4.6875	-24.0625
18	12	13	15	22	34	0.678618932718	0.00921671693114	0.705658704907	-0.81884765625	0.42724609375	0.15966796875	-7.4375	20.75	-17.1875
18	12	13	15	22	34	0.675951193881	0.00592082949309	0.707630683643	-0.705078125	0.3662109375	0.12060546875	-16.375	30.75	-11.9375
18	12	13	15	22	34	0.67190225105	0.00189216658635	0.710539071991	-0.64794921875	0.35791015625	0.05908203125	-24.0	36.75	-9.375
18	12	13	15	22	34	0.666911135271	-0.00268571205857	0.713850057386	-0.63037109375	0.3701171875	-0.00390625	-32.0625	39.1875	-6.3125
18	12	13	15	22	34	0.661100666524	-0.00762972793976	0.717377539808	-0.64501953125	0.37646484375	-0.07470703125	-40.4375	39.4375	-1.5
18	12	13	15	22	35	0.654880281092	-0.0127570117204	0.720740643036	-0.68359375	0.38916015625	-0.1298828125	-47.0625	37.5625	3.6875
18	12	13	15	22	35	0.648647298775	-0.0177619614137	0.723723630524	-0.7177734375	0.3984375	-0.181640625	-51.0	33.3125	6.75
18	12	13	15	22	35	0.64291605391	-0.0228893496835	0.726111210226	-0.74072265625	0.3828125	-0.19189453125	-51.75	28.4375	7.125
18	12	13	15	22	35	0.638152948407	-0.0274671283389	0.727939939044	-0.75146484375	0.3525390625	-0.1708984375	-44.6875	23.9375	6.0
18	12	13	15	22	35	0.634319747292	-0.0305196183262	0.729540956469	-0.76171875	0.32373046875	-0.13916015625	-30.6875	19.8125	6.625
18	12	13	15	22	35	0.631087383504	-0.0314963816508	0.731253201894	-0.77978515625	0.31298828125	-0.1083984375	-15.25	17.5	9.25
18	12	13	15	22	35	0.628143156575	-0.030885282016	0.733189738294	-0.79443359375	0.31591796875	-0.0703125	-2.6875	17.625	11.8125
18	12	13	15	22	35	0.624964576452	-0.0294811886343	0.735442736758	-0.79345703125	0.32763671875	-0.052734375	2.0	20.375	14.0
18	12	13	15	22	35	0.62141958143	-0.0285654026234	0.737634381846	-0.79150390625	0.32568359375	-0.03173828125	-2.8125	23.9375	16.125
18	12	13	15	22	35	0.617452151747	-0.0287485135896	0.739709630982	-0.81884765625	0.30517578125	-0.02001953125	-11.3125	28.1875	18.5625
18	12	13	15	22	35	0.613012491517	-0.0298479645875	0.741804322355	-0.84814453125	0.27734375	-0.02490234375	-17.9375	31.4375	21.1875
18	12	13	15	22	35	0.608294893766	-0.0309457667208	0.744163289665	-0.88330078125	0.25390625	-0.03271484375	-17.1875	34.0	23.75
18	12	13	15	22	34	0.676717135725	0.0113528806029	0.706442151067	-1.44091796875	0.78125	-0.09228515625	35.25	-29.875	-23.4375
18	12	13	15	22	34	0.678978606941	0.0125736779063	0.705102559096	-1.275390625	0.697265625	0.01611328125	15.0	-15.375	-28.625
18	12	13	15	22	34	0.679684411365	0.0115366280869	0.704771999428	-1.02392578125	0.5400390625	0.1201171875	2.75	4.6875	-24.0625
18	12	13	15	22	34	0.678618932718	0.00921671693114	0.705658704907	-0.81884765625	0.42724609375	0.15966796875	-7.4375	20.75	-17.1875
18	12	13	15	22	34	0.675951193881	0.00592082949309	0.707630683643	-0.705078125	0.3662109375	0.12060546875	-16.375	30.75	-11.9375
18	12	13	15	22	34	0.67190225105	0.00189216658635	0.710539071991	-0.64794921875	0.35791015625	0.05908203125	-24.0	36.75	-9.375
18	12	13	15	22	34	0.666911135271	-0.00268571205857	0.713850057386	-0.63037109375	0.3701171875	-0.00390625	-32.0625	39.1875	-6.3125
18	12	13	15	22	34	0.661100666524	-0.00762972793976	0.717377539808	-0.64501953125	0.37646484375	-0.07470703125	-40.4375	39.4375	-1.5
18	12	13	15	22	35	0.654880281092	-0.0127570117204	0.720740643036	-0.68359375	0.38916015625	-0.1298828125	-47.0625	37.5625	3.6875
18	12	13	15	22	35	0.648647298775	-0.0177619614137	0.723723630524	-0.7177734375	0.3984375	-0.181640625	-51.0	33.3125	6.75
18	12	13	15	22	35	0.64291605391	-0.0228893496835	0.726111210226	-0.74072265625	0.3828125	-0.19189453125	-51.75	28.4375	7.125
18	12	13	15	22	35	0.638152948407	-0.0274671283389	0.727939939044	-0.75146484375	0.3525390625	-0.1708984375	-44.6875	23.9375	6.0
18	12	13	15	22	35	0.634319747292	-0.0305196183262	0.729540956469	-0.76171875	0.32373046875	-0.13916015625	-30.6875	19.8125	6.625
18	12	13	15	22	35	0.631087383504	-0.0314963816508	0.731253201894	-0.77978515625	0.31298828125	-0.1083984375	-15.25	17.5	9.25
18	12	13	15	22	35	0.628143156575	-0.030885282016	0.733189738294	-0.79443359375	0.31591796875	-0.0703125	-2.6875	17.625	11.8125
18	12	13	15	22	35	0.624964576452	-0.0294811886343	0.735442736758	-0.79345703125	0.32763671875	-0.052734375	2.0	20.375	14.0
18	12	13	15	22	35	0.62141958143	-0.0285654026234	0.737634381846	-0.79150390625	0.32568359375	-0.03173828125	-2.8125	23.9375	16.125
18	12	13	15	22	35	0.617452151747	-0.0287485135896	0.739709630982	-0.81884765625	0.30517578125	-0.02001953125	-11.3125	28.1875	18.5625
18	12	13	15	22	35	0.613012491517	-0.0298479645875	0.741804322355	-0.84814453125	0.27734375	-0.02490234375	-17.9375	31.4375	21.1875
18	12	13	15	22	35	0.608294893766	-0.0309457667208	0.744163289665	-0.88330078125	0.25390625	-0.03271484375	-17.1875	34.0	23.75
18	12	13	15	22	34	0.676717135725	0.0113528806029	0.706442151067	-1.44091796875	0.78125	-0.09228515625	35.25	-29.875	-23.4375
18	12	13	15	22	34	0.678978606941	0.0125736779063	0.705102559096	-1.275390625	0.697265625	0.01611328125	15.0	-15.375	-28.625
18	12	13	15	22	34	0.679684411365	0.0115366280869	0.704771999428	-1.02392578125	0.5400390625	0.1201171875	2.75	4.6875	-24.0625
18	12	13	15	22	34	0.678618932718	0.00921671693114	0.705658704907	-0.81884765625	0.42724609375	0.15966796875	-7.4375	20.75	-17.1875
18	12	13	15	22	34	0.675951193881	0.00592082949309	0.707630683643	-0.705078125	0.3662109375	0.12060546875	-16.375	30.75	-11.9375
18	12	13	15	22	34	0.67190225105	0.00189216658635	0.710539071991	-0.64794921875	0.35791015625	0.05908203125	-24.0	36.75	-9.375
18	12	13	15	22	34	0.666911135271	-0.00268571205857	0.713850057386	-0.63037109375	0.3701171875	-0.00390625	-32.0625	39.1875	-6.3125
18	12	13	15	22	34	0.661100666524	-0.00762972793976	0.717377539808	-0.64501953125	0.37646484375	-0.07470703125	-40.4375	39.4375	-1.5
18	12	13	15	22	35	0.654880281092	-0.0127570117204	0.720740643036	-0.68359375	0.38916015625	-0.1298828125	-47.0625	37.5625	3.6875
18	12	13	15	22	35	0.648647298775	-0.0177619614137	0.723723630524	-0.7177734375	0.3984375	-0.181640625	-51.0	33.3125	6.75
18	12	13	15	22	35	0.64291605391	-0.0228893496835	0.726111210226	-0.74072265625	0.3828125	-0.19189453125	-51.75	28.4375	7.125
18	12	13	15	22	35	0.638152948407	-0.0274671283389	0.727939939044	-0.75146484375	0.3525390625	-0.1708984375	-44.6875	23.9375	6.0
18	12	13	15	22	35	0.634319747292	-0.0305196183262	0.729540956469	-0.76171875	0.32373046875	-0.13916015625	-30.6875	19.8125	6.625
18	12	13	15	22	35	0.631087383504	-0.0314963816508	0.731253201894	-0.77978515625	0.31298828125	-0.1083984375	-15.25	17.5	9.25
18	12	13	15	22	35	0.628143156575	-0.030885282016	0.733189738294	-0.79443359375	0.31591796875	-0.0703125	-2.6875	17.625	11.8125
18	12	13	15	22	35	0.624964576452	-0.0294811886343	0.735442736758	-0.79345703125	0.32763671875	-0.052734375	2.0	20.375	14.0
18	12	13	15	22	35	0.62141958143	-0.0285654026234	0.737634381846	-0.79150390625	0.32568359375	-0.03173828125	-2.8125	23.9375	16.125
18	12	13	15	22	35	0.617452151747	-0.0287485135896	0.739709630982	-0.81884765625	0.30517578125	-0.02001953125	-11.3125	28.1875	18.5625
18	12	13	15	22	35	0.613012491517	-0.0298479645875	0.741804322355	-0.84814453125	0.27734375	-0.02490234375	-17.9375	31.4375	21.1875
18	12	13	15	22	35	0.608294893766	-0.0309457667208	0.744163289665	-0.88330078125	0.25390625	-0.03271484375	-17.1875	34.0	23.75
