18	12	13	15	02	56	0.808428566947	0.0855731861728	0.581677934541	-0.74267578125	0.0146484375	0.2216796875	-51.6875	-36.3125	57.25
18	12	13	15	02	56	0.812651826818	0.0839264129393	0.576437122763	-0.73388671875	0.03271484375	0.19677734375	-45.5	-36.75	53.4375
18	12	13	15	02	56	0.816643343208	0.0831353788362	0.571082675765	-0.70849609375	0.046875	0.19775390625	-36.5	-37.0625	48.875
18	12	13	15	02	56	0.820343998998	0.0838044873977	0.565695549309	-0.66552734375	0.0458984375	0.1904296875	-23.5	-37.125	45.375
18	12	13	15	02	56	0.823828368022	0.0861854971955	0.560205731771	-0.6240234375	0.0458984375	0.18212890625	-8.9375	-38.3125	41.75
18	12	13	15	02	56	0.827235984896	0.0901518150735	0.554461129403	-0.568359375	0.048828125	0.17236328125	3.9375	-39.75	38.5625
18	12	13	15	02	56	0.830558796617	0.0951599297366	0.548558235114	-0.52734375	0.05029296875	0.16845703125	12.875	-40.5625	35.625
18	12	13	15	02	56	0.833697650777	0.10095438278	0.54267558482	-0.5302734375	0.10595703125	0.216796875	19.0625	-37.9375	30.75
18	12	13	15	02	56	0.835498584058	0.107061989804	0.538728119732	-0.69189453125	0.271484375	0.26708984375	24.8125	-27.5625	12.5
18	12	13	15	02	56	0.834651377162	0.111457760326	0.539282208368	-1.171875	0.43505859375	0.24658203125	29.5	-15.5625	-24.375
18	12	13	15	02	57	0.832308400165	0.111454615628	0.542990285118	-1.6875	0.43798828125	0.2470703125	20.5625	-11.0625	-51.0
18	12	13	15	02	57	0.830152640733	0.11017024605	0.546517663784	-1.615234375	0.30615234375	0.3623046875	12.125	-1.0625	-37.9375
18	12	13	15	02	57	0.825404602455	0.111087508428	0.553240206807	-1.912109375	0.296875	0.439453125	41.5	18.375	-54.875
18	12	13	15	02	57	0.818481346776	0.116036471043	0.561687325903	-1.8603515625	0.1494140625	0.33935546875	79.0	28.5625	-58.625
18	12	13	15	02	57	0.81212392709	0.127632554043	0.566991293404	-1.69775390625	-0.01123046875	0.3525390625	117.1875	31.4375	-48.3125
18	12	13	15	02	57	0.805399285893	0.143989156152	0.570402146773	-1.59912109375	0.1044921875	0.3203125	147.25	24.1875	-44.75
18	12	13	15	02	57	0.79832061487	0.159065947118	0.573516361902	-1.521484375	0.22265625	0.2109375	137.3125	23.5	-46.375
18	12	13	15	02	57	0.791121618851	0.167917257423	0.57821889479	-1.3779296875	0.146484375	0.19775390625	95.3125	21.8125	-47.0625
18	12	13	15	02	57	0.785428730425	0.171270828223	0.582540550449	-1.14892578125	0.048828125	0.232421875	60.25	22.875	-45.75
18	12	13	15	02	57	0.780195803803	0.172800369314	0.58676437662	-0.93310546875	-0.03125	0.24609375	48.0625	26.9375	-41.875
18	12	13	15	02	57	0.775254690023	0.175181557386	0.590306913409	-0.75439453125	-0.02490234375	0.2646484375	48.375	29.375	-36.3125
18	12	13	15	02	57	0.770533651393	0.17890004216	0.593281613715	-0.6376953125	0.0537109375	0.27978515625	48.625	32.375	-31.0
18	12	13	15	02	57	0.765927261726	0.182753125726	0.596541849606	-0.59423828125	0.16943359375	0.27587890625	38.125	36.6875	-28.0
18	12	13	15	02	57	0.762131121393	0.183726948214	0.600500238048	-0.59912109375	0.2802734375	0.2705078125	9.9375	38.5	-29.1875
18	12	13	15	02	57	0.759442218784	0.179453473977	0.605685993971	-0.66357421875	0.3193359375	0.259765625	-30.25	38.1875	-32.125
18	12	13	15	02	57	0.757708392048	0.170170049704	0.611891947018	-0.775390625	0.2919921875	0.2587890625	-66.125	37.75	-32.3125
18	12	13	15	02	57	0.756262723065	0.157844665202	0.618865839319	-0.8837890625	0.2412109375	0.244140625	-88.25	37.8125	-28.9375
18	12	13	15	02	57	0.754685605824	0.144540238967	0.625954455494	-0.9814453125	0.15576171875	0.22216796875	-94.375	36.5	-24.125
18	12	13	15	02	57	0.753272872276	0.1323919342	0.631928858818	-0.97998046875	0.05224609375	0.19921875	-84.25	30.1875	-16.9375
18	12	13	15	02	57	0.752461070505	0.123050090699	0.6359419122	-0.9130859375	-0.0078125	0.17138671875	-63.8125	19.875	-8.6875
18	12	13	15	02	57	0.752487418539	0.117255704982	0.63773430799	-0.8583984375	-0.04541015625	0.1455078125	-39.875	6.75	-0.625
18	12	13	15	02	57	0.753758876804	0.114446343348	0.637115163664	-0.79345703125	-0.0751953125	0.11865234375	-19.3125	-8.375	6.75
18	12	13	15	02	57	0.756281431048	0.114327289778	0.634324183329	-0.71337890625	-0.078125	0.111328125	-2.9375	-21.4375	14.25
18	12	13	15	02	57	0.759573073115	0.116646105973	0.629986635135	-0.673828125	-0.07666015625	0.10400390625	11.25	-30.4375	21.125
18	12	13	15	02	57	0.762969107223	0.121647794456	0.624719104994	-0.720703125	-0.04443359375	0.10888671875	27.5625	-35.0625	24.375
18	12	13	15	02	57	0.765961235974	0.129521853752	0.618921582021	-0.82373046875	0.0029296875	0.1025390625	46.875	-37.25	24.375
18	12	13	15	02	57	0.768405133072	0.140081800016	0.612697650789	-0.916015625	0.0615234375	0.09814453125	64.25	-39.25	24.0
18	12	13	15	02	57	0.770467404418	0.15240886547	0.605973254461	-0.94970703125	0.10986328125	0.1083984375	76.1875	-40.0625	22.6875
18	12	13	15	02	57	0.77215482398	0.165466107644	0.59905933107	-0.93994140625	0.15234375	0.11767578125	80.75	-39.375	21.5625
18	12	13	15	02	57	0.773892818134	0.178717420262	0.591696267765	-0.89794921875	0.18212890625	0.16552734375	80.3125	-37.3125	23.5
18	12	13	15	02	57	0.775222919573	0.191959379738	0.584606339947	-0.89208984375	0.25927734375	0.205078125	77.0	-32.0	22.0
18	12	13	15	02	57	0.776174211753	0.203321508285	0.57834622966	-0.896484375	0.29638671875	0.21337890625	66.625	-27.75	15.0625
18	12	13	15	02	57	0.777497836386	0.211495525442	0.572777492279	-0.83447265625	0.2763671875	0.2236328125	47.6875	-25.8125	10.6875
18	12	13	15	02	57	0.779319211015	0.216070645911	0.568009443742	-0.78955078125	0.232421875	0.24560546875	27.75	-24.0625	6.3125
18	12	13	15	02	57	0.781407448127	0.217600183766	0.5639293402	-0.7900390625	0.16650390625	0.2861328125	15.4375	-22.4375	-0.3125
18	12	13	15	02	57	0.782702862557	0.217665008803	0.561253436887	-0.9443359375	0.20947265625	0.35986328125	11.1875	-14.0625	-12.0
18	12	13	15	02	57	0.781699969223	0.216803177222	0.561783908544	-1.30908203125	0.30126953125	0.39306640625	8.6875	0.625	-29.0
18	12	13	15	02	57	0.778607090743	0.213512668816	0.566071037907	-1.61474609375	0.3232421875	0.35498046875	-3.625	14.0	-43.3125
18	12	13	15	02	57	0.775681415906	0.205945002933	0.572116927234	-1.3974609375	0.1640625	0.37646484375	-27.5	25.875	-44.6875
18	12	13	15	02	57	0.772733570157	0.196540449913	0.578939803549	-1.24169921875	0.029296875	0.484375	-37.0	40.125	-41.0
18	12	13	15	02	57	0.768900892309	0.189219081222	0.585968767656	-1.24560546875	0.0771484375	0.5849609375	-27.125	53.625	-40.5625
18	12	13	15	02	57	0.76228828708	0.183903804065	0.595841000759	-1.4873046875	0.23779296875	0.51220703125	-23.0	70.8125	-49.4375
18	12	13	15	02	57	0.755661884172	0.174266129185	0.607642492483	-1.62939453125	0.19189453125	0.27099609375	-55.4375	62.4375	-50.25
18	12	13	15	02	57	0.753702347054	0.157418072	0.616549028798	-1.4697265625	-0.0859375	0.17041015625	-103.9375	33.75	-36.6875
18	12	13	15	02	57	0.754245454429	0.140326155194	0.622159417091	-1.19775390625	-0.2939453125	0.23095703125	-108.125	13.8125	-23.5625
18	12	13	15	02	57	0.755416995299	0.128364733445	0.624000318596	-0.97412109375	-0.3330078125	0.263671875	-59.5625	0.875	-8.0625
18	12	13	15	02	57	0.756804457814	0.125859407373	0.622949132708	-0.8447265625	-0.2333984375	0.19921875	-9.75	-9.0625	11.4375
18	12	13	15	02	57	0.758844101696	0.12806104612	0.620101128469	-0.81201171875	-0.1337890625	0.1328125	11.25	-19.4375	22.5
18	12	13	15	02	57	0.762159239958	0.131166830037	0.615611283272	-0.78271484375	-0.08251953125	0.12646484375	12.75	-30.5625	27.8125
18	12	13	15	02	57	0.766463415028	0.134407297913	0.609899055743	-0.7490234375	-0.05712890625	0.15576171875	11.6875	-37.125	31.0
18	12	13	15	02	57	0.770925158233	0.138131720751	0.603860854347	-0.771484375	-0.013671875	0.1904296875	12.5625	-37.3125	32.375
18	12	13	15	02	58	0.774862066313	0.142704018199	0.5983436657	-0.85546875	0.06884765625	0.21240234375	12.5	-32.3125	32.5
18	12	13	15	02	58	0.778227583322	0.14691716024	0.593833424168	-0.98388671875	0.15185546875	0.24267578125	5.375	-25.9375	31.3125
18	12	13	15	02	58	0.781541433042	0.1491179101	0.59012360002	-1.07666015625	0.185546875	0.27197265625	-9.625	-22.75	29.0
18	12	13	15	02	58	0.785380647959	0.148567381451	0.586700768492	-1.04052734375	0.1572265625	0.3193359375	-27.25	-20.9375	29.6875
18	12	13	15	02	58	0.789712861076	0.145881414281	0.58334254238	-0.95361328125	0.09375	0.36474609375	-41.0	-18.625	34.375
18	12	13	15	02	58	0.794241427274	0.141977064236	0.580055047908	-0.861328125	0.02685546875	0.3876953125	-49.0	-16.125	40.0
18	12	13	15	02	58	0.798638297759	0.137948834679	0.576882494047	-0.77490234375	-0.0068359375	0.388671875	-51.25	-13.5625	44.625
18	12	13	15	02	58	0.802557287938	0.13415627948	0.574039949278	-0.71337890625	-0.021484375	0.35400390625	-49.375	-11.75	45.4375
18	12	13	15	02	58	0.805968715624	0.130747121241	0.571515077582	-0.68798828125	-0.00341796875	0.3046875	-46.6875	-11.9375	43.1875
18	12	13	15	02	58	0.808947019148	0.127143789397	0.569430826351	-0.681640625	0.02734375	0.26611328125	-48.0625	-11.4375	40.3125
18	12	13	15	02	58	0.811411753404	0.123048450042	0.56800043457	-0.6982421875	0.0703125	0.22900390625	-52.4375	-9.9375	36.875
18	12	13	15	02	58	0.813440324678	0.118167664784	0.56715596135	-0.71142578125	0.08984375	0.2041015625	-57.375	-8.0625	33.3125
18	12	13	15	02	58	0.81486937368	0.112921973132	0.56699038293	-0.72607421875	0.11962890625	0.22314453125	-58.25	-2.5625	28.75
18	12	13	15	02	58	0.81514986527	0.108157660895	0.56807186792	-0.76953125	0.15576171875	0.22119140625	-51.3125	5.0625	20.375
18	12	13	15	02	58	0.814383344157	0.10419370173	0.570227042506	-0.81640625	0.14013671875	0.23291015625	-38.875	11.8125	11.75
18	12	13	15	02	58	0.8130810545	0.101505427042	0.572715226662	-0.81591796875	0.08544921875	0.236328125	-22.3125	14.3125	7.125
18	12	13	15	02	58	0.811742451969	0.101017652305	0.574732455654	-0.7666015625	0.03125	0.2451171875	-3.0625	13.0625	6.4375
18	12	13	15	02	58	0.810594832291	0.102667206921	0.57602284882	-0.70947265625	0.0029296875	0.23779296875	13.1875	9.625	6.8125
18	12	13	15	02	58	0.809657421694	0.105533183725	0.576739764613	-0.66162109375	-0.02587890625	0.21533203125	22.5625	5.25	8.5
18	12	13	15	02	58	0.809181949065	0.108952989295	0.576687867147	-0.6123046875	-0.0390625	0.2158203125	24.9375	1.75	11.5625
18	12	13	15	02	58	0.808983674576	0.112369016515	0.576249801695	-0.5712890625	-0.03564453125	0.21142578125	23.125	-0.3125	14.125
18	12	13	15	02	58	0.808897437162	0.115487017138	0.575725975499	-0.568359375	-0.0078125	0.20751953125	18.875	-0.75	14.5625
18	12	13	15	02	58	0.808553168735	0.118167051761	0.575637120431	-0.66259765625	0.07177734375	0.24365234375	15.1875	2.4375	8.8125
18	12	13	15	02	58	0.806586974101	0.120728644326	0.57776407846	-0.94287109375	0.26318359375	0.2509765625	15.9375	12.125	-8.625
18	12	13	15	02	58	0.802462108751	0.1214649423	0.582970685379	-1.5048828125	0.35400390625	0.2119140625	19.75	16.75	-36.9375
18	12	13	15	02	58	0.798005595539	0.120305111581	0.588646624092	-1.81591796875	0.32763671875	0.203125	21.6875	12.0625	-54.6875
18	12	13	15	02	58	0.793412543708	0.11987554703	0.593945492948	-1.853515625	0.2314453125	0.28759765625	34.5	16.4375	-56.375
18	12	13	15	02	58	0.78760839942	0.122804409457	0.599190302008	-2.013671875	0.1064453125	0.21923828125	71.8125	11.6875	-63.8125
18	12	13	15	02	58	0.783551223742	0.131476928873	0.59994741592	-1.80859375	-0.10546875	0.20751953125	108.625	3.3125	-55.125
18	12	13	15	02	58	0.778857057038	0.145822061854	0.598853180768	-1.71337890625	-0.08837890625	0.2568359375	145.625	-1.0	-48.1875
18	12	13	15	02	58	0.773792324412	0.162119777048	0.596473818265	-1.6220703125	0.01171875	0.19970703125	155.4375	-4.375	-43.125
18	12	13	15	02	58	0.769088223971	0.174143547856	0.594761559871	-1.47802734375	0.046875	0.19677734375	120.0625	-1.3125	-39.125
18	12	13	15	02	58	0.76510521549	0.179023023297	0.595237819024	-1.29296875	0.06640625	0.2412109375	65.3125	3.8125	-37.25
18	12	13	15	02	58	0.762602694537	0.177558126974	0.59712999525	-1.068359375	0.07470703125	0.26953125	15.125	11.0625	-36.3125
18	12	13	15	02	58	0.761102187713	0.171643223342	0.600262965272	-0.8544921875	0.07373046875	0.30712890625	-21.625	19.0	-34.4375
18	12	13	15	02	58	0.759864129832	0.163521246993	0.604583035263	-0.69873046875	0.09814453125	0.31787109375	-45.0	27.5625	-31.0625
18	12	13	15	02	58	0.758291237886	0.154307353246	0.610270932656	-0.6201171875	0.15380859375	0.30078125	-62.1875	36.9375	-28.25
18	12	13	15	02	58	0.756565971748	0.14319514076	0.617155186797	-0.6044921875	0.21728515625	0.27587890625	-82.75	42.125	-27.625
18	12	13	15	02	58	0.754101643218	0.127748663639	0.625925726523	-0.62353515625	0.24755859375	0.2333984375	-107.875	42.125	-27.0625
18	12	13	15	02	58	0.751933920911	0.10962523922	0.634678862702	-0.67578125	0.22412109375	0.21630859375	-127.3125	40.1875	-26.375
18	12	13	15	02	58	0.749538273496	0.0910676794833	0.642967115065	-0.78662109375	0.181640625	0.181640625	-130.25	38.0	-25.75
18	12	13	15	02	58	0.747165164035	0.074588336774	0.649870721467	-0.92626953125	0.11328125	0.1484375	-114.4375	32.0	-22.625
18	12	13	15	02	58	0.745373209854	0.0631723937274	0.654490413468	-1.015625	0.033203125	0.1201171875	-81.25	20.5	-17.9375
18	12	13	15	02	58	0.74449433371	0.0573767872171	0.656475900553	-1.02099609375	-0.0390625	0.0947265625	-36.0625	6.3125	-12.8125
18	12	13	15	02	58	0.744573841623	0.0579838633938	0.655828012807	-0.97802734375	-0.099609375	0.08203125	15.1875	-7.1875	-7.375
18	12	13	15	02	58	0.74549391292	0.0650643942339	0.65271916692	-0.935546875	-0.119140625	0.07568359375	62.4375	-18.9375	-1.5
18	12	13	15	02	58	0.74686243142	0.0771521831738	0.64773652519	-0.9150390625	-0.09033203125	0.056640625	96.5	-28.0	3.6875
18	12	13	15	02	58	0.748910248913	0.0920421072013	0.640815705243	-0.916015625	-0.04150390625	0.0556640625	113.625	-33.3125	7.125
18	12	13	15	02	58	0.750934713898	0.107241509576	0.633255925928	-0.92333984375	0.01220703125	0.08349609375	114.5625	-35.375	8.75
18	12	13	15	02	58	0.752850349074	0.121588932654	0.625645863305	-0.91162109375	0.03662109375	0.09716796875	106.0625	-34.875	11.4375
18	12	13	15	02	59	0.754402887931	0.135682655329	0.618537125104	-0.8974609375	0.04150390625	0.13037109375	96.4375	-32.3125	16.5625
18	12	13	15	02	59	0.755928337386	0.14947666518	0.611578679096	-0.87841796875	0.0634765625	0.14794921875	87.8125	-29.5625	23.25
18	12	13	15	02	59	0.757844820591	0.162848742053	0.604517969002	-0.85888671875	0.10888671875	0.177734375	76.8125	-27.9375	30.8125
18	12	13	15	02	59	0.760360389825	0.174998253	0.597569897759	-0.853515625	0.16064453125	0.19873046875	59.75	-26.9375	37.625
18	12	13	15	02	59	0.763469597084	0.184763548959	0.591157902763	-0.84326171875	0.19482421875	0.22705078125	38.25	-24.75	41.3125
18	12	13	15	02	59	0.766707045799	0.191783579166	0.585849393009	-0.8505859375	0.20556640625	0.23291015625	18.25	-21.75	40.0
18	12	13	15	02	59	0.769888697929	0.196180311991	0.58164349501	-0.85546875	0.2060546875	0.2392578125	2.0625	-18.0	35.3125
18	12	13	15	02	59	0.772725630358	0.198430570639	0.578628671074	-0.8427734375	0.19482421875	0.2451171875	-8.9375	-13.0	29.6875
18	12	13	15	02	59	0.774891800011	0.199048614402	0.576941890012	-0.8330078125	0.16552734375	0.24462890625	-15.3125	-6.9375	23.9375
18	12	13	15	02	59	0.776384493516	0.198856971688	0.576306791492	-0.82080078125	0.14892578125	0.24267578125	-17.8125	-1.125	19.0625
18	12	13	15	02	59	0.777213807817	0.198377827331	0.576455446558	-0.80419921875	0.14892578125	0.22998046875	-17.375	3.0625	14.0
18	12	13	15	02	59	0.777761912856	0.197156724103	0.577064913211	-0.787109375	0.14404296875	0.234375	-18.5625	5.4375	8.75
18	12	13	15	02	59	0.778087850435	0.194888179043	0.578194713458	-0.75927734375	0.13720703125	0.23095703125	-21.875	7.25	3.25
18	12	13	15	02	59	0.778379117498	0.191725910293	0.579450514618	-0.74560546875	0.11767578125	0.24853515625	-22.9375	7.875	-2.8125
18	12	13	15	02	59	0.778613931049	0.188183345047	0.580481223289	-0.7333984375	0.08984375	0.2587890625	-19.0625	5.9375	-9.25
18	12	13	15	02	59	0.778919937354	0.185192625181	0.580909101465	-0.73876953125	0.1318359375	0.32763671875	-12.125	6.6875	-15.0625
18	12	13	15	02	59	0.77787511999	0.182810419364	0.582673877544	-0.875	0.24462890625	0.32958984375	-7.5625	14.1875	-27.3125
18	12	13	15	02	59	0.775414669007	0.179326849618	0.586382928617	-1.10400390625	0.29541015625	0.34765625	-10.625	23.625	-41.0
18	12	13	15	02	59	0.77084337775	0.17475054165	0.593040957971	-1.50439453125	0.3486328125	0.3154296875	-16.125	34.6875	-53.3125
18	12	13	15	02	59	0.766008723711	0.166690822666	0.600538632079	-1.68212890625	0.080078125	0.2255859375	-24.25	27.1875	-54.3125
18	12	13	15	02	59	0.762722975106	0.158575087174	0.605612784811	-1.47021484375	-0.171875	0.34619140625	-16.625	22.9375	-40.1875
18	12	13	15	02	59	0.759845428978	0.154850016332	0.608840722472	-1.52392578125	-0.17626953125	0.4228515625	4.125	22.6875	-24.375
18	12	13	15	02	59	0.756668848686	0.154239104673	0.612012466385	-1.58447265625	-0.07666015625	0.34814453125	10.5625	22.8125	-14.3125
18	12	13	15	02	59	0.754835412763	0.150515414237	0.615733778924	-1.533203125	-0.0283203125	0.29443359375	-24.1875	19.6875	-5.6875
18	12	13	15	02	59	0.755842238377	0.140205896919	0.619359702238	-1.396484375	-0.0341796875	0.24072265625	-80.8125	7.5625	4.75
18	12	13	15	02	59	0.759467004585	0.125245221683	0.621770503553	-1.24658203125	-0.15869140625	0.23486328125	-121.8125	-4.3125	15.4375
18	12	13	15	02	59	0.764125888055	0.112064472439	0.621786917615	-1.14013671875	-0.228515625	0.23486328125	-111.75	-17.0	24.0625
18	12	13	15	02	59	0.769141237616	0.103581674489	0.618987484379	-1.01708984375	-0.21142578125	0.22216796875	-69.0625	-30.125	32.25
18	12	13	15	02	59	0.774518949808	0.102239675382	0.613743245355	-0.91015625	-0.14111328125	0.21142578125	-26.75	-39.1875	42.25
18	12	13	15	02	59	0.780052611439	0.106448494081	0.606890697616	-0.826171875	-0.07470703125	0.20166015625	4.125	-44.1875	51.5
18	12	13	15	02	59	0.785428765539	0.114017790956	0.599264813496	-0.75390625	0.0087890625	0.197265625	21.3125	-45.75	55.1875
18	12	13	15	02	59	0.79068748167	0.122442418421	0.591398101737	-0.69677734375	0.10400390625	0.2109375	23.0	-44.375	53.9375
18	12	13	15	02	59	0.795621151211	0.129276992579	0.584248995734	-0.66650390625	0.181640625	0.2158203125	9.5	-40.0625	49.8125
18	12	13	15	02	59	0.800370979907	0.132327025428	0.578259335289	-0.66259765625	0.2236328125	0.232421875	-15.375	-34.25	43.1875
18	12	13	15	02	59	0.804905505845	0.131109200467	0.57357223314	-0.69091796875	0.23291015625	0.259765625	-40.8125	-27.6875	35.75
18	12	13	15	02	59	0.808999457198	0.126532056343	0.57009619211	-0.74365234375	0.22412109375	0.29296875	-58.375	-21.375	27.6875
18	12	13	15	02	59	0.81246916868	0.119877503365	0.567648055647	-0.79833984375	0.17626953125	0.30712890625	-65.0625	-16.3125	21.8125
18	12	13	15	02	59	0.815300339745	0.112922484729	0.565833207265	-0.818359375	0.10595703125	0.32080078125	-61.9375	-12.0625	20.6875
18	12	13	15	02	59	0.817395349005	0.107057306015	0.56452281832	-0.84375	0.06103515625	0.34130859375	-50.0625	-7.625	19.8125
18	12	13	15	02	59	0.818387972613	0.102908869468	0.564228700689	-0.8828125	0.03955078125	0.31689453125	-35.8125	-2.8125	17.5625
18	12	13	15	02	59	0.818716029538	0.0999208335461	0.564549657586	-0.88623046875	0.00341796875	0.28271484375	-25.75	-0.3125	18.1875
18	12	13	15	02	59	0.818985657302	0.0974750405955	0.5648303229	-0.80126953125	-0.01708984375	0.26953125	-24.125	0.9375	22.5
18	12	13	15	02	59	0.819252714907	0.0947920925534	0.565151310336	-0.73193359375	-0.001953125	0.259765625	-29.5625	2.8125	25.5625
18	12	13	15	02	59	0.819472981809	0.0908830083356	0.565684164711	-0.720703125	0.013671875	0.2412109375	-38.3125	3.625	24.5625
18	12	13	15	02	59	0.819684500975	0.0857589339393	0.566314155935	-0.7353515625	0.021484375	0.2236328125	-46.0	2.375	22.125
18	12	13	15	02	59	0.819964517626	0.0800799052497	0.566785061089	-0.7578125	0.02685546875	0.205078125	-47.8125	-0.3125	18.9375
18	12	13	15	02	59	0.820244559242	0.0749561183769	0.567054022574	-0.7744140625	0.00732421875	0.17724609375	-41.625	-4.375	16.6875
18	12	13	15	02	59	0.820850007345	0.0715985320208	0.56656229686	-0.76513671875	-0.05322265625	0.1669921875	-25.5	-10.0	17.5625
18	12	13	15	02	59	0.821694962469	0.0719028870739	0.565273885561	-0.72900390625	-0.07958984375	0.162109375	-0.1875	-15.625	19.3125
18	12	13	15	02	59	0.822650320348	0.0764177326811	0.563306114148	-0.67236328125	-0.07177734375	0.1689453125	27.1875	-19.0	21.875
18	12	13	15	03	00	0.82354813595	0.0843569169791	0.560894146253	-0.630859375	-0.02880859375	0.18505859375	47.6875	-19.625	22.8125
18	12	13	15	03	00	0.823983531151	0.093812050917	0.558782905755	-0.658203125	0.07568359375	0.2119140625	56.3125	-16.4375	16.75
18	12	13	15	03	00	0.823215912796	0.10229924148	0.558434224525	-0.82763671875	0.24267578125	0.26318359375	52.875	-5.6875	-1.0
18	12	13	15	03	00	0.820581706101	0.107364119386	0.561296442227	-1.14208984375	0.3564453125	0.26708984375	41.5625	7.625	-27.5
18	12	13	15	03	00	0.816668240148	0.108095624313	0.5666627759	-1.40966796875	0.33642578125	0.287109375	26.4375	18.3125	-45.75
18	12	13	15	03	00	0.812544022306	0.106145887529	0.572601823412	-1.36376953125	0.12890625	0.27099609375	22.0625	22.1875	-47.1875
18	12	13	15	03	00	0.809167508907	0.106143342988	0.576799649934	-1.26025390625	-0.0537109375	0.37744140625	40.875	21.3125	-37.8125
18	12	13	15	03	00	0.804218840955	0.113650233899	0.581129901695	-1.607421875	0.18798828125	0.4990234375	87.625	28.125	-47.9375
18	12	13	15	03	00	0.796964164712	0.12286810627	0.586995816194	-1.99853515625	0.328125	0.2685546875	114.0625	35.125	-73.5625
18	12	13	15	03	00	0.788368059029	0.128546231985	0.594877291987	-1.8251953125	0.11865234375	0.2685546875	88.3125	39.1875	-67.5
18	12	13	15	03	00	0.780541123923	0.13116850761	0.601824795268	-1.70361328125	0.0341796875	0.291015625	72.0625	37.5	-68.75
18	12	13	15	03	00	0.772683158036	0.132514032396	0.608795467118	-1.46875	0.00830078125	0.24072265625	59.8125	41.0	-67.0
18	12	13	15	03	00	0.76461341159	0.132328720071	0.61623189937	-1.298828125	0.01904296875	0.26220703125	45.9375	50.5625	-67.75
18	12	13	15	03	00	0.756637964297	0.130928398953	0.624000476687	-1.1103515625	0.1005859375	0.23876953125	29.0625	55.0625	-67.6875
18	12	13	15	03	00	0.749187349363	0.125861521459	0.632542651251	-0.931640625	0.1533203125	0.22509765625	-3.75	59.625	-67.8125
18	12	13	15	03	00	0.742391345167	0.115847962931	0.641741560724	-0.8212890625	0.1015625	0.2158203125	-37.3125	59.75	-69.125
18	12	13	15	03	00	0.736595704154	0.104129289964	0.64986198725	-0.74609375	0.03369140625	0.244140625	-46.6875	53.8125	-67.5625
18	12	13	15	03	00	0.731702682939	0.0944841302293	0.656139793259	-0.67236328125	0.05859375	0.28662109375	-34.4375	48.5	-63.8125
18	12	13	15	03	00	0.727183961139	0.0873426429738	0.661387057487	-0.62841796875	0.12255859375	0.28125	-23.375	45.5	-58.8125
18	12	13	15	03	00	0.723051317794	0.0809968849158	0.666286357001	-0.6220703125	0.169921875	0.2373046875	-25.5	41.5625	-53.625
18	12	13	15	03	00	0.719689139747	0.0736108135472	0.670798375525	-0.66162109375	0.13916015625	0.1943359375	-36.0	33.6875	-48.0625
18	12	13	15	03	00	0.717785062625	0.065796964074	0.673778002238	-0.71728515625	0.05419921875	0.1826171875	-38.25	21.0625	-40.6875
18	12	13	15	03	00	0.717365193713	0.0597550008206	0.674639452574	-0.7978515625	-0.0234375	0.158203125	-24.5	5.375	-32.6875
18	12	13	15	03	00	0.718336896777	0.0571910674042	0.673231028248	-0.89892578125	-0.060546875	0.12255859375	-1.0	-9.5625	-23.3125
18	12	13	15	03	00	0.720476885439	0.0583510591731	0.669816447036	-0.94384765625	-0.08349609375	0.09423828125	22.5625	-22.5	-12.8125
18	12	13	15	03	00	0.723653531517	0.0626238633044	0.664569808634	-0.95263671875	-0.12353515625	0.07666015625	42.8125	-33.5	-2.6875
18	12	13	15	03	00	0.727741582047	0.0700702286497	0.657671353397	-0.931640625	-0.12451171875	0.07763671875	60.1875	-41.625	8.875
18	12	13	15	03	00	0.732499487641	0.0799578642455	0.649550833054	-0.88916015625	-0.095703125	0.099609375	70.0625	-45.875	19.5625
18	12	13	15	03	00	0.737470840819	0.0912530133277	0.641151606685	-0.83740234375	-0.04443359375	0.125	69.5625	-44.6875	29.9375
18	12	13	15	03	00	0.74237276537	0.102844537503	0.633180553148	-0.8115234375	0.01416015625	0.14892578125	60.1875	-39.5625	38.625
18	12	13	15	03	00	0.747230774529	0.113409147123	0.62600872599	-0.78173828125	0.0703125	0.18017578125	43.5	-33.875	44.625
18	12	13	15	03	00	0.752527987688	0.122440679966	0.619222681084	-0.74365234375	0.12451171875	0.22216796875	24.8125	-30.4375	49.6875
18	12	13	15	03	00	0.758226445586	0.129829950874	0.612892588965	-0.728515625	0.201171875	0.2568359375	5.6875	-28.0625	53.1875
18	12	13	15	03	00	0.764063807498	0.1351974224	0.607137137976	-0.77587890625	0.2646484375	0.27294921875	-12.4375	-26.4375	51.5
18	12	13	15	03	00	0.769680397975	0.138066380668	0.602132999685	-0.849609375	0.26416015625	0.2587890625	-25.6875	-27.5	46.3125
18	12	13	15	03	00	0.775103745993	0.139285514478	0.597365175371	-0.85498046875	0.20556640625	0.24951171875	-30.5	-29.0625	43.375
18	12	13	15	03	00	0.779825558197	0.141059554242	0.592804150063	-0.86865234375	0.18603515625	0.25439453125	-22.5	-26.875	40.375
18	12	13	15	03	00	0.782649801691	0.144724900937	0.589520494832	-1.07421875	0.23583984375	0.25830078125	-5.375	-19.25	31.5
18	12	13	15	03	00	0.783234029214	0.148931657675	0.588402122945	-1.53955078125	0.22998046875	0.2353515625	5.8125	-14.0625	21.8125
18	12	13	15	03	00	0.783135606272	0.151988126237	0.587931579082	-1.83837890625	0.107421875	0.205078125	10.6875	-19.1875	17.0625
18	12	13	15	03	00	0.784078079949	0.151920468706	0.586441086108	-1.5595703125	-0.17138671875	0.2373046875	8.125	-24.125	17.3125
18	12	13	15	03	00	0.786461887013	0.151554898367	0.583391751345	-1.34619140625	-0.3076171875	0.39892578125	6.0625	-20.875	33.375
18	12	13	15	03	00	0.789330585362	0.152897704634	0.580156759501	-1.18310546875	-0.1533203125	0.52685546875	-2.4375	-6.9375	46.875
18	12	13	15	03	00	0.791621850714	0.149913120931	0.580302948164	-1.1923828125	0.0576171875	0.54052734375	-51.4375	13.6875	48.5
18	12	13	15	03	00	0.793645239585	0.136302862636	0.584765528013	-1.36181640625	0.19482421875	0.4912109375	-135.875	23.6875	45.9375
18	12	13	15	03	00	0.796973186575	0.111455390877	0.589382943215	-1.4677734375	0.07080078125	0.3564453125	-208.6875	15.8125	38.75
18	12	13	15	03	00	0.80092050937	0.0840472139463	0.591138175069	-1.43212890625	-0.2197265625	0.326171875	-214.875	-1.4375	32.8125
18	12	13	15	03	00	0.804289073471	0.0668358909806	0.589864886243	-1.20361328125	-0.33349609375	0.35400390625	-139.9375	-12.8125	34.0
18	12	13	15	03	00	0.806317684494	0.0623202388999	0.587922175401	-0.96484375	-0.21875	0.30419921875	-45.375	-13.0625	46.625
18	12	13	15	03	00	0.807347318744	0.0675688729001	0.586085201072	-0.79833984375	-0.05029296875	0.2275390625	5.1875	-11.1875	56.875
18	12	13	15	03	01	0.808473735154	0.0744687019168	0.583785791092	-0.666015625	0.06298828125	0.181640625	8.1875	-13.5	57.875
18	12	13	15	03	01	0.810261615261	0.0785541769372	0.580763786758	-0.55712890625	0.12744140625	0.17626953125	-12.25	-16.9375	51.8125
18	12	13	15	03	01	0.812547673243	0.0770919254286	0.577609572709	-0.53076171875	0.13525390625	0.1875	-40.4375	-17.6875	36.5625
18	12	13	15	03	01	0.81494845265	0.0698858581699	0.574834071829	-0.60302734375	0.12744140625	0.21435546875	-66.8125	-16.0	18.875
18	12	13	15	03	01	0.816901576736	0.0593921567783	0.572801643584	-0.748046875	0.12939453125	0.25634765625	-80.4375	-11.8125	6.75
18	12	13	15	03	01	0.818064989068	0.0490118769098	0.571662813371	-0.91845703125	0.130859375	0.30029296875	-73.875	-7.1875	0.0
18	12	13	15	03	01	0.818203976751	0.0404676789695	0.571857743989	-1.05859375	0.06787109375	0.2939453125	-51.875	-2.75	-6.125
18	12	13	15	03	01	0.817852448955	0.034974957329	0.572661517733	-1.04833984375	-0.0546875	0.29541015625	-24.5	0.875	-2.75
18	12	13	15	03	01	0.817476562849	0.033692754625	0.573326167016	-0.92041015625	-0.13037109375	0.318359375	2.125	3.4375	7.75
18	12	13	15	03	01	0.817010678766	0.0358910929484	0.573952290806	-0.80078125	-0.1416015625	0.31396484375	20.0	5.125	16.5625
18	12	13	15	03	01	0.816443001117	0.0390032205229	0.574488750487	-0.6552734375	-0.09716796875	0.2890625	16.5	7.0625	25.875
18	12	13	15	03	01	0.815821503863	0.0393689114164	0.574969217895	-0.55615234375	-0.02392578125	0.2451171875	-11.125	8.5	29.75
18	12	13	15	03	01	0.815210853731	0.033997637431	0.575396280183	-0.54345703125	0.0380859375	0.201171875	-52.3125	7.5625	24.5625
18	12	13	15	03	01	0.81473068437	0.0231332731028	0.575524095215	-0.62744140625	0.033203125	0.18798828125	-83.6875	5.3125	14.75
18	12	13	15	03	01	0.814465366249	0.0109254571761	0.575142921625	-0.708984375	-0.02685546875	0.20458984375	-84.75	1.6875	9.25
18	12	13	15	03	01	0.814355166967	0.00292977424782	0.574601974354	-0.74658203125	-0.04833984375	0.21533203125	-54.0625	-1.6875	9.0
18	12	13	15	03	01	0.814365496039	0.00177009439253	0.574426149244	-0.78271484375	-0.03466796875	0.20458984375	-7.0625	-5.875	8.875
18	12	13	15	03	01	0.814806498141	0.0070194581831	0.574191679378	-0.78173828125	-0.01220703125	0.1787109375	35.9375	-11.8125	9.4375
18	12	13	15	03	01	0.815721646563	0.0169077294297	0.573397870983	-0.70703125	0.009765625	0.1650390625	64.375	-17.75	12.0625
18	12	13	15	03	01	0.816922770282	0.029053738692	0.571980221183	-0.6279296875	0.0546875	0.17919921875	76.6875	-19.9375	11.875
18	12	13	15	03	01	0.817863094045	0.04120140223	0.570654680665	-0.6162109375	0.12158203125	0.21826171875	77.4375	-15.6875	6.0
18	12	13	15	03	01	0.8175939411	0.0515764748212	0.570942420683	-0.802734375	0.224609375	0.2802734375	70.6875	-4.125	-7.125
18	12	13	15	03	01	0.815967830752	0.0592687585024	0.573216180326	-1.06982421875	0.28125	0.30224609375	59.75	5.8125	-19.75
18	12	13	15	03	01	0.813104680256	0.0653731035623	0.577187737895	-1.37060546875	0.31884765625	0.29833984375	52.1875	11.6875	-24.5
18	12	13	15	03	01	0.810438581045	0.0692150437494	0.581003528616	-1.4208984375	0.177734375	0.2490234375	48.4375	7.125	-27.6875
18	12	13	15	03	01	0.808626891267	0.075503582767	0.583153783149	-1.38720703125	0.13232421875	0.43994140625	65.125	9.6875	-21.1875
18	12	13	15	03	01	0.804040480287	0.0886867697455	0.587908441974	-1.81787109375	0.48681640625	0.47119140625	111.3125	28.25	-28.625
18	12	13	15	03	01	0.798372218228	0.0999186025412	0.593652002637	-1.83740234375	0.46630859375	0.23388671875	114.1875	31.1875	-51.6875
18	12	13	15	03	01	0.792069820462	0.108644854775	0.599927122241	-1.7158203125	0.361328125	0.2744140625	93.8125	29.0	-56.9375
18	12	13	15	03	01	0.787332213912	0.115484343648	0.60385127469	-1.56884765625	0.28857421875	0.25634765625	85.5625	15.6875	-58.4375
18	12	13	15	03	01	0.782681388832	0.121159054576	0.607321205558	-1.3876953125	0.14697265625	0.28173828125	83.375	18.875	-55.8125
18	12	13	15	03	01	0.777351266239	0.12756470999	0.610967821533	-1.27197265625	0.03466796875	0.330078125	89.3125	28.625	-47.875
18	12	13	15	03	01	0.771091447899	0.135015774777	0.615261758476	-1.12255859375	0.08837890625	0.3076171875	87.1875	38.4375	-42.5
18	12	13	15	03	01	0.765106833131	0.139715160833	0.619959322227	-0.96044921875	0.15869140625	0.3125	60.375	44.9375	-42.75
18	12	13	15	03	01	0.760785237977	0.138679722455	0.624486021321	-0.8056640625	0.12841796875	0.33447265625	17.1875	42.625	-40.375
18	12	13	15	03	01	0.758396733037	0.133367956675	0.628385864517	-0.662109375	0.15966796875	0.33447265625	-21.3125	36.5	-35.4375
18	12	13	15	03	01	0.757112219391	0.122746910125	0.633083516569	-0.60546875	0.21728515625	0.28466796875	-70.75	34.875	-30.0
18	12	13	15	03	01	0.756269107771	0.107244941271	0.638220322103	-0.5390625	0.20703125	0.2470703125	-100.75	24.625	-27.0
18	12	13	15	03	01	0.756109613865	0.0891730824877	0.642766414564	-0.517578125	0.17236328125	0.2177734375	-122.25	19.375	-23.0625
18	12	13	15	03	01	0.75590578781	0.0711103232234	0.64676822736	-0.55029296875	0.158203125	0.201171875	-126.125	17.6875	-17.3125
18	12	13	15	03	01	0.755643297538	0.0549947181811	0.649804405944	-0.615234375	0.10791015625	0.16943359375	-113.0625	13.1875	-14.125
18	12	13	15	03	01	0.756114713685	0.0427252421359	0.65094958197	-0.6845703125	0.06005859375	0.15625	-87.375	5.3125	-11.9375
18	12	13	15	03	01	0.757032321833	0.0352789391292	0.65070721463	-0.75390625	0.05078125	0.1533203125	-51.75	-2.75	-10.0625
18	12	13	15	03	01	0.758249025283	0.0322269568823	0.649544081708	-0.84033203125	0.06591796875	0.11865234375	-18.9375	-11.125	-10.25
18	12	13	15	03	01	0.759921501594	0.0322279962122	0.647489742081	-0.93798828125	0.06640625	0.08984375	4.5	-19.5625	-10.6875
18	12	13	15	03	01	0.762073691286	0.0345481545269	0.644512303267	-1.0205078125	0.01708984375	0.06591796875	25.8125	-28.6875	-10.625
18	12	13	15	03	01	0.765023142711	0.0397343279005	0.640082790618	-1.00341796875	-0.0537109375	0.05029296875	50.6875	-39.25	-8.4375
18	12	13	15	03	01	0.768698438622	0.0490126128484	0.633990049386	-0.92041015625	-0.09375	0.078125	80.5	-46.4375	-2.5
18	12	13	15	03	01	0.772731449878	0.0636618406179	0.626364149972	-0.86279296875	-0.0517578125	0.13525390625	108.625	-46.625	6.5625
18	12	13	15	03	01	0.775963242149	0.0816064543974	0.618548847317	-0.81005859375	0.03564453125	0.1513671875	126.0	-43.0	14.125
18	12	13	15	03	02	0.778540977645	0.100163523663	0.610808276229	-0.7548828125	0.10986328125	0.1923828125	123.5	-38.5625	20.875
18	12	13	15	03	02	0.780555501066	0.116826965048	0.603850138571	-0.69775390625	0.208984375	0.2529296875	104.1875	-31.5	25.6875
18	12	13	15	03	02	0.782857328924	0.131229008045	0.597305615223	-0.67431640625	0.28857421875	0.275390625	73.875	-23.0625	25.75
18	12	13	15	03	02	0.785250710195	0.140325797337	0.592249330822	-0.6962890625	0.3486328125	0.3095703125	34.5	-15.8125	21.1875
18	12	13	15	03	02	0.787556331119	0.143375170255	0.589187108757	-0.81103515625	0.435546875	0.365234375	-5.0625	-6.8125	7.875
18	12	13	15	03	02	0.788589705122	0.139529107269	0.58967222455	-1.0771484375	0.4951171875	0.3447265625	-42.75	3.375	-15.5
18	12	13	15	03	02	0.7883062911	0.12793573257	0.593778056509	-1.4404296875	0.40771484375	0.287109375	-82.8125	10.0625	-32.625
18	12	13	15	03	02	0.788590736307	0.109804546023	0.598096023612	-1.52685546875	0.16064453125	0.27734375	-107.875	11.3125	-35.0625
18	12	13	15	03	02	0.787405945989	0.0929016937826	0.603372695822	-1.53125	-0.0400390625	0.38037109375	-96.6875	21.3125	-27.6875
18	12	13	15	03	02	0.7839965273	0.0830753093783	0.609727601308	-1.78369140625	-0.04833984375	0.43359375	-56.875	36.75	-14.9375
18	12	13	15	03	02	0.779078359142	0.0769678635912	0.61702468917	-1.83642578125	-0.03759765625	0.34130859375	-33.5625	41.75	-13.875
18	12	13	15	03	02	0.775409318961	0.0687882794765	0.623061896092	-1.6787109375	-0.0302734375	0.31103515625	-50.3125	33.9375	-12.75
18	12	13	15	03	02	0.774260281273	0.0552389085181	0.626976871047	-1.419921875	-0.01318359375	0.2783203125	-97.125	17.875	-4.5625
18	12	13	15	03	02	0.774555554982	0.0365609753691	0.629471350554	-1.19287109375	-0.1298828125	0.28662109375	-141.6875	8.875	6.0
18	12	13	15	03	02	0.775244732455	0.0187997305406	0.630523430144	-1.07861328125	-0.24658203125	0.283203125	-140.0	1.6875	15.3125
18	12	13	15	03	02	0.77701262672	0.0056154879543	0.629117764619	-1.0146484375	-0.267578125	0.234375	-98.5625	-12.1875	24.1875
18	12	13	15	03	02	0.780198021691	0.000427271643862	0.625403609001	-0.9375	-0.255859375	0.2041015625	-48.3125	-28.6875	34.0
18	12	13	15	03	02	0.78463873217	0.00286876860459	0.619898169111	-0.84423828125	-0.24609375	0.2109375	-2.625	-39.625	48.0
18	12	13	15	03	02	0.789506340182	0.0123903971439	0.613599322601	-0.775390625	-0.18310546875	0.2158203125	35.1875	-43.875	60.9375
18	12	13	15	03	02	0.794210459921	0.0262458113869	0.607071721055	-0.72021484375	-0.07177734375	0.2099609375	55.6875	-44.6875	67.25
18	12	13	15	03	02	0.798790047891	0.0405895454915	0.60023697799	-0.6748046875	0.03759765625	0.2197265625	51.5625	-44.3125	68.875
18	12	13	15	03	02	0.803148192427	0.0516388030698	0.593480002657	-0.6650390625	0.1142578125	0.24267578125	26.0	-41.875	66.5
18	12	13	15	03	02	0.807350070956	0.0573147135879	0.587002769515	-0.66357421875	0.1572265625	0.28125	-10.25	-37.0	61.25
18	12	13	15	03	02	0.811127192968	0.0577414647113	0.581198971438	-0.66552734375	0.17529296875	0.31591796875	-43.375	-29.4375	55.9375
18	12	13	15	03	02	0.814106961017	0.0543226267285	0.576430209915	-0.6640625	0.17431640625	0.36181640625	-65.25	-18.875	49.875
18	12	13	15	03	02	0.81587810165	0.0484631714453	0.573196023984	-0.67529296875	0.1611328125	0.37939453125	-74.3125	-6.5	42.375
18	12	13	15	03	02	0.81661812549	0.0415664058194	0.571187115504	-0.65625	0.13037109375	0.39794921875	-75.375	4.25	37.125
18	12	13	15	03	02	0.816539672566	0.0346684507413	0.570076285077	-0.587890625	0.10888671875	0.39208984375	-71.4375	11.8125	34.375
18	12	13	15	03	02	0.81590015289	0.027589352069	0.569671289513	-0.5380859375	0.06640625	0.36279296875	-66.5	16.0625	29.375
18	12	13	15	03	02	0.815326884714	0.0189213455803	0.569044209177	-0.52197265625	-0.00634765625	0.34716796875	-70.5625	15.0	26.0
18	12	13	15	03	02	0.815221459441	0.00897256323284	0.567285732558	-0.52490234375	-0.04296875	0.3525390625	-78.875	9.0625	27.1875
18	12	13	15	03	02	0.815471346841	-0.00115972721482	0.564604038793	-0.55810546875	-0.00732421875	0.314453125	-82.25	0.1875	24.5625
18	12	13	15	03	02	0.816067669379	-0.0128788540194	0.561359338465	-0.64794921875	-0.01171875	0.21484375	-85.625	-11.375	13.0625
18	12	13	15	03	02	0.817216140691	-0.0252080264475	0.557201146342	-0.72607421875	-0.0810546875	0.185546875	-83.375	-21.25	8.75
18	12	13	15	03	02	0.819047776861	-0.0347907618161	0.552318602937	-0.73828125	-0.14111328125	0.1953125	-63.4375	-29.0	11.125
18	12	13	15	03	02	0.821810896771	-0.0383926807835	0.547019404104	-0.69775390625	-0.11669921875	0.240234375	-26.625	-35.375	13.4375
18	12	13	15	03	02	0.82499289042	-0.0355242573413	0.54250790249	-0.73486328125	0.056640625	0.3134765625	11.9375	-34.9375	5.25
18	12	13	15	03	02	0.827378753231	-0.0296647786109	0.540741303937	-0.96337890625	0.259765625	0.32275390625	38.375	-27.0625	-18.8125
18	12	13	15	03	02	0.828084795598	-0.0250860802676	0.542616188757	-1.46923828125	0.3359375	0.3037109375	47.625	-18.8125	-45.25
18	12	13	15	03	02	0.828423783709	-0.0223403407631	0.545446134042	-1.69482421875	0.185546875	0.23486328125	52.5625	-21.4375	-54.875
18	12	13	15	03	02	0.829544144313	-0.017334304833	0.547068219077	-1.51318359375	0.05908203125	0.4306640625	71.6875	-13.0625	-47.9375
18	12	13	15	03	02	0.829634447364	-0.00378438314719	0.551116055418	-1.99853515625	0.40283203125	0.45654296875	132.375	6.375	-62.9375
18	12	13	15	03	02	0.828530018597	0.0101933485418	0.556178394685	-1.76025390625	0.25634765625	0.2451171875	147.3125	13.1875	-76.875
18	12	13	15	03	02	0.825974381388	0.0233167465039	0.561860344419	-1.62841796875	0.13427734375	0.3916015625	143.125	24.625	-75.4375
18	12	13	15	03	02	0.823151355989	0.0360731463288	0.566488783549	-1.49267578125	0.20361328125	0.328125	140.5	21.0625	-77.125
18	12	13	15	03	02	0.819371570431	0.0451679798956	0.57143598349	-1.41845703125	0.18212890625	0.2666015625	113.5625	26.375	-74.625
18	12	13	15	03	02	0.814758392526	0.0485265899054	0.5772527808	-1.30712890625	0.046875	0.25634765625	72.75	24.5625	-70.375
18	12	13	15	03	02	0.810247913981	0.0479776149155	0.582873085023	-1.11474609375	-0.0517578125	0.2529296875	45.3125	29.25	-62.3125
18	12	13	15	03	02	0.805514155279	0.0458392915522	0.588769382573	-0.9375	-0.07958984375	0.24853515625	27.9375	36.4375	-53.8125
18	12	13	15	03	02	0.800918237224	0.0436409495211	0.594371421589	-0.78662109375	-0.037109375	0.24951171875	20.1875	39.0625	-48.625
18	12	13	15	03	03	0.796501718719	0.0421781506349	0.599650002659	-0.6875	0.06005859375	0.25146484375	15.6875	40.5	-44.875
18	12	13	15	03	03	0.79244901569	0.0398574449084	0.604636828886	-0.6240234375	0.14501953125	0.2509765625	1.1875	40.1875	-42.8125
18	12	13	15	03	03	0.789144209509	0.035096134308	0.609024744565	-0.56591796875	0.18603515625	0.25146484375	-20.125	35.75	-40.8125
18	12	13	15	03	03	0.786577080472	0.0281988524232	0.61280623015	-0.5400390625	0.19921875	0.24609375	-39.6875	30.625	-36.75
18	12	13	15	03	03	0.784452657281	0.0202033792064	0.616172547094	-0.564453125	0.16455078125	0.22705078125	-51.3125	25.8125	-29.1875
18	12	13	15	03	03	0.782609989356	0.012390409284	0.619093208706	-0.6083984375	0.09814453125	0.2119140625	-51.125	21.1875	-22.0625
18	12	13	15	03	03	0.781084526461	0.00659194567928	0.621351916807	-0.650390625	0.05908203125	0.216796875	-37.4375	18.0625	-17.5
18	12	13	15	03	03	0.779761481109	0.00378436100421	0.623076727918	-0.70263671875	0.060546875	0.22802734375	-16.625	16.0625	-16.0
18	12	13	15	03	03	0.778544633841	0.00347918809321	0.624483743538	-0.775390625	0.07763671875	0.2158203125	0.0	13.0	-16.0625
18	12	13	15	03	03	0.777785753088	0.00451668725798	0.625256003659	-0.84033203125	0.0966796875	0.224609375	7.5625	9.125	-14.75
18	12	13	15	03	03	0.777327202376	0.00592074900906	0.625707196824	-0.908203125	0.103515625	0.22705078125	7.125	5.8125	-11.75
18	12	13	15	03	03	0.777127111143	0.00738551527241	0.625876641349	-0.95068359375	0.08837890625	0.234375	5.875	3.4375	-8.375
18	12	13	15	03	03	0.777261948816	0.00964405433587	0.625581727141	-0.94482421875	0.06591796875	0.24853515625	11.375	1.875	-4.9375
18	12	13	15	03	03	0.777488683154	0.0134281292427	0.625079416249	-0.93115234375	0.08203125	0.2646484375	19.625	1.9375	-2.625
