18	12	13	16	01	22	0.0332031916698	0.643494944439	0.0761720279484	-1.21435546875	-0.072265625	0.0361328125	59.8125	84.25	-22.625
18	12	13	16	01	22	0.0244749516378	0.653804693129	0.0729365765766	-1.02197265625	-0.11669921875	-0.04052734375	46.0625	66.0625	-17.875
18	12	13	16	01	22	0.01867655921	0.661430954767	0.0717765804933	-0.955078125	-0.12353515625	-0.0361328125	26.0625	48.6875	-13.4375
18	12	13	16	01	22	0.015930232782	0.667116644854	0.0722048482034	-0.97802734375	-0.0986328125	0.0	7.875	37.875	-9.5
18	12	13	16	01	22	0.0144658247504	0.671287513101	0.0736109056919	-0.96728515625	-0.07470703125	0.037109375	-1.3125	29.8125	-10.3125
18	12	13	16	01	22	0.0131220708186	0.673803078312	0.0751925174348	-0.94873046875	-0.0673828125	0.0869140625	-2.5625	21.375	-12.375
18	12	13	16	01	22	0.0115358007435	0.674996933455	0.0762949784626	-0.9267578125	-0.0693359375	0.1240234375	0.5625	14.0625	-11.8125
18	12	13	16	01	22	0.00860598091582	0.675355878252	0.0759279451013	-0.9072265625	-0.1025390625	0.154296875	12.0	9.5	-9.8125
18	12	13	16	01	22	0.0034180191162	0.67505877545	0.0729380864975	-0.86865234375	-0.1416015625	0.181640625	32.6875	6.1875	-6.8125
18	12	13	16	01	22	-0.00469974989962	0.674261521313	0.0664678914375	-0.8095703125	-0.14892578125	0.1943359375	58.4375	3.75	-4.9375
18	12	13	16	01	23	-0.014892309835	0.673205645408	0.0577382176388	-0.74072265625	-0.1416015625	0.19287109375	76.25	2.5	-5.3125
18	12	13	16	01	23	-0.0256343909032	0.671987247248	0.0487053427161	-0.71142578125	-0.11328125	0.19580078125	79.375	2.375	-8.0
18	12	13	16	01	23	-0.0360718620021	0.670472764963	0.0408326153628	-0.6923828125	-0.11181640625	0.19580078125	73.375	0.9375	-11.5
18	12	13	16	01	23	-0.0455322088371	0.668151595362	0.034667955254	-0.6767578125	-0.12353515625	0.22802734375	62.375	-3.0	-13.625
18	12	13	16	01	23	-0.0536490966204	0.66515114331	0.0296016062126	-0.66015625	-0.1259765625	0.234375	53.125	-7.875	-11.5
18	12	13	16	01	23	-0.0612792434568	0.661620517004	0.0239257603935	-0.654296875	-0.109375	0.2412109375	53.875	-11.4375	-8.4375
18	12	13	16	01	23	-0.0687858678589	0.658073848495	0.0189817257357	-0.6474609375	-0.13916015625	0.2431640625	50.125	-11.75	-8.75
18	12	13	16	01	23	-0.0757433813192	0.655018507911	0.0160519816978	-0.6787109375	-0.16259765625	0.24169921875	39.9375	-9.375	-13.125
18	12	13	16	01	23	-0.0820306996376	0.652339373308	0.0136107485262	-0.73095703125	-0.15869140625	0.26953125	34.625	-5.5625	-12.8125
18	12	13	16	01	23	-0.0876425267059	0.65036125667	0.0102534432358	-0.82275390625	-0.14501953125	0.294921875	35.1875	0.8125	-8.9375
18	12	13	16	01	23	-0.0928323472251	0.649460228023	0.0061644096448	-0.89892578125	-0.13818359375	0.30908203125	36.25	9.25	-5.6875
18	12	13	16	01	23	-0.0973496054749	0.649953572854	0.00140378741437	-0.96142578125	-0.13134765625	0.2939453125	35.75	17.9375	-2.1875
18	12	13	16	01	23	-0.101438183365	0.651657932484	-0.00329582545229	-1.04345703125	-0.1513671875	0.27587890625	33.6875	25.625	-0.0625
18	12	13	16	01	23	-0.105347926514	0.654121511267	-0.00830087949354	-1.1083984375	-0.18017578125	0.25244140625	34.375	29.8125	3.0625
18	12	13	16	01	23	-0.108702241733	0.657035166904	-0.0145261839037	-1.15771484375	-0.2021484375	0.21728515625	37.75	31.8125	11.0
18	12	13	16	01	23	-0.111145710583	0.659794141352	-0.0217286507235	-1.22265625	-0.19775390625	0.201171875	38.6875	30.125	18.3125
18	12	13	16	01	23	-0.11254940757	0.66235692568	-0.0290528839498	-1.3388671875	-0.181640625	0.2138671875	35.25	29.1875	22.3125
18	12	13	16	01	23	-0.112916303111	0.665229614922	-0.0368656470697	-1.470703125	-0.13134765625	0.21044921875	32.5625	31.5625	24.9375
18	12	13	16	01	23	-0.112851780193	0.668138689977	-0.0449209898441	-1.58251953125	-0.08203125	0.19091796875	31.9375	31.3125	24.25
18	12	13	16	01	23	-0.113398076254	0.67025709011	-0.0524878070929	-1.5361328125	-0.10595703125	0.1298828125	33.3125	21.875	23.75
18	12	13	16	01	23	-0.113342831952	0.671023745007	-0.0588992099265	-1.38330078125	-0.09326171875	0.0693359375	26.625	7.75	23.8125
18	12	13	16	01	23	-0.111018678293	0.670323333532	-0.0624975956967	-1.2275390625	-0.0419921875	0.017578125	6.8125	-9.4375	22.25
18	12	13	16	01	23	-0.105286463299	0.66809601581	-0.0615239159453	-1.14697265625	0.0078125	0.01220703125	-25.8125	-26.6875	18.375
18	12	13	16	01	23	-0.0963120998931	0.664663350973	-0.0556022325745	-1.1181640625	0.0166015625	0.01708984375	-59.4375	-40.625	14.3125
18	12	13	16	01	23	-0.0854491840528	0.66058322786	-0.0461425593885	-1.083984375	-0.00537109375	0.05859375	-81.0	-46.0625	11.375
18	12	13	16	01	23	-0.0742162831732	0.655739923037	-0.0347888827374	-1.07177734375	-0.03173828125	0.09912109375	-90.25	-49.5625	8.0625
18	12	13	16	01	23	-0.0640262257099	0.649844828535	-0.0227662365965	-1.033203125	-0.06005859375	0.12939453125	-88.375	-55.125	3.125
18	12	13	16	01	23	-0.0561513064364	0.642627288553	-0.0120237036608	-0.98291015625	-0.083984375	0.1728515625	-74.0	-60.3125	-0.25
18	12	13	16	01	23	-0.0510857652219	0.634269142397	-0.00378413075718	-0.9228515625	-0.0947265625	0.2177734375	-52.25	-63.875	-2.75
18	12	13	16	01	23	-0.0482784051895	0.625483054844	0.00158690080269	-0.85693359375	-0.06884765625	0.22705078125	-31.5	-64.625	-4.0
18	12	13	16	01	23	-0.0461421379954	0.616632301809	0.00512690422171	-0.8017578125	-0.013671875	0.22509765625	-21.8125	-64.1875	-3.875
18	12	13	16	01	23	-0.0435178898614	0.607968724979	0.00854488720982	-0.75439453125	0.03369140625	0.23388671875	-23.625	-62.3125	-4.4375
18	12	13	16	01	23	-0.0401610524712	0.599913350667	0.0131225323424	-0.71484375	0.03466796875	0.2255859375	-32.0	-58.25	-5.6875
18	12	13	16	01	23	-0.0365592644559	0.592455392443	0.0190425551089	-0.68994140625	0.0126953125	0.23095703125	-38.875	-53.875	-7.4375
18	12	13	16	01	23	-0.0329587839356	0.585811867062	0.0252684010173	-0.67919921875	0.0009765625	0.22998046875	-40.3125	-48.625	-8.1875
18	12	13	16	01	23	-0.0294190252069	0.580018665024	0.0310669789011	-0.68701171875	-0.00634765625	0.2333984375	-38.3125	-42.5625	-7.0
18	12	13	16	01	23	-0.0260003222415	0.574997736706	0.0363150040696	-0.69482421875	-0.013671875	0.23779296875	-35.375	-36.875	-5.1875
18	12	13	16	01	23	-0.0227662339674	0.571047949059	0.0408327359898	-0.728515625	-0.01416015625	0.23193359375	-31.9375	-31.25	-3.8125
18	12	13	16	01	23	-0.0197141234338	0.56798647887	0.0447382429628	-0.765625	-0.0126953125	0.224609375	-28.875	-26.0625	-3.5625
18	12	13	16	01	23	-0.0166017742326	0.565803114471	0.0484625321349	-0.81005859375	-0.00244140625	0.234375	-28.5625	-21.0625	-3.5
18	12	13	16	01	23	-0.013183110974	0.564798652561	0.0524272792901	-0.87158203125	0.001953125	0.2265625	-31.0625	-14.8125	-3.1875
18	12	13	16	01	23	-0.00970455257083	0.565122341216	0.0567624773011	-0.9765625	-0.0029296875	0.22509765625	-33.625	-7.875	-4.625
18	12	13	16	01	23	-0.0066528043356	0.56670906657	0.0615231813788	-1.07763671875	-0.0234375	0.23046875	-34.125	-0.75	-7.0625
18	12	13	16	01	23	-0.00421135359117	0.569509280568	0.0659778729283	-1.14990234375	-0.0458984375	0.22998046875	-30.75	6.75	-8.25
18	12	13	16	01	23	-0.00292963584025	0.573537249809	0.0696398852859	-1.23046875	-0.0869140625	0.22509765625	-22.375	14.375	-8.8125
18	12	13	16	01	23	-0.0030517061943	0.578481426192	0.0715319931944	-1.28857421875	-0.10888671875	0.2294921875	-9.5625	21.0	-8.75
18	12	13	16	01	23	-0.00457774958837	0.584548104105	0.071534966901	-1.34716796875	-0.11328125	0.2216796875	3.5625	28.9375	-9.0
18	12	13	16	01	23	-0.00756823167199	0.591603787069	0.0700061429659	-1.384765625	-0.12841796875	0.2080078125	15.5	36.1875	-9.25
18	12	13	16	01	23	-0.0118406821167	0.599236170218	0.0671989227347	-1.40185546875	-0.14794921875	0.18359375	26.0	40.875	-9.5
18	12	13	16	01	23	-0.0160526854272	0.60725538903	0.0639055575751	-1.4345703125	-0.130859375	0.18359375	27.5	45.3125	-8.875
18	12	13	16	01	24	-0.0191644026048	0.615946341044	0.0609720961853	-1.43212890625	-0.1025390625	0.19580078125	20.9375	53.4375	-6.25
18	12	13	16	01	24	-0.0209343826943	0.625223954288	0.0590190905698	-1.36181640625	-0.1005859375	0.18359375	11.4375	60.3125	-3.3125
18	12	13	16	01	24	-0.0216681012546	0.634112405447	0.0585954287447	-1.21484375	-0.14501953125	0.14794921875	1.5625	59.8125	0.125
18	12	13	16	01	24	-0.0213012489787	0.641906118938	0.0596923252184	-1.07177734375	-0.208984375	0.09521484375	-7.5	51.5625	4.8125
18	12	13	16	01	24	-0.020691262562	0.647715865217	0.0615854983042	-1.01416015625	-0.27978515625	0.06689453125	-10.625	37.375	7.75
18	12	13	16	01	24	-0.0215454283358	0.651062561071	0.0629272991905	-1.001953125	-0.3203125	0.064453125	-1.625	20.3125	5.625
18	12	13	16	01	24	-0.0247798638517	0.652271933456	0.0625600011035	-0.98828125	-0.2958984375	0.1015625	15.375	7.5625	-0.75
18	12	13	16	01	24	-0.0292971363923	0.652410606035	0.0603643081083	-0.96044921875	-0.22314453125	0.13232421875	27.375	2.4375	-4.6875
18	12	13	16	01	24	-0.0343639161957	0.652304036204	0.0578021823042	-0.90625	-0.20166015625	0.158203125	30.4375	3.3125	-6.8125
18	12	13	16	01	24	-0.0399167993963	0.652096459862	0.0552975844847	-0.8251953125	-0.21142578125	0.19091796875	32.125	5.8125	-8.125
18	12	13	16	01	24	-0.04650931907	0.651740825499	0.0524297966944	-0.74072265625	-0.24462890625	0.20068359375	37.5	7.0	-8.5625
18	12	13	16	01	24	-0.0536503753222	0.650884644409	0.0491337339412	-0.6728515625	-0.232421875	0.20849609375	41.5625	4.8125	-9.375
18	12	13	16	01	24	-0.0601200760535	0.649540963819	0.0462039569264	-0.6162109375	-0.189453125	0.208984375	37.4375	1.4375	-10.625
18	12	13	16	01	24	-0.0654898965828	0.648002080168	0.0447382052146	-0.5703125	-0.1748046875	0.20458984375	26.625	-0.6875	-12.1875
18	12	13	16	01	24	-0.0698240228839	0.646299456571	0.0451048539433	-0.537109375	-0.17041015625	0.1953125	15.3125	-3.25	-14.5
18	12	13	16	01	24	-0.0739116629542	0.644270449335	0.0463244856996	-0.51171875	-0.1787109375	0.20263671875	10.4375	-5.0	-16.25
18	12	13	16	01	24	-0.0784275331904	0.642007176365	0.047361685413	-0.517578125	-0.18994140625	0.20703125	13.4375	-6.5	-17.0
18	12	13	16	01	24	-0.083739527958	0.639643041545	0.0473628817022	-0.5537109375	-0.17529296875	0.22412109375	20.0625	-5.625	-18.25
18	12	13	16	01	24	-0.0900273997892	0.637577097083	0.0457766439606	-0.6201171875	-0.15625	0.2529296875	30.25	-1.8125	-19.0625
18	12	13	16	01	24	-0.0974081661064	0.636021615911	0.0426008145001	-0.68505859375	-0.15576171875	0.26318359375	40.375	3.5	-19.25
18	12	13	16	01	24	-0.105650268181	0.635122293871	0.0379632968276	-0.7470703125	-0.16259765625	0.2705078125	49.375	9.1875	-18.625
18	12	13	16	01	24	-0.114745370063	0.634761621624	0.0316770463099	-0.779296875	-0.1865234375	0.265625	59.5	14.3125	-15.6875
18	12	13	16	01	24	-0.12414579085	0.635011213375	0.023925835798	-0.81396484375	-0.19873046875	0.2470703125	66.8125	18.5	-11.3125
18	12	13	16	01	24	-0.132503178183	0.635661262448	0.0155634778612	-0.87939453125	-0.18896484375	0.251953125	65.375	21.5	-6.4375
18	12	13	16	01	24	-0.138485573574	0.637436461176	0.00762921846485	-0.94775390625	-0.1689453125	0.2548828125	53.9375	28.0	0.0625
18	12	13	16	01	24	-0.141964265565	0.640548137191	0.000854471073908	-1.033203125	-0.181640625	0.25390625	38.375	35.0625	6.375
18	12	13	16	01	24	-0.143373283974	0.644477865252	-0.00463872693997	-1.12451171875	-0.22412109375	0.2490234375	25.0625	38.5	12.3125
18	12	13	16	01	24	-0.143551132128	0.648787642229	-0.0103757195841	-1.19482421875	-0.2607421875	0.24072265625	22.0	40.4375	20.5
18	12	13	16	01	24	-0.143368737762	0.653002181915	-0.0175777762774	-1.25732421875	-0.26904296875	0.21875	27.0	40.1875	28.5
18	12	13	16	01	24	-0.142945525045	0.656804780108	-0.0258791215283	-1.3408203125	-0.24072265625	0.20166015625	31.3125	37.125	32.0
18	12	13	16	01	24	-0.142698248369	0.660025174447	-0.0347895644012	-1.43408203125	-0.2001953125	0.18212890625	34.8125	33.0	31.4375
18	12	13	16	01	24	-0.142514607869	0.662708185115	-0.0440055812735	-1.509765625	-0.15771484375	0.18310546875	36.125	29.8125	30.5625
18	12	13	16	01	24	-0.141901799156	0.665199014623	-0.0533428698762	-1.517578125	-0.115234375	0.17333984375	35.0	29.3125	31.0
18	12	13	16	01	24	-0.141420441359	0.667245690519	-0.0628060570384	-1.390625	-0.0849609375	0.130859375	36.5625	25.0625	31.75
18	12	13	16	01	24	-0.140135121043	0.668205272292	-0.0701285949821	-1.21923828125	-0.0625	0.0791015625	25.3125	12.5625	29.1875
18	12	13	16	01	24	-0.136353856203	0.667792095219	-0.073670145227	-1.12548828125	-0.013671875	0.07373046875	0.0	-2.875	24.875
18	12	13	16	01	24	-0.12945528525	0.666380388665	-0.0729978883351	-1.10205078125	0.0224609375	0.10009765625	-29.6875	-14.25	21.9375
18	12	13	16	01	24	-0.1192606121	0.664722275527	-0.0687243854782	-1.12890625	0.05224609375	0.1201171875	-58.125	-20.1875	21.4375
18	12	13	16	01	24	-0.107784877159	0.662394831145	-0.0614605726493	-1.14599609375	0.02490234375	0.11767578125	-75.25	-28.5	18.75
18	12	13	16	01	24	-0.0972879183514	0.658738082037	-0.0527942593312	-1.11279296875	-0.0302734375	0.1259765625	-76.375	-38.6875	14.25
18	12	13	16	01	24	-0.0888070120146	0.653631815577	-0.0447392026163	-1.04736328125	-0.07666015625	0.1513671875	-64.9375	-46.375	12.5
18	12	13	16	01	24	-0.0821508758874	0.64750270601	-0.0387561710167	-0.96533203125	-0.08349609375	0.166015625	-49.0	-50.8125	13.1875
18	12	13	16	01	24	-0.0767802732966	0.640547669514	-0.0346060532267	-0.8828125	-0.0556640625	0.1796875	-36.125	-54.0625	13.6875
18	12	13	16	01	24	-0.0717747697111	0.633156004237	-0.0313099122974	-0.81494140625	-0.01513671875	0.18115234375	-31.3125	-56.5	12.875
18	12	13	16	01	24	-0.0664665454339	0.62542028564	-0.0274044801651	-0.77197265625	0.0068359375	0.18603515625	-35.0	-58.875	10.625
18	12	13	16	01	24	-0.0610345856638	0.617364833989	-0.0222776237673	-0.73876953125	0.01123046875	0.19384765625	-41.125	-61.3125	6.9375
18	12	13	16	01	24	-0.0554195738979	0.609310139012	-0.016174214849	-0.7177734375	0.00927734375	0.197265625	-46.1875	-61.375	4.25
18	12	13	16	01	24	-0.0500489421374	0.601502835078	-0.00964357665574	-0.705078125	-0.01513671875	0.19140625	-46.75	-60.0	2.9375
18	12	13	16	01	24	-0.0452274858972	0.593938819522	-0.00347903737671	-0.69482421875	-0.03076171875	0.197265625	-42.9375	-57.9375	2.5
18	12	13	16	01	25	-0.0410158773435	0.586673531288	0.00195313701635	-0.68603515625	-0.0439453125	0.205078125	-37.5625	-55.0625	3.0
18	12	13	16	01	25	-0.0369880475963	0.579845630635	0.00665296565676	-0.6943359375	-0.0341796875	0.21826171875	-33.75	-51.25	3.4375
18	12	13	16	01	25	-0.0332026187432	0.573660686704	0.0109251263879	-0.732421875	-0.01904296875	0.24365234375	-31.4375	-46.1875	2.5625
18	12	13	16	01	25	-0.0294189719439	0.568665065563	0.015319838087	-0.80029296875	-0.0009765625	0.2607421875	-33.0	-39.0625	0.375
18	12	13	16	01	25	-0.0256346867926	0.565244843778	0.0202025745913	-0.8701171875	0.01953125	0.27734375	-36.125	-29.1875	-3.125
18	12	13	16	01	25	-0.0219721751658	0.563403191544	0.0259393734597	-0.91162109375	0.0087890625	0.27880859375	-40.125	-18.875	-6.0625
18	12	13	16	01	25	-0.018737877711	0.56317393368	0.0320436019488	-0.94873046875	-0.01806640625	0.2783203125	-40.25	-8.5	-8.375
18	12	13	16	01	25	-0.0164797999794	0.564402631145	0.0375983584714	-0.99072265625	-0.0625	0.267578125	-33.9375	0.5	-8.5
18	12	13	16	01	25	-0.0155642861805	0.567089344716	0.0414437267315	-1.04296875	-0.08837890625	0.2578125	-21.25	9.6875	-8.1875
18	12	13	16	01	25	-0.0160518779223	0.571336993271	0.0428456969636	-1.10107421875	-0.09765625	0.25634765625	-5.375	20.0625	-6.9375
18	12	13	16	01	25	-0.0180666981485	0.576852581761	0.0420539021091	-1.13818359375	-0.0966796875	0.24072265625	9.3125	28.5625	-6.6875
18	12	13	16	01	25	-0.0203848652565	0.583470993571	0.0402814702674	-1.18994140625	-0.0849609375	0.248046875	14.375	37.0	-5.625
18	12	13	16	01	25	-0.0225824947317	0.591295159354	0.038512308583	-1.26025390625	-0.076171875	0.24951171875	13.4375	46.375	-6.0
18	12	13	16	01	25	-0.0247190199014	0.600397527827	0.0371700817776	-1.34130859375	-0.0771484375	0.24853515625	10.5	56.125	-7.625
18	12	13	16	01	25	-0.0267325702385	0.610698853439	0.0366199592308	-1.43115234375	-0.09033203125	0.2412109375	6.3125	65.5625	-9.375
18	12	13	16	01	25	-0.0287479071878	0.621711640372	0.0364384301298	-1.47216796875	-0.11376953125	0.23583984375	4.5	73.4375	-9.5
18	12	13	16	01	25	-0.0302124964922	0.633363790101	0.0364991371765	-1.513671875	-0.1181640625	0.22216796875	1.1875	80.875	-8.0625
18	12	13	16	01	25	-0.0305180107126	0.645455926572	0.0372319730694	-1.5361328125	-0.109375	0.2060546875	-6.4375	86.5	-6.1875
18	12	13	16	01	25	-0.0300301675803	0.657306655839	0.038575337217	-1.45458984375	-0.109375	0.15478515625	-12.1875	86.5	-4.375
18	12	13	16	01	25	-0.0299679268588	0.667900251763	0.0404658564305	-1.2265625	-0.16455078125	0.0537109375	-11.3125	75.75	-3.5
18	12	13	16	01	25	-0.0302123556356	0.675902275371	0.0431517887563	-1.001953125	-0.240234375	-0.03076171875	-11.875	54.25	-1.3125
18	12	13	16	01	25	-0.0300899765276	0.680594986326	0.0462030674064	-0.90234375	-0.2724609375	-0.03857421875	-13.6875	29.4375	0.875
18	12	13	16	01	25	-0.0303342220149	0.682428443357	0.0487666869012	-0.9287109375	-0.2509765625	0.00146484375	-9.4375	10.875	-0.625
18	12	13	16	01	25	-0.0318597737405	0.6824827394	0.0498648182874	-0.94677734375	-0.13916015625	0.0517578125	1.4375	0.4375	-8.5625
18	12	13	16	01	25	-0.0347294306596	0.68158796516	0.0500494431298	-0.92431640625	-0.06298828125	0.0830078125	10.5625	-4.3125	-16.4375
18	12	13	16	01	25	-0.0388799854074	0.679819901833	0.0505378774212	-0.8896484375	-0.08349609375	0.10400390625	14.1875	-8.8125	-21.5625
18	12	13	16	01	25	-0.0448614787558	0.677072631073	0.05065990118	-0.83837890625	-0.14599609375	0.15234375	23.375	-12.25	-23.625
18	12	13	16	01	25	-0.0533453182748	0.673713527594	0.0482793441137	-0.80029296875	-0.17578125	0.18896484375	43.625	-13.375	-22.75
18	12	13	16	01	25	-0.064085508155	0.669968212398	0.0426626382861	-0.76123046875	-0.17236328125	0.2041015625	66.25	-13.5	-19.75
18	12	13	16	01	25	-0.0756827888146	0.665947507061	0.0349727725732	-0.705078125	-0.150390625	0.19677734375	78.125	-14.8125	-16.625
18	12	13	16	01	25	-0.0865474817539	0.661618266722	0.0275267378498	-0.65771484375	-0.12939453125	0.1875	74.875	-17.1875	-15.375
18	12	13	16	01	25	-0.0958851406578	0.657097023757	0.0217282686659	-0.6220703125	-0.1201171875	0.18896484375	61.625	-19.3125	-15.6875
18	12	13	16	01	25	-0.103514524249	0.652703020234	0.0178220761089	-0.59228515625	-0.1259765625	0.19189453125	47.375	-19.75	-15.0
18	12	13	16	01	25	-0.109312822185	0.64885796351	0.0153196640806	-0.576171875	-0.12646484375	0.1982421875	34.125	-17.0625	-12.375
18	12	13	16	01	25	-0.113339840085	0.645860090347	0.0139767492619	-0.58935546875	-0.1298828125	0.2001953125	22.0625	-12.5	-9.625
18	12	13	16	01	25	-0.116028015949	0.64379984862	0.0134277556595	-0.64111328125	-0.12548828125	0.212890625	12.75	-6.6875	-8.0
18	12	13	16	01	25	-0.11822718928	0.642528457175	0.0131838269925	-0.69921875	-0.1357421875	0.236328125	8.75	-0.375	-7.625
18	12	13	16	01	25	-0.120726904252	0.642025432674	0.0125121412395	-0.7626953125	-0.16162109375	0.248046875	11.125	5.9375	-6.6875
18	12	13	16	01	25	-0.123775680057	0.642437282188	0.0104977401232	-0.83935546875	-0.185546875	0.25537109375	19.125	13.5	-4.0625
18	12	13	16	01	25	-0.127807479589	0.643615029735	0.00622557923499	-0.92138671875	-0.19580078125	0.26025390625	31.3125	21.0625	-0.75
18	12	13	16	01	25	-0.132261370672	0.645682067533	6.10343196458e-05	-0.990234375	-0.1923828125	0.24755859375	40.6875	27.9375	3.0625
18	12	13	16	01	25	-0.136409259212	0.648478021979	-0.00714088739497	-1.0244140625	-0.18798828125	0.2275390625	43.75	33.5625	7.0625
18	12	13	16	01	25	-0.139766456793	0.651714509013	-0.0142207792283	-1.05517578125	-0.19775390625	0.20263671875	40.0625	35.25	10.5625
18	12	13	16	01	25	-0.141846161528	0.655031413736	-0.0205078787752	-1.07470703125	-0.20751953125	0.1875	32.4375	34.125	14.0
18	12	13	16	01	25	-0.14238864857	0.658417805734	-0.0256946511136	-1.1103515625	-0.2216796875	0.1796875	21.5625	32.875	17.8125
18	12	13	16	01	25	-0.141353607094	0.661847372768	-0.0300895199903	-1.14990234375	-0.22216796875	0.18310546875	12.625	32.4375	21.8125
18	12	13	16	01	25	-0.139523211213	0.665146087403	-0.0340568468316	-1.1865234375	-0.24072265625	0.189453125	7.6875	31.6875	24.9375
18	12	13	16	01	25	-0.137813521877	0.667950036943	-0.0383900377593	-1.2412109375	-0.24658203125	0.20654296875	9.6875	30.125	27.375
18	12	13	16	01	25	-0.136652863987	0.670142227143	-0.0435165216715	-1.35546875	-0.2392578125	0.2333984375	15.3125	28.5	27.4375
18	12	13	16	01	25	-0.135802201496	0.672236156078	-0.049804312998	-1.51220703125	-0.1962890625	0.27099609375	21.0625	31.375	27.3125
18	12	13	16	01	25	-0.13561945838	0.674679339753	-0.057494837891	-1.5732421875	-0.13671875	0.25341796875	28.9375	35.8125	26.125
18	12	13	16	01	26	-0.136170677185	0.677130207391	-0.065064070766	-1.47509765625	-0.12841796875	0.1806640625	32.25	32.375	23.125
18	12	13	16	01	26	-0.136228860517	0.678702925157	-0.0707389109944	-1.25244140625	-0.123046875	0.11767578125	23.0625	21.0625	20.75
18	12	13	16	01	26	-0.133787283735	0.679678463354	-0.0734243167578	-1.06787109375	-0.09228515625	0.06787109375	1.125	9.625	20.5
18	12	13	16	01	26	-0.12798850582	0.679858829915	-0.0719592028431	-1.0048828125	-0.05224609375	0.0751953125	-29.1875	-1.25	17.375
18	12	13	16	01	26	-0.118895691549	0.67931675921	-0.0667720156852	-1.03759765625	0.01708984375	0.11083984375	-58.125	-9.625	13.125
18	12	13	16	01	26	-0.107726955469	0.678222056189	-0.0586547332611	-1.08642578125	0.04541015625	0.1162109375	-78.4375	-16.6875	9.6875
18	12	13	16	01	26	-0.0964995153239	0.676045940372	-0.0484633872025	-1.08984375	0.00537109375	0.10888671875	-86.4375	-27.3125	5.1875
18	12	13	16	01	26	-0.0865465811107	0.672231342986	-0.0375971043471	-1.0400390625	-0.041015625	0.10888671875	-83.5625	-39.25	2.0
18	12	13	16	01	26	-0.0784286755048	0.666735292774	-0.0274652949239	-0.9697265625	-0.07373046875	0.10986328125	-72.4375	-50.6875	0.0
18	12	13	16	01	26	-0.0719615849393	0.659861488362	-0.0189822331774	-0.88427734375	-0.0654296875	0.09814453125	-58.625	-60.0	-0.3125
18	12	13	16	01	26	-0.0668319785234	0.651718599701	-0.0120236527572	-0.8125	-0.04638671875	0.09716796875	-46.875	-68.3125	-0.875
18	12	13	16	01	26	-0.0622551066886	0.642509321677	-0.00567620090396	-0.77197265625	-0.01806640625	0.087890625	-41.625	-76.3125	-2.9375
18	12	13	16	01	26	-0.058289687537	0.632214223568	0.000427254254198	-0.74609375	-0.0048828125	0.09326171875	-38.625	-84.125	-5.375
18	12	13	16	01	26	-0.0547499697244	0.620987950921	0.00622574906565	-0.734375	0.0068359375	0.1171875	-35.4375	-89.0625	-6.8125
18	12	13	16	01	26	-0.0515136022142	0.60943521103	0.0115966640056	-0.7275390625	0.00537109375	0.1337890625	-32.375	-90.25	-6.6875
18	12	13	16	01	26	-0.0487058223499	0.59789753852	0.0164183787119	-0.73876953125	0.00439453125	0.1552734375	-28.5625	-89.4375	-6.9375
18	12	13	16	01	26	-0.0465093235749	0.586493556734	0.0204470123328	-0.7578125	0.0048828125	0.1904296875	-23.5625	-86.1875	-7.375
18	12	13	16	01	26	-0.0446161420096	0.57579847294	0.0236813448697	-0.77734375	0.015625	0.21533203125	-19.0625	-80.5625	-7.375
18	12	13	16	01	26	-0.0430904848175	0.566157701369	0.0263669822113	-0.80419921875	0.0166015625	0.2431640625	-16.125	-72.75	-7.75
18	12	13	16	01	26	-0.0418690217946	0.557907767091	0.0287468065091	-0.84130859375	0.017578125	0.26806640625	-14.5625	-62.4375	-8.5
18	12	13	16	01	26	-0.0407714450367	0.551818315235	0.030822724167	-0.89013671875	0.017578125	0.2685546875	-13.6875	-49.6875	-8.6875
18	12	13	16	01	26	-0.0396120473483	0.54797682757	0.0329591765302	-0.93408203125	0.00244140625	0.267578125	-14.4375	-35.875	-8.0625
18	12	13	16	01	26	-0.0382696546512	0.546334415922	0.0352178480602	-0.96826171875	-0.0166015625	0.2666015625	-15.8125	-22.1875	-6.6875
18	12	13	16	01	26	-0.0367421512686	0.546798892384	0.0376576533766	-0.99462890625	-0.04833984375	0.251953125	-17.0625	-9.1875	-4.375
18	12	13	16	01	26	-0.0349737012528	0.549386186696	0.0400396998636	-1.02490234375	-0.06103515625	0.2333984375	-18.1875	3.5	-2.375
18	12	13	16	01	26	-0.0328366071483	0.55388886593	0.0423580025295	-1.06396484375	-0.0732421875	0.23974609375	-19.0	16.5	0.125
18	12	13	16	01	26	-0.0305178068086	0.560184861779	0.0445559979406	-1.11767578125	-0.07275390625	0.2333984375	-20.125	28.6875	1.125
18	12	13	16	01	26	-0.0281375435595	0.56812202918	0.0470586682959	-1.169921875	-0.0791015625	0.24365234375	-22.3125	41.3125	0.4375
18	12	13	16	01	26	-0.0259392584738	0.577804611697	0.0496813091709	-1.23876953125	-0.08056640625	0.25830078125	-23.0	55.375	-1.1875
18	12	13	16	01	26	-0.024597094618	0.589231641295	0.0521238679994	-1.31787109375	-0.10107421875	0.24365234375	-20.0625	68.4375	-3.625
18	12	13	16	01	26	-0.0241698889655	0.601622715991	0.054260180026	-1.3671875	-0.1318359375	0.2353515625	-15.3125	78.3125	-5.375
18	12	13	16	01	26	-0.0241080504722	0.6148468366	0.0559672969191	-1.42578125	-0.140625	0.248046875	-12.6875	88.3125	-4.9375
18	12	13	16	01	26	-0.0242918524196	0.629085735902	0.0565182294989	-1.47119140625	-0.14306640625	0.22705078125	-7.625	99.0	-2.5
18	12	13	16	01	26	-0.0253907314588	0.643130137937	0.0556642958905	-1.40966796875	-0.16943359375	0.16455078125	2.4375	102.9375	1.125
18	12	13	16	01	26	-0.0276491516121	0.656560538392	0.0538944831645	-1.2431640625	-0.2275390625	0.05859375	11.9375	94.5625	4.625
18	12	13	16	01	26	-0.0297239946398	0.667538664015	0.0525510459648	-1.0654296875	-0.27001953125	-0.0166015625	11.1875	75.625	8.0
18	12	13	16	01	26	-0.0299679664341	0.675652522251	0.0525507517306	-0.974609375	-0.2763671875	-0.03759765625	-0.625	55.0	11.1875
18	12	13	16	01	26	-0.0283813877804	0.681275377215	0.053833083919	-0.97705078125	-0.2470703125	0.00927734375	-13.1875	39.0	11.75
18	12	13	16	01	26	-0.0257564604867	0.684926539294	0.0559684224321	-1.0	-0.1767578125	0.0517578125	-20.6875	27.625	7.125
18	12	13	16	01	26	-0.0227662759493	0.687199734352	0.0591434889943	-0.99658203125	-0.119140625	0.076171875	-26.25	19.0625	0.5625
18	12	13	16	01	26	-0.0202030255267	0.688184630856	0.0632946751395	-0.958984375	-0.138671875	0.0966796875	-28.125	11.0625	-4.25
18	12	13	16	01	26	-0.0200804262962	0.687739341962	0.0668940645004	-0.90869140625	-0.21826171875	0.12744140625	-15.8125	3.25	-6.3125
18	12	13	16	01	26	-0.0236817349779	0.686037889566	0.0672610101692	-0.83447265625	-0.267578125	0.15185546875	12.9375	-3.75	-6.0625
18	12	13	16	01	26	-0.0308837590917	0.683471016421	0.063415465803	-0.7666015625	-0.251953125	0.16650390625	44.75	-8.9375	-5.125
18	12	13	16	01	26	-0.0399174432095	0.6802445024	0.0568854083658	-0.71484375	-0.201171875	0.15625	63.6875	-13.6875	-5.5625
18	12	13	16	01	26	-0.0485231094651	0.676454870694	0.0503541701997	-0.6767578125	-0.14794921875	0.1669921875	62.375	-17.625	-7.375
18	12	13	16	01	26	-0.0556032896851	0.672183347204	0.0456545122772	-0.6650390625	-0.1220703125	0.17724609375	48.1875	-20.9375	-9.875
18	12	13	16	01	26	-0.0609135355823	0.667851609561	0.0430911383979	-0.65869140625	-0.11865234375	0.19287109375	32.5	-21.6875	-11.125
18	12	13	16	01	26	-0.0653659547054	0.663668899595	0.0418683892884	-0.6669921875	-0.14697265625	0.21044921875	23.375	-20.4375	-10.875
18	12	13	16	01	26	-0.0694592239753	0.65967951909	0.0410163431559	-0.67626953125	-0.1640625	0.21875	20.75	-19.0	-9.875
18	12	13	16	01	27	-0.0733034595506	0.656007979392	0.0399171211874	-0.6923828125	-0.1591796875	0.2216796875	20.3125	-16.9375	-8.625
18	12	13	16	01	27	-0.0767814007896	0.652825010212	0.0386348383942	-0.72314453125	-0.150390625	0.23193359375	19.5	-12.9375	-7.8125
18	12	13	16	01	27	-0.0800748775993	0.650486315132	0.0372909681503	-0.7578125	-0.1533203125	0.2294921875	18.4375	-7.6875	-6.8125
18	12	13	16	01	27	-0.0831918336139	0.648932923685	0.0357059594014	-0.802734375	-0.1650390625	0.23046875	18.6875	-2.3125	-5.3125
18	12	13	16	01	27	-0.0859981531182	0.648190479854	0.03369125658	-0.841796875	-0.17822265625	0.2275390625	19.0	2.8125	-2.0
18	12	13	16	01	27	-0.0882572972227	0.648074676287	0.0311891278567	-0.8876953125	-0.18310546875	0.23681640625	18.4375	7.875	2.0
18	12	13	16	01	27	-0.089903215923	0.648853420555	0.0283198181862	-0.9365234375	-0.18115234375	0.23193359375	17.125	13.4375	5.0
18	12	13	16	01	27	-0.091188415095	0.650465153727	0.0253301153042	-1.0068359375	-0.18505859375	0.21923828125	16.1875	18.4375	6.625
18	12	13	16	01	27	-0.0922872023783	0.652602359675	0.02240039899	-1.06396484375	-0.20458984375	0.19482421875	15.375	20.25	8.0625
18	12	13	16	01	27	-0.0931392249608	0.654843214026	0.0194090914401	-1.11865234375	-0.224609375	0.169921875	15.25	19.4375	10.1875
18	12	13	16	01	27	-0.0946049734332	0.656741622027	0.0158692213501	-1.15771484375	-0.25390625	0.1435546875	20.4375	15.5	11.8125
18	12	13	16	01	27	-0.096921437573	0.658125857273	0.0109250235048	-1.2275390625	-0.27099609375	0.13134765625	30.0625	11.4375	14.125
18	12	13	16	01	27	-0.100159190272	0.658938828868	0.00408937583681	-1.3173828125	-0.26318359375	0.12744140625	42.25	8.25	16.5
18	12	13	16	01	27	-0.104614597454	0.659487004369	-0.00451661622613	-1.43505859375	-0.2392578125	0.11474609375	54.3125	6.25	16.4375
18	12	13	16	01	27	-0.110229621128	0.659668740392	-0.0145263841796	-1.55126953125	-0.22314453125	0.1123046875	65.0625	4.0625	14.9375
18	12	13	16	01	27	-0.116269710829	0.659472034389	-0.0258173688613	-1.5966796875	-0.18359375	0.15673828125	71.3125	6.25	16.0625
18	12	13	16	01	27	-0.121889193842	0.659678721606	-0.0382086306185	-1.49609375	-0.14208984375	0.14404296875	74.25	11.0	20.375
18	12	13	16	01	27	-0.12585302262	0.65959923155	-0.0491937615091	-1.2958984375	-0.1142578125	0.12353515625	62.1875	8.5	23.125
18	12	13	16	01	27	-0.125974459623	0.659229718209	-0.0561514064209	-1.0966796875	-0.06787109375	0.115234375	30.1875	2.625	24.25
18	12	13	16	01	27	-0.121701820883	0.658801130697	-0.057738175805	-0.978515625	-0.0244140625	0.10888671875	-9.9375	-4.125	21.3125
18	12	13	16	01	27	-0.11340468932	0.658394178522	-0.0537726217927	-0.951171875	0.00439453125	0.1279296875	-49.1875	-9.0	16.625
18	12	13	16	01	27	-0.102112843682	0.658087675179	-0.0458378634817	-0.96875	0.01025390625	0.15185546875	-77.625	-10.625	14.375
18	12	13	16	01	27	-0.0903316806055	0.65759022084	-0.0361326722422	-0.95947265625	-0.0244140625	0.15625	-86.75	-12.0625	12.5
18	12	13	16	01	27	-0.0803811235605	0.656293258653	-0.0267326743504	-0.90087890625	-0.08251953125	0.15771484375	-77.8125	-16.25	10.4375
18	12	13	16	01	27	-0.0727510728029	0.653966229097	-0.0189811943303	-0.8154296875	-0.1162109375	0.15478515625	-60.8125	-21.25	9.6875
18	12	13	16	01	27	-0.0670153812759	0.650744986487	-0.0135495579629	-0.75048828125	-0.09912109375	0.1533203125	-43.6875	-25.75	9.3125
18	12	13	16	01	27	-0.0621930553122	0.646954255456	-0.00964328041152	-0.71484375	-0.04736328125	0.14990234375	-34.0	-29.1875	8.0
18	12	13	16	01	27	-0.0570678699245	0.642761217299	-0.00579833972495	-0.6962890625	0.01318359375	0.14111328125	-35.0625	-32.9375	5.4375
18	12	13	16	01	27	-0.0514516184702	0.638170964086	-0.000610339483632	-0.6845703125	0.03515625	0.14697265625	-43.4375	-36.375	1.4375
18	12	13	16	01	27	-0.0454110262958	0.633312915115	0.00628674154364	-0.68310546875	0.02783203125	0.162109375	-52.0625	-37.625	-2.375
18	12	13	16	01	27	-0.0394280360991	0.628529281344	0.0140378456699	-0.7119140625	0.01220703125	0.1865234375	-55.6875	-36.1875	-5.3125
18	12	13	16	01	27	-0.0341182026662	0.624076247337	0.0214230574881	-0.7568359375	0.00244140625	0.21142578125	-52.125	-32.25	-6.8125
18	12	13	16	01	27	-0.0300288923131	0.620291936134	0.0274654502864	-0.80810546875	-0.009765625	0.22802734375	-41.8125	-27.0625	-7.125
18	12	13	16	01	27	-0.0275885545619	0.617080280135	0.0314948985707	-0.8515625	-0.01953125	0.23486328125	-26.625	-22.375	-7.3125
18	12	13	16	01	27	-0.0266116007007	0.614630318935	0.0332034650944	-0.896484375	-0.0146484375	0.22900390625	-11.625	-18.0	-6.25
18	12	13	16	01	27	-0.026490012304	0.612810422885	0.0332651076168	-0.927734375	-0.0029296875	0.2138671875	-1.25	-14.625	-5.0
18	12	13	16	01	27	-0.0262453486138	0.611699729784	0.0325320251422	-0.9453125	0.02392578125	0.205078125	1.25	-10.6875	-3.75
18	12	13	16	01	27	-0.0252072899359	0.611383591495	0.0322262689737	-0.97412109375	0.0380859375	0.1904296875	-4.1875	-6.875	-2.3125
18	12	13	16	01	27	-0.0228879023093	0.611747852922	0.0330806481377	-1.00537109375	0.03271484375	0.1728515625	-13.625	-4.1875	-0.75
18	12	13	16	01	27	-0.0197143303885	0.612364943614	0.0350951701962	-1.0166015625	0.00390625	0.1728515625	-21.3125	-2.5625	1.5625
18	12	13	16	01	27	-0.0156862836571	0.613168893462	0.0377813602481	-1.0205078125	-0.0224609375	0.1640625	-27.125	-1.4375	4.625
18	12	13	16	01	27	-0.0111082712935	0.614128712938	0.0407099832568	-1.04150390625	-0.04296875	0.16748046875	-29.875	-0.625	8.0
18	12	13	16	01	27	-0.00616452823	0.615171089407	0.0435179072078	-1.04150390625	-0.04638671875	0.17041015625	-30.5	0.5625	10.0
18	12	13	16	01	27	-0.00103756857649	0.616254700991	0.0465074856052	-1.05078125	-0.04736328125	0.1748046875	-31.9375	1.75	10.6875
18	12	13	16	01	27	0.00445554213977	0.617489312712	0.0501095903664	-1.0634765625	-0.0478515625	0.18701171875	-36.25	3.4375	9.9375
18	12	13	16	01	27	0.00994844884726	0.619001031957	0.0546249185172	-1.1162109375	-0.06494140625	0.1943359375	-40.125	6.3125	8.0625
18	12	13	16	01	27	0.0151980260669	0.620982800018	0.0598765605286	-1.205078125	-0.08935546875	0.212890625	-42.25	10.4375	5.1875
18	12	13	16	01	27	0.0197143492262	0.623534958808	0.0653686316448	-1.30126953125	-0.10546875	0.2373046875	-41.3125	16.0625	2.0
18	12	13	16	01	27	0.0226442347537	0.626836363668	0.0703130955156	-1.36572265625	-0.1318359375	0.24169921875	-32.75	22.5625	-1.6875
18	12	13	16	01	28	0.0231941167256	0.630818937787	0.0738549506262	-1.41943359375	-0.15966796875	0.22216796875	-18.0	26.875	-5.9375
18	12	13	16	01	28	0.0216671184188	0.635182257421	0.0761095680795	-1.49951171875	-0.17626953125	0.21533203125	-4.5	29.4375	-9.625
18	12	13	16	01	28	0.0182495630134	0.640199553338	0.0765993363942	-1.5673828125	-0.1669921875	0.1875	9.875	32.75	-13.0
18	12	13	16	01	28	0.0126954895241	0.645516813495	0.0748911809908	-1.5234375	-0.1796875	0.1123046875	27.625	32.0	-13.5625
18	12	13	16	01	28	0.00579825530125	0.649831833604	0.0719594000018	-1.3515625	-0.21533203125	0.0146484375	39.1875	21.125	-12.0625
18	12	13	16	01	28	-0.000793452381727	0.652034753383	0.0694576008004	-1.13623046875	-0.23681640625	-0.04296875	37.3125	4.0625	-10.25
18	12	13	16	01	28	-0.00585940237234	0.651858513923	0.0681155525785	-0.9951171875	-0.24365234375	-0.06298828125	27.8125	-14.0	-7.875
18	12	13	16	01	28	-0.00915526381961	0.649413380271	0.0681151628179	-0.96923828125	-0.22216796875	-0.0224609375	15.6875	-28.9375	-7.875
18	12	13	16	01	28	-0.0118407743496	0.645261167136	0.0690915286793	-0.990234375	-0.18505859375	0.04443359375	8.8125	-37.4375	-12.1875
18	12	13	16	01	28	-0.0149536666763	0.640383145989	0.0700075741946	-1.00390625	-0.15576171875	0.111328125	10.25	-39.4375	-17.1875
18	12	13	16	01	28	-0.0192257803217	0.635122127072	0.0702503909533	-0.96044921875	-0.1416015625	0.1669921875	17.0	-37.9375	-20.4375
18	12	13	16	01	28	-0.0245977813736	0.629715410499	0.0700090700632	-0.88818359375	-0.17138671875	0.19677734375	23.25	-36.0	-21.625
18	12	13	16	01	28	-0.0311274464331	0.624440989131	0.069029690031	-0.80126953125	-0.2080078125	0.22265625	31.0625	-32.375	-21.1875
18	12	13	16	01	28	-0.0387583616471	0.619706528824	0.066774248255	-0.72900390625	-0.2353515625	0.22802734375	40.6875	-26.625	-18.8125
18	12	13	16	01	28	-0.046876358102	0.615557384711	0.0633563277472	-0.66357421875	-0.24267578125	0.22412109375	47.875	-21.6875	-16.3125
18	12	13	16	01	28	-0.0549302644975	0.611862112875	0.0598129546751	-0.61181640625	-0.2275390625	0.2158203125	47.4375	-18.125	-16.0625
18	12	13	16	01	28	-0.0623800754411	0.608663514969	0.0571308714411	-0.5810546875	-0.20068359375	0.20849609375	41.125	-14.875	-18.0
18	12	13	16	01	28	-0.0690918599349	0.606140689941	0.0554810076686	-0.58740234375	-0.1630859375	0.21142578125	32.8125	-10.5625	-21.0
18	12	13	16	01	28	-0.0753774705455	0.604423555314	0.054869915806	-0.60986328125	-0.15869140625	0.208984375	25.625	-5.75	-23.8125
18	12	13	16	01	28	-0.0819715317528	0.603220140218	0.0548104508667	-0.630859375	-0.17822265625	0.21337890625	24.5	-1.8125	-26.25
18	12	13	16	01	28	-0.0894151197312	0.60234663251	0.0540152771073	-0.65478515625	-0.1845703125	0.22314453125	29.875	1.375	-28.1875
18	12	13	16	01	28	-0.0978392206114	0.60174477605	0.0521849866642	-0.69287109375	-0.18505859375	0.22705078125	37.9375	4.125	-29.5625
18	12	13	16	01	28	-0.106751214048	0.601505554286	0.0493167415386	-0.73095703125	-0.181640625	0.23486328125	43.5625	7.5625	-29.875
18	12	13	16	01	28	-0.115841753909	0.601913265041	0.0455920917649	-0.78125	-0.1787109375	0.2470703125	47.25	12.75	-28.75
18	12	13	16	01	28	-0.124753814982	0.603078496007	0.0411370211829	-0.8232421875	-0.189453125	0.244140625	49.625	18.0	-26.0
18	12	13	16	01	28	-0.133361564772	0.60497932724	0.0357665340761	-0.86376953125	-0.20263671875	0.2451171875	51.6875	23.5625	-21.5625
18	12	13	16	01	28	-0.141354809761	0.607532718635	0.0296625377996	-0.89599609375	-0.22021484375	0.24169921875	53.125	28.25	-15.75
18	12	13	16	01	28	-0.148925323549	0.610532791582	0.022949148219	-0.90966796875	-0.248046875	0.23876953125	54.125	32.0625	-10.375
18	12	13	16	01	28	-0.156186480698	0.613759769401	0.0156857856738	-0.92138671875	-0.259765625	0.22900390625	55.25	34.0	-6.625
18	12	13	16	01	28	-0.163143135029	0.616928847315	0.00830058599474	-0.91162109375	-0.2685546875	0.22705078125	55.25	34.4375	-3.75
18	12	13	16	01	28	-0.16949812138	0.620007892322	0.000610364138927	-0.92138671875	-0.26611328125	0.224609375	54.25	34.6875	-0.25
18	12	13	16	01	28	-0.175172702801	0.623053292748	-0.0073853299787	-0.939453125	-0.25390625	0.22998046875	53.0	35.0625	3.0
18	12	13	16	01	28	-0.180169986663	0.626139530209	-0.0150751987486	-0.9677734375	-0.24609375	0.23388671875	48.75	35.625	4.25
18	12	13	16	01	28	-0.185233773479	0.62930656947	-0.0225210090325	-1.02978515625	-0.25927734375	0.2373046875	48.1875	36.6875	3.5
18	12	13	16	01	28	-0.191646158093	0.63231025409	-0.0313103436629	-1.09326171875	-0.28271484375	0.2265625	59.375	37.25	2.5625
18	12	13	16	01	28	-0.200260160265	0.634716673756	-0.0425423138386	-1.1669921875	-0.30126953125	0.2119140625	79.0	37.4375	2.75
18	12	13	16	01	28	-0.210687596528	0.636396167148	-0.056883209723	-1.2763671875	-0.294921875	0.2197265625	99.3125	38.625	4.625
18	12	13	16	01	28	-0.221798728334	0.637747636863	-0.0742177362834	-1.421875	-0.2451171875	0.23583984375	114.3125	44.6875	8.3125
18	12	13	16	01	28	-0.233267100053	0.639256830443	-0.0934411120305	-1.5556640625	-0.18115234375	0.23974609375	123.8125	51.25	11.125
18	12	13	16	01	28	-0.244260622474	0.640497494313	-0.113158219407	-1.5361328125	-0.1220703125	0.18896484375	124.5625	52.5625	13.6875
18	12	13	16	01	28	-0.254030558884	0.640752716762	-0.131165706641	-1.33544921875	-0.14208984375	0.11181640625	114.0	43.0	15.4375
18	12	13	16	01	28	-0.262331474851	0.640203545769	-0.146058450284	-1.12841796875	-0.1552734375	0.044921875	97.5	25.25	13.5
18	12	13	16	01	28	-0.268788051704	0.638280073734	-0.157220259126	-1.07861328125	-0.11279296875	-0.0009765625	75.375	4.375	10.125
18	12	13	16	01	28	-0.273130632137	0.635372040345	-0.165038040066	-1.15771484375	-0.0380859375	0.001953125	53.0	-11.4375	5.375
18	12	13	16	01	28	-0.276241193339	0.632254202783	-0.170468769994	-1.216796875	0.01416015625	0.0302734375	37.375	-18.3125	0.3125
18	12	13	16	01	28	-0.279842522892	0.628592833863	-0.175046533403	-1.2138671875	-0.01318359375	0.060546875	36.3125	-22.125	-1.5625
18	12	13	16	01	28	-0.28526735289	0.623511184665	-0.179802657598	-1.12548828125	-0.07666015625	0.10693359375	45.6875	-27.75	-0.5625
18	12	13	16	01	28	-0.292845450753	0.616513526063	-0.186034375551	-0.9931640625	-0.1162109375	0.1455078125	62.5625	-32.9375	2.1875
18	12	13	16	01	28	-0.302112333551	0.607581470807	-0.194023254214	-0.892578125	-0.1220703125	0.17431640625	78.625	-38.3125	5.8125
18	12	13	16	01	28	-0.311514681201	0.59745635076	-0.202569989598	-0.81640625	-0.0791015625	0.18408203125	82.5	-43.25	6.9375
18	12	13	16	01	28	-0.319577272681	0.587275117979	-0.209531852008	-0.76416015625	-0.0166015625	0.1787109375	70.1875	-48.0	4.8125
18	12	13	16	01	29	-0.325564191048	0.577946630116	-0.213258583338	-0.72705078125	0.02783203125	0.17529296875	46.4375	-51.6875	0.8125
18	12	13	16	01	29	-0.329830437096	0.570184297438	-0.213437645915	-0.712890625	0.01904296875	0.16943359375	23.3125	-52.3125	-4.375
18	12	13	16	01	29	-0.333678585774	0.563536561634	-0.211425392559	-0.72412109375	-0.0087890625	0.18310546875	11.125	-50.75	-9.875
18	12	13	16	01	29	-0.338551273387	0.55747743485	-0.209099812984	-0.73974609375	-0.04931640625	0.19873046875	13.6875	-47.4375	-15.0
18	12	13	16	01	29	-0.345328129667	0.551133441304	-0.208429756595	-0.75927734375	-0.07568359375	0.228515625	29.25	-42.5625	-18.4375
18	12	13	16	01	29	-0.354299025449	0.544357107319	-0.210748412554	-0.7822265625	-0.0830078125	0.25244140625	51.8125	-35.6875	-20.625
18	12	13	16	01	29	-0.365096713614	0.537147471836	-0.216482454562	-0.7939453125	-0.07568359375	0.26904296875	74.5	-26.9375	-21.4375
18	12	13	16	01	29	-0.376579743367	0.530202306422	-0.224788200133	-0.8134765625	-0.037109375	0.26220703125	88.1875	-17.6875	-22.1875
18	12	13	16	01	29	-0.387618954713	0.524271267673	-0.233938506285	-0.83740234375	-0.005859375	0.2626953125	88.9375	-8.6875	-24.0625
18	12	13	16	01	29	-0.397750339779	0.520059942498	-0.242666157889	-0.8583984375	0.00244140625	0.2548828125	81.6875	0.9375	-26.25
18	12	13	16	01	29	-0.406600766532	0.517924662983	-0.250539799852	-0.88720703125	-0.00830078125	0.23681640625	71.1875	9.8125	-27.5625
18	12	13	16	01	29	-0.414355980117	0.517563516187	-0.257561089423	-0.9150390625	-0.02685546875	0.23388671875	61.625	18.0625	-28.375
18	12	13	16	01	29	-0.421446479845	0.518431049935	-0.264708672424	-0.94970703125	-0.03271484375	0.232421875	58.3125	26.3125	-29.125
18	12	13	16	01	29	-0.42833365836	0.520006094219	-0.27263699799	-0.986328125	-0.02783203125	0.2197265625	60.625	33.1875	-30.1875
18	12	13	16	01	29	-0.435427414644	0.521792678412	-0.281312721348	-1.0107421875	-0.02001953125	0.20703125	64.8125	38.1875	-31.75
18	12	13	16	01	29	-0.44286448718	0.523490725819	-0.290645078273	-1.00634765625	-0.01025390625	0.19873046875	69.625	41.5625	-34.0625
18	12	13	16	01	29	-0.450796865198	0.525197268485	-0.300104005711	-1.00341796875	-0.01220703125	0.17138671875	73.0	42.875	-37.5625
18	12	13	16	01	29	-0.459351332884	0.5266732197	-0.309509780635	-1.00439453125	-0.015625	0.16357421875	76.375	43.0	-41.125
18	12	13	16	01	29	-0.468424628691	0.527626177855	-0.319017007709	-1.01171875	-0.0185546875	0.162109375	80.5625	42.9375	-43.4375
18	12	13	16	01	29	-0.478022416379	0.527887625033	-0.328731963051	-1.01904296875	-0.0205078125	0.1650390625	85.5	42.5	-45.375
18	12	13	16	01	29	-0.488265926645	0.527327200777	-0.338612420128	-1.02392578125	-0.0185546875	0.1650390625	90.9375	40.9375	-47.1875
18	12	13	16	01	29	-0.499249960067	0.525677250129	-0.348620510013	-1.025390625	-0.01416015625	0.1728515625	97.25	38.125	-49.375
18	12	13	16	01	29	-0.510419079372	0.52348014394	-0.358141714427	-1.091796875	-0.0068359375	0.1904296875	97.375	35.75	-51.5625
18	12	13	16	01	29	-0.521409802443	0.520738433155	-0.367971403363	-1.1396484375	-0.01904296875	0.20556640625	99.9375	37.125	-50.25
18	12	13	16	01	29	-0.532385808513	0.517676995048	-0.377912750924	-1.13818359375	-0.07373046875	0.2275390625	103.6875	39.5	-43.1875
18	12	13	16	01	29	-0.542530586121	0.513722572098	-0.388725087524	-1.08154296875	-0.12744140625	0.2626953125	105.9375	40.625	-34.125
18	12	13	16	01	29	-0.551512765821	0.509215472028	-0.399901686771	-1.0029296875	-0.15478515625	0.2763671875	104.3125	41.375	-25.625
18	12	13	16	01	29	-0.560174193941	0.503961464303	-0.410029443767	-0.93505859375	-0.1689453125	0.2802734375	98.8125	40.3125	-20.25
18	12	13	16	01	29	-0.567367319965	0.499253945494	-0.418689739131	-0.88330078125	-0.16015625	0.28515625	84.8125	37.4375	-16.3125
18	12	13	16	01	29	-0.572291601274	0.496185423734	-0.425144853842	-0.8486328125	-0.13671875	0.27783203125	60.3125	33.4375	-13.6875
18	12	13	16	01	29	-0.574987246912	0.49552292301	-0.428692328024	-0.873046875	-0.14794921875	0.283203125	32.0625	29.75	-13.0625
18	12	13	16	01	29	-0.576452838744	0.496561174804	-0.430035648681	-0.88818359375	-0.1904296875	0.28515625	12.75	26.125	-12.5
18	12	13	16	01	29	-0.577559164033	0.498093663497	-0.430346577787	-0.90283203125	-0.240234375	0.2841796875	5.8125	22.5625	-10.1875
18	12	13	16	01	29	-0.579579830996	0.498709646068	-0.430595588424	-0.91162109375	-0.28271484375	0.27734375	11.9375	17.625	-8.25
18	12	13	16	01	29	-0.582869337813	0.497605624208	-0.431567443735	-0.92138671875	-0.28564453125	0.26904296875	24.5625	12.5	-7.3125
18	12	13	16	01	29	-0.587255822041	0.494913475466	-0.433209501647	-0.93994140625	-0.2734375	0.2578125	35.5	7.5625	-7.0
18	12	13	16	01	29	-0.592208062768	0.491319685178	-0.435046797012	-0.95654296875	-0.2578125	0.2373046875	40.8125	3.0	-7.375
18	12	13	16	01	29	-0.597328295063	0.48728610481	-0.436506791283	-0.984375	-0.2431640625	0.23095703125	40.8125	-2.4375	-7.375
18	12	13	16	01	29	-0.602229831641	0.483212078352	-0.437130845668	-1.0	-0.23193359375	0.240234375	35.375	-7.5	-7.0625
18	12	13	16	01	29	-0.606439160833	0.479670427233	-0.436885216711	-1.01513671875	-0.22314453125	0.24658203125	26.6875	-10.9375	-6.1875
18	12	13	16	01	29	-0.610113057428	0.476627937721	-0.43579504102	-1.0302734375	-0.22802734375	0.26171875	18.5625	-13.3125	-4.875
18	12	13	16	01	29	-0.613507726293	0.473863309485	-0.434252633563	-1.02490234375	-0.240234375	0.24853515625	15.3125	-16.1875	-3.8125
18	12	13	16	01	29	-0.617005547243	0.471070216007	-0.43225178411	-1.00341796875	-0.2568359375	0.24609375	13.75	-19.5625	-2.9375
18	12	13	16	01	29	-0.620267293931	0.468236807935	-0.429969800821	-0.978515625	-0.24658203125	0.240234375	11.125	-22.1875	-1.8125
18	12	13	16	01	29	-0.623231733369	0.465577481357	-0.427491436737	-0.95458984375	-0.24072265625	0.2412109375	8.75	-23.125	-0.5
18	12	13	16	01	29	-0.626015352255	0.462996242781	-0.424789592639	-0.93896484375	-0.23486328125	0.24658203125	6.5	-23.875	-0.0625
18	12	13	16	01	29	-0.628524018002	0.460681616613	-0.421925280292	-0.92626953125	-0.23046875	0.24853515625	3.8125	-24.375	0.0
18	12	13	16	01	29	-0.630778175084	0.4586645366	-0.418870886851	-0.9072265625	-0.22900390625	0.251953125	1.1875	-23.875	0.1875
18	12	13	16	01	29	-0.632727604431	0.456952982963	-0.415755806056	-0.90380859375	-0.224609375	0.26171875	-1.1875	-22.5625	0.375
18	12	13	16	01	29	-0.634253795545	0.455671558655	-0.412765436804	-0.91015625	-0.2265625	0.27001953125	-3.375	-20.3125	0.625
18	12	13	16	01	30	-0.635533536713	0.454632604915	-0.410200797105	-0.93603515625	-0.22607421875	0.2705078125	-3.1875	-17.625	0.4375
18	12	13	16	01	30	-0.636697052399	0.453719889526	-0.408067148422	-0.96044921875	-0.23095703125	0.2705078125	-1.5625	-15.375	-0.0625
18	12	13	16	01	30	-0.63775027394	0.452754477183	-0.40649026935	-0.9716796875	-0.2255859375	0.26611328125	0.125	-13.0	0.1875
18	12	13	16	01	30	-0.638532568721	0.452014165929	-0.405384565231	-0.97509765625	-0.2314453125	0.25390625	1.1875	-10.5	1.0625
18	12	13	16	01	30	-0.639023853982	0.451405962182	-0.404715107522	-0.97900390625	-0.22998046875	0.24072265625	1.5	-8.875	1.875
18	12	13	16	01	30	-0.639191316715	0.451150788996	-0.404033850535	-0.97607421875	-0.2275390625	0.2314453125	-0.625	-7.875	2.4375
18	12	13	16	01	30	-0.638832304606	0.451277926842	-0.403305996832	-0.96337890625	-0.21044921875	0.22900390625	-5.0625	-7.125	3.1875
18	12	13	16	01	30	-0.637989668461	0.452018701294	-0.402214858429	-0.9599609375	-0.20849609375	0.22607421875	-9.9375	-6.75	3.375
18	12	13	16	01	30	-0.637022467517	0.453123962714	-0.400755918532	-0.95458984375	-0.21337890625	0.23388671875	-13.0625	-6.375	2.9375
18	12	13	16	01	30	-0.636108210047	0.454162463151	-0.399352909071	-0.95361328125	-0.21435546875	0.23974609375	-12.6875	-5.6875	2.5625
18	12	13	16	01	30	-0.635537766038	0.454879762824	-0.39836310371	-0.953125	-0.21875	0.2451171875	-8.25	-4.6875	1.9375
18	12	13	16	01	30	-0.635480069491	0.454943184593	-0.397937961302	-0.951171875	-0.2177734375	0.2470703125	-1.875	-3.75	1.5
18	12	13	16	01	30	-0.635719181663	0.45457339334	-0.39805688391	-0.95654296875	-0.21044921875	0.24365234375	3.375	-3.0	1.1875
18	12	13	16	01	30	-0.636013803706	0.453833475133	-0.398660605106	-0.9677734375	-0.19482421875	0.25341796875	5.625	-1.5	1.25
18	12	13	16	01	30	-0.635961496456	0.453412471898	-0.39958156596	-0.97216796875	-0.18701171875	0.25341796875	4.75	1.125	1.4375
18	12	13	16	01	30	-0.635527909581	0.453468968423	-0.400432019088	-0.970703125	-0.18603515625	0.25	1.5	3.125	1.875
18	12	13	16	01	30	-0.6347399106	0.453961101446	-0.401045764668	-0.96337890625	-0.19140625	0.25439453125	-2.1875	4.3125	2.5
18	12	13	16	01	30	-0.633604888968	0.454833217666	-0.401610651133	-0.95556640625	-0.18896484375	0.24853515625	-5.0	5.375	3.0
18	12	13	16	01	30	-0.632064577825	0.456165571134	-0.402028715154	-0.95849609375	-0.18359375	0.2509765625	-8.6875	6.5625	3.25
18	12	13	16	01	30	-0.630225912369	0.457868951636	-0.402328996159	-0.96826171875	-0.18359375	0.24609375	-11.4375	7.625	3.1875
18	12	13	16	01	30	-0.628436310575	0.459624536753	-0.402560542348	-0.97216796875	-0.19140625	0.25732421875	-11.4375	8.375	2.6875
18	12	13	16	01	30	-0.626852714797	0.461213705163	-0.402989823367	-0.97216796875	-0.19091796875	0.248046875	-9.25	8.5	2.25
18	12	13	16	01	30	-0.6256003105	0.462455956357	-0.403557975905	-0.97314453125	-0.19921875	0.24560546875	-5.9375	8.1875	2.0625
18	12	13	16	01	30	-0.624669130361	0.463359847357	-0.404341278812	-0.9755859375	-0.19970703125	0.23095703125	-2.4375	7.0	1.875
18	12	13	16	01	30	-0.624009299347	0.463856677918	-0.405142187898	-0.96875	-0.19482421875	0.22802734375	-0.375	5.1875	1.625
18	12	13	16	01	30	-0.623464779718	0.464165408688	-0.405694605069	-0.970703125	-0.18359375	0.22802734375	-0.875	3.375	1.5625
18	12	13	16	01	30	-0.622744979574	0.464541021223	-0.40606903353	-0.97802734375	-0.17333984375	0.23388671875	-3.0625	2.5625	1.5
18	12	13	16	01	30	-0.621922815355	0.465068876644	-0.406172358802	-0.9873046875	-0.169921875	0.236328125	-5.375	1.9375	1.375
18	12	13	16	01	30	-0.621052232681	0.465728143435	-0.406039750789	-0.98876953125	-0.181640625	0.240234375	-6.4375	1.3125	1.6875
18	12	13	16	01	30	-0.620271855925	0.466287216301	-0.405926214086	-0.98486328125	-0.18701171875	0.232421875	-5.4375	0.8125	2.25
18	12	13	16	01	30	-0.619734545826	0.466479331667	-0.405934061876	-0.97802734375	-0.1923828125	0.23828125	-3.375	0.25	2.9375
18	12	13	16	01	30	-0.619238419727	0.466473412377	-0.406050976389	-0.9765625	-0.18798828125	0.23193359375	-2.1875	-0.4375	3.5
18	12	13	16	01	30	-0.618758897769	0.466357934292	-0.406178779311	-0.97265625	-0.1845703125	0.2333984375	-2.0	-1.1875	3.6875
18	12	13	16	01	30	-0.618217715304	0.466303025464	-0.406184114458	-0.9716796875	-0.17431640625	0.2236328125	-2.9375	-1.8125	3.5625
18	12	13	16	01	30	-0.617652401897	0.466290943725	-0.406051524686	-0.974609375	-0.17529296875	0.22802734375	-3.9375	-2.0625	3.4375
18	12	13	16	01	30	-0.617230058916	0.466355668959	-0.405810606322	-0.97705078125	-0.19091796875	0.23095703125	-3.3125	-2.25	3.1875
18	12	13	16	01	30	-0.616966519551	0.466157906452	-0.405797842367	-0.9794921875	-0.1904296875	0.228515625	-1.0625	-2.25	3.4375
18	12	13	16	01	30	-0.616860830384	0.465743049041	-0.406052746072	-0.978515625	-0.19482421875	0.22607421875	1.5625	-2.125	3.8125
18	12	13	16	01	30	-0.616783220852	0.465059186908	-0.406530084514	-0.98095703125	-0.185546875	0.228515625	2.875	-1.9375	4.375
18	12	13	16	01	30	-0.616683499504	0.464465699844	-0.406972048168	-0.97607421875	-0.18505859375	0.22607421875	2.5	-1.6875	4.4375
18	12	13	16	01	30	-0.616322344227	0.464103298228	-0.407341585004	-0.96484375	-0.1806640625	0.2236328125	0.4375	-1.4375	4.6875
18	12	13	16	01	30	-0.615822338682	0.46403342329	-0.407455890291	-0.95556640625	-0.18505859375	0.22802734375	-2.0	-0.8125	5.0
18	12	13	16	01	30	-0.615203907245	0.464210408582	-0.407389492149	-0.955078125	-0.19677734375	0.22802734375	-3.25	-0.5	5.0
18	12	13	16	01	30	-0.614605504417	0.464341477418	-0.407397392451	-0.95849609375	-0.18896484375	0.2392578125	-3.5	0.3125	4.8125
18	12	13	16	01	30	-0.613811902093	0.464585482622	-0.407580380051	-0.96435546875	-0.1806640625	0.24658203125	-3.8125	2.125	4.75
18	12	13	16	01	30	-0.613080258414	0.465013289085	-0.4078250161	-0.9619140625	-0.197265625	0.24560546875	-3.125	3.4375	4.4375
18	12	13	16	01	30	-0.612466388371	0.465376802325	-0.408188859534	-0.97119140625	-0.19921875	0.2431640625	-1.625	3.875	4.1875
18	12	13	16	01	30	-0.611922210779	0.465624830045	-0.408863643528	-0.97119140625	-0.1982421875	0.22607421875	0.1875	3.875	4.1875
18	12	13	16	01	30	-0.611243953063	0.465924746648	-0.409469364064	-0.97607421875	-0.185546875	0.22509765625	-1.0625	3.9375	3.6875
18	12	13	16	01	30	-0.610471953329	0.466551450835	-0.409666841706	-0.98876953125	-0.185546875	0.228515625	-3.875	3.3125	3.125
18	12	13	16	01	31	-0.609656213387	0.467327823196	-0.409651867479	-0.9931640625	-0.193359375	0.22265625	-5.0625	2.3125	2.625
18	12	13	16	01	31	-0.609051848029	0.467881698266	-0.409472777676	-0.98828125	-0.18896484375	0.22412109375	-4.75	0.8125	2.375
18	12	13	16	01	31	-0.60857162106	0.468376152845	-0.409173016507	-0.9892578125	-0.19140625	0.21875	-4.0625	-0.5625	2.0625
18	12	13	16	01	31	-0.608239311178	0.468599381018	-0.408849603209	-0.9794921875	-0.185546875	0.21728515625	-3.4375	-1.9375	1.9375
18	12	13	16	01	31	-0.608060763722	0.468724948849	-0.408303373411	-0.974609375	-0.181640625	0.22265625	-3.3125	-3.1875	1.5
18	12	13	16	01	31	-0.607880868622	0.468788448984	-0.407756233259	-0.9814453125	-0.1708984375	0.22412109375	-3.6875	-3.75	0.9375
18	12	13	16	01	31	-0.607825111798	0.468792517695	-0.407088412059	-0.97900390625	-0.16796875	0.234375	-3.6875	-3.8125	0.3125
18	12	13	16	01	31	-0.607882589508	0.468789776106	-0.406414675054	-0.97412109375	-0.17578125	0.2294921875	-2.6875	-3.9375	0.0625
18	12	13	16	01	31	-0.608063727445	0.468605169057	-0.405986140215	-0.97265625	-0.17822265625	0.224609375	-0.8125	-3.9375	0.3125
18	12	13	16	01	31	-0.608326921285	0.468253651058	-0.405754727872	-0.9794921875	-0.17236328125	0.2275390625	1.125	-3.75	0.5
18	12	13	16	01	31	-0.608486844643	0.467808592196	-0.405678240355	-0.98095703125	-0.162109375	0.2255859375	1.0625	-3.625	0.5625
18	12	13	16	01	31	-0.608550055931	0.467505107655	-0.405557629291	-0.9853515625	-0.16162109375	0.22021484375	0.25	-3.5625	0.5
18	12	13	16	01	31	-0.608613142992	0.467201525231	-0.405436934306	-0.99072265625	-0.16259765625	0.21826171875	0.0	-3.75	0.6875
18	12	13	16	01	31	-0.608674938134	0.467019013998	-0.405254345654	-0.990234375	-0.17138671875	0.21630859375	0.0	-4.125	0.8125
18	12	13	16	01	31	-0.608749421698	0.466724165603	-0.40501916607	-0.984375	-0.16748046875	0.2177734375	0.0625	-4.375	0.9375
18	12	13	16	01	31	-0.608767985569	0.466494256437	-0.404787375205	-0.974609375	-0.171875	0.21533203125	-0.3125	-4.375	1.3125
18	12	13	16	01	31	-0.608806293806	0.466232709612	-0.404528131864	-0.97119140625	-0.17138671875	0.22119140625	-0.5	-4.3125	1.4375
18	12	13	16	01	31	-0.608802491815	0.465985666667	-0.404220441433	-0.97119140625	-0.16943359375	0.23046875	-1.0625	-3.9375	1.5
18	12	13	16	01	31	-0.608637117237	0.465877167657	-0.404049109117	-0.9755859375	-0.16259765625	0.22900390625	-1.625	-2.5625	1.4375
18	12	13	16	01	31	-0.608445331282	0.465931553717	-0.403982309936	-0.98095703125	-0.1650390625	0.23291015625	-1.0625	-1.125	0.9375
18	12	13	16	01	31	-0.60843032854	0.465920065009	-0.404033380975	-0.9833984375	-0.17578125	0.224609375	0.0625	-0.25	0.75
18	12	13	16	01	31	-0.608503734464	0.465868506035	-0.404346764376	-0.9697265625	-0.181640625	0.2197265625	2.5	0.1875	0.875
18	12	13	16	01	31	-0.608623480964	0.46568363014	-0.404833488692	-0.96533203125	-0.18115234375	0.216796875	3.75	0.0625	0.9375
18	12	13	16	01	31	-0.608572140211	0.465507944378	-0.405328210124	-0.97119140625	-0.16015625	0.2138671875	2.5	-0.0625	0.9375
18	12	13	16	01	31	-0.608557084238	0.465496427789	-0.405379215075	-0.978515625	-0.1552734375	0.23095703125	-0.625	0.8125	0.4375
18	12	13	16	01	31	-0.608262339962	0.465931637896	-0.405386159144	-0.97509765625	-0.16748046875	0.23193359375	-1.9375	1.375	-0.0625
18	12	13	16	01	31	-0.608123266861	0.466345833208	-0.405435855255	-0.9716796875	-0.185546875	0.22705078125	-0.5	1.5625	-0.1875
18	12	13	16	01	31	-0.608263409446	0.466298660262	-0.405936176623	-0.96875	-0.18212890625	0.224609375	3.5625	1.625	0.3125
18	12	13	16	01	31	-0.608491147714	0.46591990187	-0.406718656807	-0.974609375	-0.16015625	0.21923828125	5.5	1.3125	0.1875
18	12	13	16	01	31	-0.608486356205	0.465672106102	-0.407386803176	-0.984375	-0.15185546875	0.22216796875	3.1875	1.3125	0.0625
18	12	13	16	01	31	-0.608333419478	0.465756227956	-0.407712174387	-0.98291015625	-0.1591796875	0.23046875	0.5625	1.3125	0.0
18	12	13	16	01	31	-0.608139198671	0.4659308152	-0.407887822633	-0.98291015625	-0.162109375	0.2255859375	-0.25	1.125	0.25
18	12	13	16	01	31	-0.608086734293	0.465998415771	-0.407954605241	-0.98193359375	-0.17236328125	0.2197265625	0.5	0.875	0.625
18	12	13	16	01	31	-0.608028826681	0.465878742628	-0.408322912116	-0.978515625	-0.16796875	0.2197265625	1.8125	0.5625	1.3125
18	12	13	16	01	31	-0.607939344186	0.46567384762	-0.408792061777	-0.9697265625	-0.166015625	0.2158203125	2.25	0.125	1.6875
18	12	13	16	01	31	-0.60789085223	0.465439321196	-0.409044627676	-0.97314453125	-0.162109375	0.22802734375	1.375	-0.1875	1.625
18	12	13	16	01	31	-0.607642586219	0.465436155334	-0.409347009418	-0.98193359375	-0.15673828125	0.22509765625	-0.1875	0.4375	1.375
18	12	13	16	01	31	-0.607404110357	0.465501522277	-0.409472887499	-0.982421875	-0.16552734375	0.232421875	-0.4375	0.8125	1.25
18	12	13	16	01	31	-0.607326489771	0.465488808912	-0.409766862861	-0.97900390625	-0.1767578125	0.22900390625	1.0625	0.9375	1.5
18	12	13	16	01	31	-0.607347511333	0.465260785739	-0.41026931677	-0.97412109375	-0.173828125	0.2216796875	3.4375	0.8125	1.875
18	12	13	16	01	31	-0.607412849932	0.464836843357	-0.410943601145	-0.97119140625	-0.1630859375	0.2177734375	4.25	0.625	1.9375
18	12	13	16	01	31	-0.607467578572	0.464526850247	-0.41136657084	-0.97314453125	-0.16455078125	0.22509765625	2.75	0.25	1.6875
18	12	13	16	01	31	-0.607331489321	0.46445509333	-0.411662234496	-0.97314453125	-0.15966796875	0.22021484375	0.875	0.1875	1.3125
18	12	13	16	01	31	-0.607331489321	0.46445509333	-0.411662234496	-0.9775390625	-0.166015625	0.22900390625	0.9375	0.1875	0.875
18	12	13	16	01	31	-0.607473791401	0.46434849844	-0.411920086222	-0.98583984375	-0.17333984375	0.22216796875	2.5625	0.125	0.8125
