18	12	12	16	59	18	0.748975435252	0.138552215632	0.608714205506	-1.11865234375	0.080078125	0.3701171875	-0.375	90.8125	-64.875
18	12	12	16	59	18	0.737837198728	0.137642528386	0.620825789896	-1.25048828125	0.1396484375	0.36279296875	0.4375	94.4375	-61.9375
18	12	12	16	59	18	0.72651320291	0.136598886677	0.633127905048	-1.328125	0.111328125	0.3076171875	-3.8125	94.625	-57.8125
18	12	12	16	59	18	0.715789457693	0.135564797948	0.644985691093	-1.357421875	0.03125	0.27880859375	-9.25	92.6875	-44.5
18	12	12	16	59	18	0.7065049134	0.135319342808	0.655172677359	-1.265625	-0.0732421875	0.205078125	-8.3125	80.875	-26.375
18	12	12	16	59	18	0.700214369169	0.13525758735	0.662981910558	-1.14453125	-0.05322265625	0.12353515625	-18.0625	59.3125	-7.375
18	12	12	16	59	18	0.697615799525	0.134835357525	0.668500151929	-1.05322265625	-0.00439453125	0.07177734375	-38.0625	37.5	15.3125
18	12	12	16	59	18	0.698312635948	0.133546722092	0.672189236928	-1.064453125	0.0341796875	0.00732421875	-60.5625	16.4375	36.25
18	12	12	16	59	18	0.701765984637	0.131600196823	0.673749059617	-1.11669921875	0.01318359375	-0.0341796875	-74.5	-4.125	53.5625
18	12	12	16	59	18	0.70778421999	0.130435915671	0.67219969082	-1.1318359375	-0.0205078125	-0.017578125	-71.8125	-24.625	67.875
18	12	12	16	59	18	0.715728929269	0.132574043525	0.666959748433	-1.1484375	-0.0439453125	0.02001953125	-48.0625	-43.125	80.6875
18	12	12	16	59	18	0.724581011251	0.139898886175	0.658476956396	-1.16552734375	0.0009765625	0.0556640625	-12.6875	-57.4375	89.75
18	12	12	16	59	18	0.733837109417	0.151247472106	0.647593090819	-1.1904296875	0.0712890625	0.06640625	14.6875	-68.1875	95.3125
18	12	12	16	59	18	0.743738896969	0.163640868508	0.634970516632	-1.1513671875	0.16064453125	0.10205078125	21.0	-73.375	100.375
18	12	12	16	59	18	0.753566285933	0.175176999889	0.62227509194	-1.107421875	0.2255859375	0.1357421875	10.125	-72.3125	104.875
18	12	12	16	59	18	0.763397398065	0.184516697398	0.609887806946	-1.05322265625	0.2314453125	0.1650390625	-9.125	-69.4375	109.375
18	12	12	16	59	19	0.773147579344	0.19159313583	0.597973224507	-1.0048828125	0.2470703125	0.1904296875	-30.6875	-64.75	115.1875
18	12	12	16	59	19	0.782384512477	0.196298064607	0.586940979247	-0.943359375	0.25927734375	0.22314453125	-51.1875	-56.75	119.3125
18	12	12	16	59	19	0.790937704391	0.199351948028	0.576509231207	-0.93115234375	0.28173828125	0.2060546875	-64.4375	-51.1875	121.5625
18	12	12	16	59	19	0.799389432243	0.200381423689	0.565865421572	-0.8779296875	0.330078125	0.19189453125	-79.375	-50.4375	122.0
18	12	12	16	59	19	0.807841652826	0.198862720431	0.554837976893	-0.83154296875	0.3388671875	0.19189453125	-94.5625	-51.6875	119.9375
18	12	12	16	59	19	0.816079806507	0.196725895017	0.542934171943	-0.7958984375	0.32763671875	0.18115234375	-95.5	-56.0625	116.125
18	12	12	16	59	19	0.8237207437	0.195263627943	0.530428548555	-0.76513671875	0.3134765625	0.17138671875	-85.125	-60.0625	109.9375
18	12	12	16	59	19	0.830378638594	0.195753035429	0.517857422069	-0.78759765625	0.3017578125	0.1845703125	-65.0	-61.75	101.4375
18	12	12	16	59	19	0.835000483738	0.198556767076	0.50728720909	-0.81005859375	0.30419921875	0.189453125	-41.5625	-61.125	93.25
18	12	12	16	59	19	0.838858525712	0.202527293045	0.497284465471	-0.787109375	0.3154296875	0.22900390625	-27.125	-58.0625	84.1875
18	12	12	16	59	19	0.841736063035	0.206924238846	0.48862198583	-0.77392578125	0.34521484375	0.24560546875	-18.125	-50.625	74.75
18	12	12	16	59	19	0.844112982743	0.209975317133	0.481295167325	-0.783203125	0.36376953125	0.25146484375	-20.3125	-44.5625	63.875
18	12	12	16	59	19	0.846402101737	0.209906744636	0.475418329158	-0.83544921875	0.41015625	0.28466796875	-32.375	-36.8125	49.5625
18	12	12	16	59	19	0.848363138223	0.206185386065	0.471943577577	-0.91015625	0.41064453125	0.2978515625	-44.125	-26.625	31.6875
18	12	12	16	59	19	0.849938882324	0.198797194954	0.471082821815	-1.01025390625	0.41845703125	0.3515625	-53.0	-13.25	12.4375
18	12	12	16	59	19	0.850431655937	0.189276434728	0.473709903232	-1.11083984375	0.4501953125	0.3623046875	-53.25	2.125	-11.0625
18	12	12	16	59	19	0.849961322263	0.177500001806	0.479762728401	-1.21728515625	0.43701171875	0.36181640625	-49.25	15.375	-38.0625
18	12	12	16	59	19	0.848824887111	0.163343549397	0.48832152286	-1.30517578125	0.39794921875	0.38330078125	-47.25	26.6875	-62.75
18	12	12	16	59	19	0.846890911611	0.148015168336	0.49867378363	-1.32421875	0.37451171875	0.3447265625	-43.3125	34.4375	-84.3125
18	12	12	16	59	19	0.844337252372	0.129766572583	0.510215795025	-1.28271484375	0.25439453125	0.3505859375	-48.5	46.0	-98.25
18	12	12	16	59	19	0.841087400122	0.113650561613	0.521376529161	-1.140625	0.087890625	0.36474609375	-35.25	61.3125	-103.6875
18	12	12	16	59	19	0.835587489818	0.100160633367	0.534983517038	-1.060546875	0.0146484375	0.32373046875	-11.75	77.125	-109.1875
18	12	12	16	59	19	0.828545224613	0.0887509029458	0.549657414737	-1.0234375	0.00830078125	0.2431640625	3.375	84.875	-109.9375
18	12	12	16	59	19	0.821013877536	0.0775174800736	0.563863370803	-1.02783203125	0.015625	0.1865234375	1.8125	84.1875	-107.0625
18	12	12	16	59	19	0.813948925889	0.0653112373979	0.576386929672	-1.03369140625	-0.046875	0.15380859375	-8.4375	76.0	-100.8125
18	12	12	16	59	19	0.80674431481	0.0515774340633	0.588348978622	-1.04248046875	-0.14306640625	0.15185546875	-12.5625	65.0625	-91.8125
18	12	12	16	59	19	0.800615959362	0.0403451360173	0.597791622017	-0.984375	-0.1962890625	0.15087890625	-0.125	52.1875	-82.125
18	12	12	16	59	19	0.795695079317	0.0327165205979	0.604767324783	-0.90283203125	-0.1845703125	0.158203125	15.0625	39.8125	-72.4375
18	12	12	16	59	19	0.791849621654	0.0283828007453	0.609711390634	-0.8447265625	-0.13525390625	0.193359375	28.5	30.9375	-65.375
18	12	12	16	59	19	0.78861586496	0.026856887042	0.613374677011	-0.82763671875	-0.0830078125	0.21435546875	40.75	26.0625	-60.4375
18	12	12	16	59	19	0.785861043822	0.0281994409511	0.615931945103	-0.837890625	-0.0263671875	0.2490234375	54.75	22.25	-57.4375
18	12	12	16	59	19	0.783669734316	0.0320450666341	0.617218502485	-0.81298828125	0.00244140625	0.26953125	68.8125	16.875	-55.5
18	12	12	16	59	19	0.782093298828	0.0380273257761	0.617165796023	-0.76171875	0.05517578125	0.28955078125	79.25	11.8125	-53.0625
18	12	12	16	59	19	0.78079930302	0.0457175326737	0.616179562538	-0.7197265625	0.10791015625	0.27880859375	86.375	7.6875	-50.9375
18	12	12	16	59	19	0.779559400152	0.0538953139942	0.614699555194	-0.6806640625	0.10498046875	0.296875	87.0625	7.0	-46.5
18	12	12	16	59	19	0.778590978443	0.0621359059309	0.612508660134	-0.65185546875	0.08984375	0.30908203125	85.4375	4.5625	-42.625
18	12	12	16	59	19	0.778039386749	0.0711081733398	0.609455030728	-0.6328125	0.138671875	0.33935546875	85.125	1.9375	-38.4375
18	12	12	16	59	19	0.777676636761	0.080264090522	0.605978624108	-0.61865234375	0.1806640625	0.36181640625	81.625	1.6875	-35.3125
18	12	12	16	59	19	0.777314339662	0.0889928784631	0.602563577632	-0.62646484375	0.28955078125	0.3857421875	72.0625	3.375	-37.125
18	12	12	16	59	19	0.776462304845	0.0954631746543	0.600307111717	-0.6689453125	0.3525390625	0.4228515625	53.5625	10.875	-42.3125
18	12	12	16	59	19	0.774816231792	0.0991256940625	0.599820317458	-0.7099609375	0.35205078125	0.443359375	34.125	20.25	-46.9375
18	12	12	16	59	19	0.772852017048	0.0999788030267	0.600727337844	-0.73046875	0.33154296875	0.48193359375	13.375	28.375	-47.5
18	12	12	16	59	19	0.770603121949	0.098148896641	0.603237279542	-0.74755859375	0.314453125	0.53564453125	-9.5625	38.625	-44.6875
18	12	12	16	59	19	0.767547928433	0.0940589548879	0.608056657101	-0.79833984375	0.30810546875	0.5322265625	-33.1875	50.4375	-41.0
18	12	12	16	59	19	0.764426923707	0.0872828569867	0.614459105794	-0.8662109375	0.2998046875	0.53125	-60.4375	57.125	-33.3125
18	12	12	16	59	19	0.760899512196	0.0784338098164	0.622282249867	-0.98779296875	0.216796875	0.494140625	-80.4375	60.5	-23.25
18	12	12	16	59	19	0.757425293881	0.0687902575715	0.629977150306	-1.234375	0.01171875	0.43212890625	-83.5	53.5	-11.0625
18	12	12	16	59	19	0.754855789939	0.0624417783705	0.635526682691	-1.35888671875	-0.08984375	0.43212890625	-60.5	42.875	2.0
18	12	12	16	59	19	0.752764941797	0.0620132312386	0.639114708956	-1.41455078125	-0.0830078125	0.41015625	-22.625	35.25	12.0625
18	12	12	16	59	20	0.751185836126	0.0661644142651	0.641318727567	-1.453125	0.0087890625	0.40087890625	1.25	30.75	18.5625
18	12	12	16	59	20	0.74976262146	0.0722052410605	0.643194277511	-1.48388671875	0.1103515625	0.3564453125	7.3125	27.4375	22.375
18	12	12	16	59	20	0.749121441903	0.076786015963	0.644685135613	-1.4560546875	0.123046875	0.357421875	-6.25	23.4375	27.625
18	12	12	16	59	20	0.749660547825	0.0793485354318	0.64546981707	-1.37255859375	0.056640625	0.33740234375	-24.0	16.125	38.9375
18	12	12	16	59	20	0.751675744621	0.0812407970841	0.644982346196	-1.244140625	-0.00732421875	0.3037109375	-35.625	4.5	56.6875
18	12	12	16	59	20	0.755871898562	0.0825208984864	0.642344626976	-1.0556640625	-0.02783203125	0.259765625	-50.5625	-12.875	75.9375
18	12	12	16	59	20	0.7620469222	0.0833765395055	0.637531445926	-0.9658203125	0.0205078125	0.19677734375	-67.625	-32.0	93.4375
18	12	12	16	59	20	0.770891623435	0.0839252559163	0.628981645249	-0.95556640625	0.01953125	0.16552734375	-76.25	-59.8125	104.0
18	12	12	16	59	20	0.782126927613	0.08447507943	0.616350687922	-0.96435546875	0.01611328125	0.13916015625	-70.625	-87.9375	101.0625
18	12	12	16	59	20	0.794474691017	0.0883834782263	0.600555968417	-0.986328125	-0.01171875	0.16650390625	-45.9375	-107.125	103.1875
18	12	12	16	59	20	0.806546759556	0.0972934414055	0.583089238235	-0.9765625	0.0068359375	0.17236328125	-9.125	-115.5625	104.1875
18	12	12	16	59	20	0.817542536226	0.111699480461	0.564906388888	-0.978515625	0.06787109375	0.15283203125	27.0625	-117.875	107.5
18	12	12	16	59	20	0.828105796069	0.127447844195	0.545681861639	-0.97607421875	0.21044921875	0.17626953125	34.0	-122.25	109.5
18	12	12	16	59	20	0.838289526797	0.141485009692	0.525899414802	-0.94873046875	0.33984375	0.2080078125	21.6875	-122.3125	108.6875
18	12	12	16	59	20	0.848071804534	0.152596769205	0.506010886684	-0.91796875	0.32568359375	0.25146484375	5.4375	-120.75	104.875
18	12	12	16	59	20	0.85716299361	0.162972669155	0.486110238632	-0.8505859375	0.3125	0.2724609375	5.1875	-118.5625	99.625
18	12	12	16	59	20	0.864930783364	0.173169275399	0.467318989233	-0.7783203125	0.333984375	0.27099609375	7.6875	-110.5	94.375
18	12	12	16	59	20	0.871440218935	0.182992069508	0.449850417703	-0.70556640625	0.314453125	0.26806640625	9.75	-100.9375	89.1875
18	12	12	16	59	20	0.876568855223	0.192697435829	0.434225390715	-0.63720703125	0.2724609375	0.3095703125	13.875	-95.0625	84.625
18	12	12	16	59	20	0.880587576732	0.202888549599	0.41987675472	-0.626953125	0.3037109375	0.38525390625	22.25	-84.4375	79.0625
18	12	12	16	59	20	0.883598707618	0.213147740191	0.407068235777	-0.63037109375	0.33935546875	0.451171875	28.3125	-74.1875	70.9375
18	12	12	16	59	20	0.885723142091	0.222178501634	0.396136943848	-0.59912109375	0.49462890625	0.52880859375	20.875	-57.8125	60.0625
18	12	12	16	59	20	0.886899041239	0.227004647926	0.389246743701	-0.61767578125	0.59423828125	0.5166015625	-1.4375	-35.4375	42.5625
18	12	12	16	59	20	0.888447786576	0.225041700268	0.3854457112	-0.67822265625	0.580078125	0.4833984375	-33.875	-22.0	23.125
18	12	12	16	59	20	0.890634850821	0.217714810367	0.383427092438	-0.72216796875	0.505859375	0.49072265625	-55.8125	-14.5625	7.5
18	12	12	16	59	20	0.892825724617	0.208328037063	0.382901194402	-0.755859375	0.40087890625	0.45361328125	-58.75	-11.3125	-3.375
18	12	12	16	59	20	0.894880788303	0.19770267194	0.383319783817	-0.72802734375	0.31884765625	0.42138671875	-60.75	-6.6875	-9.8125
18	12	12	16	59	20	0.896245594889	0.18665933591	0.385404528102	-0.7099609375	0.26220703125	0.3974609375	-58.5	2.3125	-14.0
18	12	12	16	59	20	0.897093547439	0.17524362623	0.388758848992	-0.6904296875	0.21728515625	0.36083984375	-57.125	8.9375	-19.5
18	12	12	16	59	20	0.897717721693	0.162305801454	0.393037629019	-0.68603515625	0.21044921875	0.373046875	-62.75	15.75	-26.8125
18	12	12	16	59	20	0.897317936137	0.147955831385	0.399737103854	-0.783203125	0.2841796875	0.380859375	-70.8125	27.375	-35.3125
18	12	12	16	59	20	0.89615032364	0.130803033889	0.408706073225	-0.88818359375	0.29052734375	0.3759765625	-82.0625	38.0625	-48.5625
18	12	12	16	59	20	0.89408899578	0.11029620531	0.419882455077	-0.99951171875	0.21923828125	0.39306640625	-91.9375	49.75	-59.8125
18	12	12	16	59	20	0.890761724867	0.0899124251853	0.432776031612	-1.13134765625	0.12744140625	0.45556640625	-80.5625	59.8125	-64.625
18	12	12	16	59	20	0.885663125288	0.0723912106542	0.447958764748	-1.2666015625	0.08984375	0.44677734375	-57.0	68.75	-70.125
18	12	12	16	59	20	0.878989885994	0.0574355588307	0.464916739228	-1.39306640625	0.03125	0.44189453125	-35.0625	77.6875	-72.9375
18	12	12	16	59	20	0.871100067889	0.0453526277375	0.482764377894	-1.43896484375	-0.06787109375	0.41796875	-12.4375	84.0	-70.625
18	12	12	16	59	20	0.862762374306	0.0361951247233	0.500017642046	-1.3818359375	-0.10302734375	0.42333984375	5.4375	86.875	-68.375
18	12	12	16	59	20	0.854106859415	0.0291151984522	0.516565879456	-1.28173828125	-0.10693359375	0.419921875	15.8125	90.5	-66.9375
18	12	12	16	59	20	0.845076583374	0.0226452446682	0.532621037668	-1.1591796875	-0.080078125	0.41162109375	16.625	96.0	-68.5
18	12	12	16	59	20	0.835805663393	0.0156259585064	0.548007247933	-1.015625	-0.083984375	0.3603515625	5.375	101.4375	-72.375
18	12	12	16	59	20	0.82631933843	0.00537125881089	0.562822471536	-0.9033203125	-0.1328125	0.33837890625	-14.9375	101.4375	-75.25
18	12	12	16	59	20	0.816204043326	-0.00830120773948	0.577605359108	-0.90869140625	-0.2177734375	0.25537109375	-27.375	99.5625	-72.875
18	12	12	16	59	20	0.80657517474	-0.0214248438273	0.590739710998	-0.9638671875	-0.326171875	0.19482421875	-25.75	87.125	-63.25
18	12	12	16	59	20	0.798076483759	-0.031862020996	0.601655059305	-1.02880859375	-0.39111328125	0.2001953125	-7.25	74.3125	-59.875
18	12	12	16	59	20	0.790542485614	-0.0377204490511	0.610851543856	-1.08349609375	-0.39453125	0.234375	23.6875	66.6875	-60.8125
18	12	12	16	59	20	0.783790162343	-0.0385760752746	0.61862108055	-1.11181640625	-0.3369140625	0.26025390625	56.3125	61.6875	-63.5
18	12	12	16	59	20	0.777843493158	-0.0358892007201	0.624826101653	-1.10791015625	-0.2392578125	0.28564453125	75.875	56.3125	-66.9375
18	12	12	16	59	20	0.772632420826	-0.0320455064729	0.629495825247	-1.0419921875	-0.171875	0.296875	80.9375	49.6875	-69.25
18	12	12	16	59	20	0.767998731542	-0.0285664764236	0.632979402805	-0.96044921875	-0.1171875	0.30419921875	74.25	44.3125	-69.0
18	12	12	16	59	20	0.763637093254	-0.0254525352	0.635825081962	-0.8828125	-0.07080078125	0.3115234375	66.625	42.125	-67.125
18	12	12	16	59	21	0.759168379071	-0.0228275425127	0.638560828255	-0.79150390625	-0.05810546875	0.30224609375	59.6875	42.3125	-64.25
18	12	12	16	59	21	0.754669150462	-0.0206307160188	0.641200212359	-0.6943359375	-0.0556640625	0.2919921875	52.6875	42.4375	-59.5
18	12	12	16	59	21	0.750212090462	-0.0186164419161	0.643823702725	-0.58984375	-0.07080078125	0.2685546875	46.8125	41.5	-51.75
18	12	12	16	59	21	0.746310827805	-0.0158698630268	0.646086538997	-0.552734375	-0.0400390625	0.26708984375	41.625	39.3125	-40.9375
18	12	12	16	59	21	0.743078126142	-0.0122686629994	0.64804176649	-0.5888671875	0.009765625	0.27197265625	35.75	35.9375	-30.9375
18	12	12	16	59	21	0.740586581864	-0.00811819132843	0.649699462405	-0.685546875	0.1171875	0.28173828125	27.875	32.25	-26.75
18	12	12	16	59	21	0.738354620259	-0.00549325583395	0.651683250435	-0.84375	0.21533203125	0.3017578125	9.9375	30.6875	-29.5625
18	12	12	16	59	21	0.736295611225	-0.00604271454127	0.654261183514	-0.966796875	0.26513671875	0.33984375	-16.875	31.1875	-34.0625
18	12	12	16	59	21	0.73459357917	-0.0117803540324	0.657014149247	-1.00634765625	0.17333984375	0.41748046875	-49.3125	30.625	-36.9375
18	12	12	16	59	21	0.733480994954	-0.0200811556412	0.65932110406	-0.9873046875	0.04150390625	0.50439453125	-65.1875	30.5	-31.3125
18	12	12	16	59	21	0.732393038125	-0.0261241953761	0.661467068435	-1.0478515625	-0.01806640625	0.56201171875	-54.875	35.5	-21.25
18	12	12	16	59	21	0.73072916671	-0.0288702719557	0.664260401045	-1.14990234375	0.021484375	0.5791015625	-41.875	44.875	-14.5
18	12	12	16	59	21	0.727749389054	-0.0303966447831	0.668909297546	-1.234375	0.1083984375	0.53955078125	-45.75	55.9375	-9.75
18	12	12	16	59	21	0.724068013163	-0.0343021346537	0.674873136773	-1.27880859375	0.14794921875	0.50244140625	-70.9375	60.125	-6.1875
18	12	12	16	59	21	0.71663587613	-0.0455336311722	0.684652467639	-1.34033203125	0.2080078125	0.45654296875	-109.0625	64.0625	-1.5625
18	12	12	16	59	21	0.708593444414	-0.0591460976516	0.694859830408	-1.5634765625	0.14306640625	0.3564453125	-135.3125	64.1875	5.875
18	12	12	16	59	21	0.701885549672	-0.0720868626979	0.703045287514	-1.6337890625	-0.0419921875	0.294921875	-135.5625	50.1875	17.375
18	12	12	16	59	21	0.697406426143	-0.0803244229656	0.708515122937	-1.568359375	-0.1005859375	0.29248046875	-106.75	34.3125	30.3125
18	12	12	16	59	21	0.697640856829	-0.0808726277601	0.709542866197	-1.56884765625	-0.0576171875	0.21630859375	-64.5625	13.5625	38.3125
18	12	12	16	59	21	0.700517170539	-0.0776996042603	0.707902600323	-1.53955078125	-0.0947265625	0.0693359375	-33.6875	-16.4375	46.5625
18	12	12	16	59	21	0.709050300759	-0.0745854753833	0.70020014206	-1.38427734375	-0.43994140625	0.04931640625	-16.4375	-65.6875	60.8125
18	12	12	16	59	21	0.723190999171	-0.0643962275595	0.687055864844	-1.09228515625	-0.53662109375	0.142578125	13.4375	-110.375	82.375
18	12	12	16	59	21	0.740861243507	-0.0466929355151	0.669753701187	-0.81689453125	-0.44873046875	0.1982421875	47.6875	-140.0	109.5625
18	12	12	16	59	21	0.759026186812	-0.0245378791394	0.650558994696	-0.67236328125	-0.19140625	0.21826171875	54.0625	-150.0625	136.6875
18	12	12	16	59	21	0.775442715231	-0.00598184714205	0.631267991256	-0.63818359375	0.08154296875	0.23486328125	10.8125	-145.5625	150.625
18	12	12	16	59	21	0.78996025152	0.00299088644139	0.61184991201	-0.62109375	0.26416015625	0.220703125	-61.5625	-139.375	149.3125
18	12	12	16	59	21	0.803084976918	0.00134284939517	0.591464119961	-0.603515625	0.314453125	0.2529296875	-127.125	-136.875	133.75
18	12	12	16	59	21	0.815267325739	-0.00775166207748	0.569289387375	-0.60302734375	0.34130859375	0.31494140625	-166.0625	-138.0	114.0
18	12	12	16	59	21	0.82651140846	-0.0192879111641	0.545738018096	-0.658203125	0.37353515625	0.384765625	-170.4375	-140.0	94.25
18	12	12	16	59	21	0.836843168807	-0.0286882778511	0.522004579113	-0.7314453125	0.3427734375	0.48779296875	-144.1875	-138.5625	78.125
18	12	12	16	59	21	0.846290082045	-0.0313734657174	0.500144315346	-0.75927734375	0.3095703125	0.51611328125	-88.125	-132.5	64.3125
18	12	12	16	59	21	0.854612953789	-0.026979424725	0.481478964323	-0.7373046875	0.36083984375	0.51318359375	-32.5625	-120.75	54.75
18	12	12	16	59	21	0.860340506246	-0.0164804495698	0.46767853557	-0.6943359375	0.4755859375	0.44580078125	-2.5	-98.5	47.3125
18	12	12	16	59	21	0.863373832989	-0.00970494446414	0.457658324479	-0.6767578125	0.56298828125	0.3935546875	-22.875	-72.0625	40.4375
18	12	12	16	59	21	0.864367743445	-0.012390837647	0.449305201574	-0.66845703125	0.58544921875	0.37890625	-77.4375	-49.0625	33.1875
18	12	12	16	59	21	0.865044877545	-0.0282000235271	0.439725042184	-0.6962890625	0.57763671875	0.35498046875	-133.125	-32.8125	23.375
18	12	12	16	59	21	0.865026317171	-0.0526755370956	0.428606745637	-0.77587890625	0.5283203125	0.30029296875	-180.9375	-28.3125	8.375
18	12	12	16	59	21	0.864272206132	-0.0824598693845	0.415961517287	-0.8798828125	0.41015625	0.31494140625	-207.6875	-27.8125	-4.625
18	12	12	16	59	21	0.862505818561	-0.113832945412	0.402901486683	-0.9306640625	0.251953125	0.3095703125	-211.625	-24.5	-13.3125
18	12	12	16	59	21	0.860278871384	-0.141853845402	0.390769500114	-0.9833984375	0.12451171875	0.2998046875	-186.4375	-23.75	-17.0625
18	12	12	16	59	21	0.858365585392	-0.16333544098	0.380139434389	-0.986328125	0.03564453125	0.2919921875	-144.6875	-26.0	-13.75
18	12	12	16	59	21	0.856883865232	-0.179628835058	0.370549323016	-0.96728515625	0.0068359375	0.279296875	-113.5	-29.4375	-10.0
18	12	12	16	59	21	0.854499467643	-0.193055844011	0.364566094302	-0.9453125	-0.0537109375	0.3017578125	-90.5625	-34.125	-6.75
18	12	12	16	59	21	0.853114093282	-0.203558381705	0.358531314584	-0.91650390625	-0.13671875	0.330078125	-68.625	-37.5625	-6.5
18	12	12	16	59	21	0.8525736857	-0.21161748055	0.352248191593	-0.8994140625	-0.2353515625	0.3857421875	-50.9375	-40.25	-3.3125
18	12	12	16	59	21	0.851792691928	-0.2167478215	0.347492353647	-0.8544921875	-0.2138671875	0.482421875	-37.25	-32.1875	6.375
18	12	12	16	59	21	0.84909289397	-0.221322035334	0.347120357128	-0.89990234375	-0.078125	0.48876953125	-36.375	-9.8125	11.5
18	12	12	16	59	21	0.842549480793	-0.232122259885	0.35199817848	-1.16357421875	0.0439453125	0.36669921875	-65.9375	18.375	2.375
18	12	12	16	59	21	0.834865844784	-0.250740524227	0.352672528963	-1.37451171875	-0.09912109375	0.19482421875	-108.6875	35.5625	0.125
18	12	12	16	59	22	0.82477899858	-0.272159369102	0.352970987108	-1.3935546875	-0.48388671875	0.20263671875	-127.6875	40.375	15.625
18	12	12	16	59	22	0.81328316514	-0.29323118623	0.357810410841	-1.26708984375	-0.76416015625	0.2646484375	-90.75	44.5625	34.0625
18	12	12	16	59	22	0.804637396829	-0.302433308146	0.369756000151	-1.21923828125	-0.7841796875	0.18701171875	-5.0	56.25	42.625
18	12	12	16	59	22	0.797998393445	-0.30182821291	0.389965713303	-1.193359375	-0.58154296875	0.00830078125	66.6875	73.6875	36.75
18	12	12	16	59	22	0.790347396021	-0.299927956139	0.414735543746	-1.259765625	-0.3779296875	-0.18310546875	81.875	90.125	22.125
18	12	12	16	59	22	0.781100922797	-0.30109954303	0.438434627526	-1.28271484375	-0.3271484375	-0.16943359375	59.5625	98.375	15.3125
18	12	12	16	59	22	0.773834941946	-0.30146480346	0.456073094039	-1.166015625	-0.3369140625	-0.03466796875	39.75	101.875	12.0
18	12	12	16	59	22	0.766043467449	-0.302632949132	0.473726163416	-1.19775390625	-0.36376953125	0.00634765625	37.0625	107.0625	8.0625
18	12	12	16	59	22	0.759300749491	-0.302682670155	0.490432598245	-1.2021484375	-0.33154296875	0.02587890625	45.8125	101.5625	0.9375
18	12	12	16	59	22	0.751917716252	-0.303355065328	0.50801291926	-1.19384765625	-0.27490234375	0.08203125	51.9375	98.625	-4.3125
18	12	12	16	59	22	0.745909667808	-0.303405364428	0.523741989973	-1.150390625	-0.306640625	0.1259765625	57.125	94.0625	-10.6875
18	12	12	16	59	22	0.741619494284	-0.302324391373	0.537262122525	-1.0322265625	-0.32470703125	0.212890625	62.25	88.9375	-14.0
18	12	12	16	59	22	0.738722598628	-0.299871447332	0.549448965781	-0.9482421875	-0.35205078125	0.275390625	70.875	86.375	-16.0625
18	12	12	16	59	22	0.737289630788	-0.295184423751	0.560703911617	-0.86328125	-0.32861328125	0.30224609375	84.0625	80.875	-18.4375
18	12	12	16	59	22	0.736926850996	-0.288349411422	0.571327368949	-0.80419921875	-0.26123046875	0.30029296875	95.625	74.9375	-21.8125
18	12	12	16	59	22	0.736493477695	-0.280473025858	0.581943379442	-0.76953125	-0.203125	0.31591796875	101.1875	67.5	-26.9375
18	12	12	16	59	22	0.737575357475	-0.272043476354	0.590292227916	-0.7421875	-0.1640625	0.33203125	104.625	53.5625	-33.4375
18	12	12	16	59	22	0.741950408941	-0.260317414786	0.595891892275	-0.73974609375	-0.18115234375	0.34619140625	128.5625	31.5	-39.3125
18	12	12	16	59	22	0.7517330376	-0.242744583512	0.597065002744	-0.732421875	-0.1611328125	0.390625	170.5	-5.125	-47.875
18	12	12	16	59	22	0.765706236672	-0.219549249367	0.594070849066	-0.68017578125	-0.00537109375	0.47705078125	209.3125	-35.625	-56.625
18	12	12	16	59	22	0.7789017202	-0.195686773369	0.589868052975	-0.64697265625	0.203125	0.5869140625	211.5	-36.1875	-60.75
18	12	12	16	59	22	0.788355567487	-0.17560382221	0.586688890886	-0.62890625	0.37060546875	0.60302734375	180.6875	-20.0	-61.4375
18	12	12	16	59	22	0.795566427097	-0.161505966403	0.582117309746	-0.68408203125	0.44189453125	0.537109375	96.0	-13.75	-55.375
18	12	12	16	59	22	0.800566359229	-0.159185503574	0.576131889659	-0.751953125	0.2529296875	0.6962890625	10.25	-10.5	-42.0625
18	12	12	16	59	22	0.803911645123	-0.15857280799	0.571911936437	-0.8115234375	0.04150390625	0.68896484375	7.3125	1.375	-36.0
18	12	12	16	59	22	0.806846433121	-0.152225962948	0.569901289511	-0.884765625	0.04541015625	0.59912109375	42.5625	6.125	-27.1875
18	12	12	16	59	22	0.808910981091	-0.14276335809	0.569710638912	-0.93310546875	0.1279296875	0.57373046875	53.0	12.75	-16.8125
18	12	12	16	59	22	0.808961243722	-0.132517532643	0.572248672746	-1.10107421875	0.21435546875	0.5673828125	45.875	26.3125	-7.6875
18	12	12	16	59	22	0.806917025161	-0.124150471193	0.577049436904	-1.173828125	0.1640625	0.541015625	32.1875	39.8125	-1.0625
18	12	12	16	59	22	0.803685007291	-0.115666673412	0.583277430673	-1.29052734375	0.15478515625	0.57421875	26.6875	49.9375	9.6875
18	12	12	16	59	22	0.799630406939	-0.104493340713	0.590887868833	-1.41943359375	0.14208984375	0.57275390625	39.0	57.3125	21.5625
18	12	12	16	59	22	0.794635024834	-0.0889302735374	0.600111495827	-1.5458984375	0.150390625	0.52001953125	62.875	63.8125	34.6875
18	12	12	16	59	22	0.789383370358	-0.0706801162047	0.609448152248	-1.52783203125	0.080078125	0.43310546875	82.3125	62.0	47.3125
18	12	12	16	59	22	0.785347022161	-0.0516362462694	0.616522131876	-1.33935546875	0.08740234375	0.392578125	81.0625	48.5	60.0
18	12	12	16	59	22	0.783097535953	-0.0326544958484	0.62049645756	-1.181640625	0.12451171875	0.34619140625	66.9375	27.0625	78.4375
18	12	12	16	59	22	0.783783551259	-0.0156866577894	0.619897651786	-0.93896484375	0.07177734375	0.34326171875	46.3125	-0.75	92.875
18	12	12	16	59	22	0.786666265237	0.0	0.615696975283	-0.75048828125	0.0869140625	0.3359375	29.375	-30.75	105.25
18	12	12	16	59	22	0.791373169522	0.01434421094	0.608072465467	-0.6279296875	0.18701171875	0.34765625	6.0	-51.8125	118.875
18	12	12	16	59	22	0.796185203954	0.0276504061171	0.599092132537	-0.65869140625	0.36962890625	0.3447265625	-9.0625	-58.25	125.5625
18	12	12	16	59	22	0.801147332918	0.0366849178731	0.588789879873	-0.767578125	0.42529296875	0.29541015625	-36.625	-64.3125	119.9375
18	12	12	16	59	22	0.807238931674	0.0424220081296	0.575901649932	-0.8271484375	0.3603515625	0.369140625	-55.0625	-77.6875	113.75
18	12	12	16	59	22	0.814065865137	0.0500512866021	0.561184791487	-0.759765625	0.2431640625	0.44189453125	-38.875	-89.0	110.625
18	12	12	16	59	22	0.820271385514	0.0623794446012	0.546705171519	-0.7041015625	0.22607421875	0.4423828125	-4.0	-91.375	109.625
18	12	12	16	59	22	0.825092720517	0.0795306861099	0.533459859248	-0.73828125	0.267578125	0.3408203125	28.625	-88.8125	111.0625
18	12	12	16	59	22	0.829209212656	0.0977227787606	0.520353959359	-0.7890625	0.34521484375	0.228515625	37.0625	-89.875	108.625
18	12	12	16	59	22	0.833546410415	0.113166010904	0.505950951664	-0.7734375	0.3564453125	0.2041015625	20.0	-93.9375	105.25
18	12	12	16	59	22	0.837916032675	0.125247938451	0.490737536619	-0.701171875	0.3447265625	0.23583984375	0.3125	-93.1875	101.0625
18	12	12	16	59	22	0.841117432866	0.135140348067	0.476958753296	-0.6572265625	0.3564453125	0.2392578125	-12.125	-88.625	96.75
18	12	12	16	59	22	0.843244985397	0.141792117342	0.465051288002	-0.7177734375	0.38525390625	0.2255859375	-26.875	-76.75	90.6875
18	12	12	16	59	22	0.844809421922	0.14404668996	0.4552729917	-0.7685546875	0.36083984375	0.220703125	-42.0	-62.875	77.8125
18	12	12	16	59	23	0.845352519986	0.14355733769	0.448616680281	-0.84130859375	0.353515625	0.2451171875	-45.25	-45.3125	65.5
18	12	12	16	59	23	0.844506267554	0.140751044592	0.446423738139	-0.9599609375	0.40771484375	0.26416015625	-44.4375	-23.0625	47.8125
18	12	12	16	59	23	0.842080765431	0.135077177	0.449545146231	-1.12939453125	0.5107421875	0.298828125	-44.875	4.25	25.5
18	12	12	16	59	23	0.838005472586	0.124580753846	0.458647616069	-1.349609375	0.5947265625	0.3115234375	-53.0625	35.0625	-1.8125
18	12	12	16	59	23	0.833049105143	0.10809861996	0.472435527096	-1.5078125	0.525390625	0.26416015625	-62.8125	60.625	-32.1875
18	12	12	16	59	23	0.828281072641	0.0884435721634	0.48805714494	-1.4990234375	0.2587890625	0.259765625	-52.3125	73.9375	-55.625
18	12	12	16	59	23	0.823410611257	0.0716593074585	0.504606043237	-1.27734375	0.048828125	0.3369140625	-14.0	87.0	-70.75
18	12	12	16	59	23	0.816707259442	0.0625043522921	0.522680438162	-1.04296875	0.1083984375	0.3447265625	24.5	109.3125	-81.125
18	12	12	16	59	23	0.807965764296	0.0533475922033	0.54366934068	-0.927734375	0.0908203125	0.255859375	36.125	128.375	-92.3125
18	12	12	16	59	23	0.798491028597	0.0406508962732	0.56453474419	-0.86376953125	0.00390625	0.181640625	20.4375	134.8125	-102.375
18	12	12	16	59	23	0.788404184661	0.0237430694305	0.584238202027	-0.89453125	-0.0302734375	0.22021484375	-5.375	138.125	-107.0
18	12	12	16	59	23	0.776632966544	0.00372324826778	0.604203845946	-0.9736328125	-0.04931640625	0.17578125	-23.0625	148.1875	-110.5625
18	12	12	16	59	23	0.763336768551	-0.0206307234744	0.623438489844	-1.1015625	-0.1259765625	0.087890625	-52.0	153.6875	-111.375
18	12	12	16	59	23	0.750170036983	-0.0439481225897	0.640788042982	-1.24462890625	-0.443359375	-0.08251953125	-47.0	141.4375	-105.5
18	12	12	16	59	23	0.739415928211	-0.0603056741846	0.655366420769	-1.24658203125	-0.6611328125	-0.05712890625	-1.8125	116.9375	-99.3125
18	12	12	16	59	23	0.729040917968	-0.0656161241473	0.670688346168	-1.26708984375	-0.38525390625	-0.03369140625	69.375	112.875	-91.5625
18	12	12	16	59	23	0.719214507845	-0.0654941158379	0.68546031767	-1.30908203125	-0.0927734375	-0.10205078125	111.625	106.875	-98.4375
18	12	12	16	59	23	0.710860502829	-0.067753319435	0.697065682836	-1.42041015625	0.09375	0.0244140625	103.5	92.0625	-117.3125
18	12	12	16	59	23	0.704296371117	-0.0715954279678	0.705456058357	-1.470703125	0.14013671875	0.14404296875	106.625	76.5	-137.5625
18	12	12	16	59	23	0.69827127413	-0.0750763695088	0.71188268096	-1.42431640625	0.10888671875	0.224609375	115.0	68.8125	-144.9375
18	12	12	16	59	23	0.691750563357	-0.0778852659352	0.717264702198	-1.40576171875	0.17333984375	0.26171875	119.0	67.6875	-146.625
18	12	12	16	59	23	0.684325487385	-0.0813597819019	0.721923106029	-1.2783203125	0.134765625	0.22802734375	111.875	67.875	-146.0625
18	12	12	16	59	23	0.676157716651	-0.0861829478165	0.725902123499	-1.1435546875	0.04833984375	0.2060546875	96.8125	66.3125	-142.0
18	12	12	16	59	23	0.668464113481	-0.0914316327607	0.728523343546	-0.97802734375	-0.01220703125	0.1591796875	84.375	56.5	-132.4375
18	12	12	16	59	23	0.661841779008	-0.0965631001006	0.73002191985	-0.84619140625	-0.07421875	0.1259765625	66.25	44.6875	-112.75
18	12	12	16	59	23	0.658102577839	-0.0996736699695	0.729577083371	-0.7197265625	-0.1669921875	0.103515625	52.875	31.875	-86.6875
18	12	12	16	59	23	0.656147144915	-0.101138215732	0.728048664608	-0.599609375	-0.22119140625	0.07470703125	48.8125	17.0625	-62.3125
18	12	12	16	59	23	0.656393010584	-0.100100849671	0.725242863284	-0.50390625	-0.16943359375	0.0703125	51.0	3.1875	-42.1875
18	12	12	16	59	23	0.658413323216	-0.096561590556	0.721831460124	-0.43310546875	-0.099609375	0.0517578125	49.25	-8.0	-21.1875
18	12	12	16	59	23	0.66119896735	-0.0917365501641	0.718755565357	-0.40185546875	-0.01611328125	0.04443359375	39.75	-11.3125	-5.1875
18	12	12	16	59	23	0.664572629891	-0.0865506970229	0.71614903256	-0.3935546875	0.06396484375	0.05517578125	24.875	-12.8125	7.0
18	12	12	16	59	23	0.668296021317	-0.0820339622477	0.71413493921	-0.41455078125	0.119140625	0.1123046875	4.6875	-11.5	16.1875
18	12	12	16	59	23	0.671773920178	-0.0772118852467	0.71303497506	-0.45751953125	0.24560546875	0.18798828125	-8.125	-3.3125	18.875
18	12	12	16	59	23	0.674274854692	-0.0728170455008	0.71297226194	-0.60595703125	0.31982421875	0.22412109375	-16.1875	6.625	12.6875
18	12	12	16	59	23	0.676180361981	-0.0692782732306	0.713413618959	-0.77099609375	0.38330078125	0.248046875	-23.0625	11.9375	3.3125
18	12	12	16	59	23	0.677935413063	-0.0672014846297	0.713336740116	-0.86572265625	0.22412109375	0.3095703125	-22.0	13.9375	-1.625
18	12	12	16	59	23	0.679935417274	-0.0630496666108	0.712162158775	-0.89111328125	0.0966796875	0.388671875	3.125	17.9375	-2.0625
18	12	12	16	59	23	0.681165301814	-0.0520639787139	0.710767915736	-1.0380859375	0.11865234375	0.39306640625	55.0	29.3125	-3.375
18	12	12	16	59	23	0.680918466363	-0.036133357125	0.709849566493	-1.26171875	0.1962890625	0.3642578125	91.375	41.375	-9.625
18	12	12	16	59	23	0.679552673808	-0.0219131779302	0.709767222765	-1.52587890625	0.1796875	0.32666015625	79.9375	44.9375	-17.3125
18	12	12	16	59	23	0.678127787588	-0.0100101671615	0.710599793258	-1.68603515625	0.20849609375	0.33935546875	50.5625	46.9375	-12.625
18	12	12	16	59	23	0.676306060285	0.000183115359283	0.713356401313	-1.93310546875	0.15771484375	0.2021484375	17.5625	45.3125	6.5625
18	12	12	16	59	23	0.675642224291	0.00811820542332	0.716660525377	-2.25634765625	-0.09619140625	0.01708984375	-17.875	29.625	42.0
18	12	12	16	59	23	0.677701233835	0.013367249411	0.71768090673	-2.25439453125	-0.63623046875	-0.06201171875	-35.375	1.9375	85.0
18	12	12	16	59	23	0.685687607906	0.0278327887845	0.713276249421	-1.82373046875	-0.77099609375	-0.0908203125	-11.0625	-36.5625	141.8125
18	12	12	16	59	23	0.698966072441	0.0513344220525	0.702933655596	-1.46533203125	-0.41357421875	-0.1103515625	12.25	-74.375	196.625
18	12	12	16	59	23	0.715433140085	0.074955370363	0.688637205566	-1.2578125	-0.26123046875	-0.095703125	-21.0625	-101.0	235.4375
18	12	12	16	59	23	0.734401049925	0.0986363112267	0.669091116131	-1.18603515625	-0.23046875	-0.02685546875	-35.8125	-130.25	257.8125
18	12	12	16	59	23	0.754250520977	0.124396096281	0.644320506549	-1.1318359375	-0.04541015625	0.09814453125	-28.75	-153.4375	270.5625
18	12	12	16	59	23	0.772988090076	0.150337149862	0.616180888291	-1.0830078125	0.22900390625	0.21142578125	-32.125	-161.8125	276.8125
18	12	12	16	59	23	0.789903343451	0.172007389061	0.586338885495	-1.033203125	0.36669921875	0.2578125	-52.5625	-162.5	266.375
18	12	12	16	59	24	0.805459581395	0.186715736548	0.555569347519	-1.0009765625	0.39794921875	0.27978515625	-79.6875	-161.75	239.875
18	12	12	16	59	24	0.819498183022	0.196909067364	0.524683925313	-0.908203125	0.314453125	0.26416015625	-85.25	-160.25	208.8125
18	12	12	16	59	24	0.830782982273	0.208199305895	0.495381286028	-0.72998046875	0.15625	0.2392578125	-55.125	-153.0	182.1875
18	12	12	16	59	24	0.838120774627	0.224866137479	0.469264621319	-0.498046875	0.05615234375	0.2880859375	-1.75	-137.3125	164.875
18	12	12	16	59	24	0.840848264971	0.246346079952	0.448257088991	-0.28125	0.20263671875	0.3056640625	44.875	-110.0625	147.1875
18	12	12	16	59	24	0.839688106412	0.267525839238	0.434340376915	-0.27294921875	0.4482421875	0.25537109375	65.0625	-72.125	117.5625
18	12	12	16	59	24	0.836811648972	0.282965631264	0.426950947087	-0.494140625	0.58056640625	0.17041015625	41.5	-43.5	84.0
18	12	12	16	59	24	0.836298179427	0.287738823284	0.421780922549	-0.62744140625	0.54345703125	0.08447265625	-11.875	-35.8125	57.5
18	12	12	16	59	24	0.838549733331	0.283402708681	0.41701643457	-0.6455078125	0.41650390625	0.072265625	-57.125	-31.625	38.8125
18	12	12	16	59	24	0.841784496176	0.274918234412	0.413720202674	-0.64892578125	0.248046875	0.05712890625	-67.625	-26.0	24.0625
18	12	12	16	59	24	0.844448582737	0.266976371586	0.412427833289	-0.6552734375	0.13818359375	-0.00146484375	-54.0625	-23.25	12.8125
18	12	12	16	59	24	0.846283634322	0.261545284751	0.412429752406	-0.63623046875	0.07275390625	0.0068359375	-30.375	-21.125	6.9375
18	12	12	16	59	24	0.846943331661	0.259161241441	0.413583742817	-0.60009765625	0.10302734375	0.01708984375	-9.75	-17.0625	3.5
18	12	12	16	59	24	0.846743603671	0.257587803308	0.41641326876	-0.5830078125	0.13623046875	-0.0107421875	-2.5	-9.8125	-2.5625
18	12	12	16	59	24	0.846297379658	0.254652193864	0.42079871153	-0.64697265625	0.16162109375	-0.025390625	-7.125	-3.125	-9.25
18	12	12	16	59	24	0.846010040604	0.2491029564	0.426423242688	-0.70361328125	0.1806640625	0.0068359375	-17.375	4.125	-18.0
18	12	12	16	59	24	0.844982150834	0.240987468865	0.434973835646	-0.779296875	0.21337890625	0.064453125	-23.0	23.0	-28.6875
18	12	12	16	59	24	0.842052944593	0.230427681467	0.448769354741	-0.95556640625	0.26708984375	0.11962890625	-21.3125	50.6875	-45.5
18	12	12	16	59	24	0.83678998024	0.218155036062	0.468416828971	-1.22021484375	0.32861328125	0.19482421875	-8.875	78.125	-69.625
18	12	12	16	59	24	0.830491782615	0.208202812766	0.48879745665	-1.39697265625	0.41650390625	0.30419921875	17.4375	101.375	-104.375
18	12	12	16	59	24	0.820488760305	0.196363066649	0.516696723403	-1.576171875	0.63671875	0.375	41.4375	141.0	-155.375
18	12	12	16	59	24	0.806067212149	0.178719127455	0.552210364101	-1.88671875	0.72314453125	0.35400390625	50.8125	185.375	-219.0625
