19	01	29	08	49	51	0.19299474147	0.624394751816	-0.110474535756	0.23095703125	0.2607421875	0.43603515625	-45.5625	42.0625	66.625
19	01	29	08	49	51	0.212402392017	0.622985981413	-0.113342310912	0.3447265625	0.10693359375	0.3671875	-46.9375	46.125	82.25
19	01	29	08	49	51	0.233642300907	0.622374749831	-0.115600448777	0.18359375	0.0595703125	0.37158203125	-60.25	37.0625	104.0625
19	01	29	08	49	51	0.261174879264	0.61829902476	-0.11987554636	-0.06005859375	0.392578125	0.38134765625	-79.75	23.5625	138.125
19	01	29	08	49	51	0.295108573765	0.612434214925	-0.125917060533	-0.2705078125	0.78125	0.2568359375	-98.125	24.125	172.4375
19	01	29	08	49	51	0.328991923586	0.606407191248	-0.134648642566	-0.7724609375	1.45263671875	0.05712890625	-90.1875	21.4375	183.0
19	01	29	08	49	51	0.35692654	0.595203081067	-0.141171526508	-1.712890625	1.7939453125	-0.14794921875	-87.5	-18.125	155.1875
19	01	29	08	49	51	0.383793150151	0.579107730381	-0.15399333935	-1.95068359375	1.56298828125	-0.00830078125	-70.25	-58.125	172.3125
19	01	29	08	49	51	0.411810091786	0.565315706257	-0.172426783651	-1.39697265625	1.3408203125	-0.09765625	-49.125	-50.3125	208.1875
19	01	29	08	49	51	0.435492645599	0.559395949112	-0.182864185874	-1.833984375	1.37744140625	0.0234375	-43.6875	6.0625	172.3125
19	01	29	08	49	51	0.448063857546	0.563482568161	-0.175477944482	-1.6923828125	1.00439453125	0.18994140625	-59.8125	50.0	92.25
19	01	29	08	49	51	0.459898608837	0.567991566535	-0.162108919054	-1.32373046875	0.47607421875	0.2490234375	-65.8125	73.6875	68.3125
19	01	29	08	49	51	0.465645474516	0.575388633931	-0.150942621376	-1.07275390625	0.16064453125	0.01318359375	-36.125	67.25	47.75
19	01	29	08	49	51	0.465275285129	0.58270800828	-0.142823582212	-0.79736328125	-0.0927734375	-0.22265625	-15.1875	38.3125	21.5
19	01	29	08	49	52	0.457269140672	0.592216026687	-0.137022052964	-0.44091796875	-0.36328125	-0.58203125	9.5625	16.3125	-14.8125
19	01	29	08	49	52	0.437876405345	0.603895895523	-0.129946873011	-0.23779296875	-0.8984375	-0.86181640625	40.1875	-10.125	-64.0625
19	01	29	08	49	52	0.416013115931	0.605770272243	-0.126158907076	-0.1767578125	-0.98046875	-0.919921875	49.125	-57.3125	-115.8125
19	01	29	08	49	52	0.388049998571	0.601910834525	-0.122799087311	-0.21728515625	-0.6123046875	-0.68701171875	54.75	-108.125	-155.25
19	01	29	08	49	52	0.353749994114	0.592879130922	-0.113217087488	-0.185546875	-0.00732421875	-0.1943359375	39.25	-136.625	-221.25
19	01	29	08	49	52	0.306333047045	0.579463229458	-0.0999748019646	-0.82861328125	0.8857421875	-0.10986328125	51.75	-180.625	-305.25
19	01	29	08	49	52	0.249141614359	0.570791861217	-0.0791613605644	-1.734375	1.29296875	1.02294921875	68.625	-127.375	-369.625
19	01	29	08	49	52	0.203183021519	0.568656116398	-0.0620718332485	-2.84033203125	0.908203125	1.625	63.75	-59.3125	-283.375
19	01	29	08	49	52	0.172488111737	0.571908565808	-0.0680552882471	-2.16796875	0.99462890625	1.55126953125	129.4375	-17.625	-126.8125
19	01	29	08	49	52	0.156190629541	0.577398732106	-0.0806893365585	-1.18896484375	1.83935546875	0.94140625	117.5625	11.9375	-33.5625
19	01	29	08	49	52	0.151490227925	0.586978856548	-0.0812383132022	-0.03564453125	1.95849609375	0.44189453125	29.3125	61.5625	-18.375
19	01	29	08	49	52	0.15881522751	0.592596865446	-0.0832528709927	0.33203125	1.20654296875	0.4609375	-22.4375	81.9375	-40.4375
19	01	29	08	49	52	0.168333815557	0.594844585359	-0.0875848532722	0.27880859375	0.7724609375	0.6044921875	-10.0625	67.75	5.6875
19	01	29	08	49	52	0.188539930228	0.593146986713	-0.0969250272587	0.51220703125	0.61572265625	0.58447265625	-24.4375	53.5625	76.5625
19	01	29	08	49	52	0.214842960454	0.589292267949	-0.103149034991	0.85693359375	0.40869140625	0.6513671875	-54.3125	61.3125	96.5625
19	01	29	08	49	52	0.241639750359	0.590152752266	-0.105164256092	0.93408203125	0.1982421875	0.7685546875	-70.8125	63.1875	125.75
19	01	29	08	49	52	0.27661025594	0.587400066895	-0.114501509299	0.572265625	0.4228515625	0.66845703125	-71.5	46.0625	190.5625
19	01	29	08	49	52	0.318608933919	0.578684157564	-0.128298080287	0.0751953125	1.3349609375	0.4970703125	-90.125	15.75	234.0
19	01	29	08	49	52	0.359439956492	0.567266930827	-0.136781277381	-0.9765625	2.244140625	-0.0361328125	-112.125	4.25	230.4375
19	01	29	08	49	52	0.401081805161	0.547146142363	-0.136481344748	-3.92431640625	2.18017578125	-0.0322265625	-173.1875	-30.3125	201.9375
19	01	29	08	49	52	0.439093256728	0.520149115074	-0.155092572331	-2.5224609375	0.95361328125	0.00830078125	-99.75	-106.125	250.3125
19	01	29	08	49	52	0.466981776653	0.506654780813	-0.17804023559	-2.06298828125	0.7646484375	0.06005859375	-15.4375	-63.125	247.5625
19	01	29	08	49	52	0.490963099606	0.487362052505	-0.185728581813	-1.642578125	1.06689453125	-0.001953125	-94.0	-73.4375	163.125
19	01	29	08	49	52	0.502082732162	0.468634964447	-0.181521279534	-1.650390625	0.7607421875	-0.20751953125	-116.0	-83.4375	50.4375
19	01	29	08	49	52	0.50765085761	0.447955950944	-0.169806983993	-1.2392578125	0.1298828125	-0.23828125	-138.8125	-90.25	-8.75
19	01	29	08	49	52	0.492734967062	0.445432898504	-0.153380771984	-0.77783203125	-0.12646484375	0.28515625	-47.375	-22.0	-136.0625
19	01	29	08	49	52	0.454028290322	0.463366417546	-0.149776236652	-1.5556640625	-0.89892578125	-0.19970703125	121.625	14.25	-228.4375
19	01	29	08	49	52	0.426137919451	0.469471910114	-0.153805149959	-1.6923828125	0.00146484375	-0.48388671875	97.0	-39.4375	-144.375
19	01	29	08	49	52	0.406739473732	0.469300692306	-0.154968716057	-1.126953125	0.630859375	-0.41015625	37.4375	-62.8125	-101.3125
19	01	29	08	49	52	0.386784051634	0.461552942789	-0.153505111229	-0.919921875	0.900390625	-0.1572265625	5.625	-99.0625	-120.375
19	01	29	08	49	52	0.361814005715	0.45440372344	-0.15429585129	-0.6455078125	1.09326171875	0.3515625	33.125	-99.625	-144.0625
19	01	29	08	49	52	0.331736470672	0.454970313228	-0.161320973687	-0.35986328125	1.1044921875	0.6025390625	97.625	-64.5	-151.875
19	01	29	08	49	52	0.302976967084	0.459470307858	-0.171996191225	-0.25146484375	1.0029296875	0.798828125	126.0625	-36.125	-131.0625
19	01	29	08	49	52	0.281734216929	0.466057729738	-0.178952496541	0.0	1.24560546875	0.90234375	95.625	2.0625	-106.1875
19	01	29	08	49	52	0.263059554679	0.478389974379	-0.178160287728	0.27392578125	1.18994140625	0.96044921875	66.1875	56.125	-117.8125
19	01	29	08	49	52	0.245791383889	0.493291771689	-0.172670430847	0.26611328125	0.80322265625	1.02294921875	49.4375	81.4375	-119.875
19	01	29	08	49	52	0.244875083895	0.499882088011	-0.18072660105	0.27197265625	0.92578125	0.8837890625	59.375	87.5625	-36.875
19	01	29	08	49	52	0.260441251126	0.504158597212	-0.192141799519	0.34814453125	0.978515625	0.62255859375	19.9375	90.375	52.75
19	01	29	08	49	52	0.287101485673	0.507432345214	-0.188349316494	0.150390625	0.822265625	0.578125	-78.3125	87.875	111.75
19	01	29	08	49	52	0.324041237295	0.504891526634	-0.182559303211	0.080078125	0.51123046875	0.7109375	-122.3125	79.625	164.875
19	01	29	08	49	52	0.362799439949	0.498910266175	-0.185428112141	-0.08984375	0.78271484375	0.70068359375	-94.1875	56.0	206.3125
19	01	29	08	49	52	0.399585412891	0.495407789283	-0.197503955417	-0.87841796875	1.87255859375	0.19873046875	-50.625	48.75	231.6875
19	01	29	08	49	52	0.430838377484	0.482045828782	-0.197139532409	-2.20166015625	1.94921875	-0.0146484375	-111.375	3.625	167.25
19	01	29	08	49	52	0.452512546324	0.468686787594	-0.198485406076	-1.92431640625	1.01123046875	0.13134765625	-88.3125	-37.0625	137.1875
19	01	29	08	49	52	0.471193671513	0.463198027605	-0.20660499716	-1.69287109375	0.96484375	0.00927734375	-26.0	-8.9375	147.625
19	01	29	08	49	52	0.486136876434	0.460075301262	-0.209713284046	-1.69580078125	0.9677734375	-0.1181640625	-34.1875	4.6875	112.0625
19	01	29	08	49	52	0.490252506255	0.466447914941	-0.199104043253	-1.591796875	0.3642578125	-0.1845703125	-52.875	10.9375	63.5625
19	01	29	08	49	52	0.494868177221	0.465388486841	-0.200254377092	-1.3544921875	-0.5634765625	-0.52880859375	-7.5625	5.0625	31.0
19	01	29	08	49	52	0.485836986857	0.47680383685	-0.199156543733	-0.99853515625	-0.8154296875	-0.63330078125	46.9375	-11.1875	26.9375
19	01	29	08	49	52	0.474073136449	0.488233683334	-0.206914887674	-0.58203125	-0.43505859375	-0.61865234375	78.6875	-21.625	10.0625
19	01	29	08	49	52	0.449655901062	0.502940766221	-0.213017387635	-0.46142578125	-0.02197265625	-0.60009765625	97.375	-31.4375	-85.375
19	01	29	08	49	53	0.420835964732	0.497251719314	-0.216063715033	-0.5751953125	1.00244140625	-0.3623046875	43.6875	-132.625	-156.125
19	01	29	08	49	53	0.380425959189	0.488456433721	-0.21752576906	-0.74072265625	1.30322265625	0.3193359375	60.625	-170.0	-223.625
19	01	29	08	49	53	0.332705676423	0.484745639727	-0.223940034268	-0.76171875	0.85986328125	0.8310546875	128.4375	-150.4375	-233.9375
19	01	29	08	49	53	0.295529903599	0.486446371683	-0.24011041734	-0.59423828125	1.8251953125	1.02001953125	166.0	-89.0625	-152.8125
19	01	29	08	49	53	0.273797306083	0.487354322129	-0.248102106381	-0.35107421875	2.0966796875	1.14208984375	91.4375	-52.9375	-85.125
19	01	29	08	49	53	0.273498140858	0.475219041446	-0.258056268589	0.0947265625	1.66845703125	1.14404296875	26.875	-29.5625	-40.5
19	01	29	08	49	53	0.282226704962	0.465393301326	-0.267334119319	0.37646484375	1.2333984375	1.0322265625	16.5	8.875	10.5625
19	01	29	08	49	53	0.300839892437	0.457027615048	-0.276181885429	0.60546875	0.9482421875	0.94384765625	2.25	44.3125	62.0
19	01	29	08	49	53	0.32768800894	0.44957159133	-0.279105469339	0.798828125	0.5859375	0.87109375	-33.625	79.375	91.4375
19	01	29	08	49	53	0.355648412087	0.450801299412	-0.271481746518	0.90625	-0.0439453125	0.8935546875	-76.5	105.875	111.6875
19	01	29	08	49	53	0.391350924087	0.452812305958	-0.262019575344	0.751953125	-0.0595703125	0.8447265625	-95.3125	136.4375	152.0625
19	01	29	08	49	53	0.435670328921	0.448304646389	-0.25274738471	0.38818359375	0.84912109375	0.5400390625	-138.0625	123.0	205.0625
19	01	29	08	49	53	0.470642978758	0.440125342994	-0.239258264393	-0.2021484375	2.00927734375	-0.36767578125	-149.6875	80.875	155.5
19	01	29	08	49	53	0.487422758549	0.426632241705	-0.22546201729	-1.13623046875	1.6015625	-0.38427734375	-157.8125	-12.8125	53.875
19	01	29	08	49	53	0.511470508069	0.415279873139	-0.227598272624	-1.388671875	1.80029296875	-0.35205078125	-67.9375	3.6875	149.75
19	01	29	08	49	53	0.529681806192	0.408339627037	-0.224190052333	-2.56005859375	1.46240234375	-0.39013671875	-66.8125	25.0	99.9375
19	01	29	08	49	53	0.537478905703	0.398806174184	-0.2159437166	-1.912109375	1.26025390625	-0.10693359375	-83.5	-8.6875	18.125
19	01	29	08	49	53	0.536552972839	0.393244318508	-0.206906447267	-1.798828125	0.60546875	-0.00537109375	-59.8125	-10.75	-37.625
19	01	29	08	49	53	0.526119075059	0.39410102873	-0.200437939964	-1.625	-0.0146484375	-0.06005859375	-11.25	-9.3125	-86.1875
19	01	29	08	49	53	0.510622833562	0.399294116324	-0.196778390558	-1.79150390625	-0.625	-0.126953125	25.0	-5.875	-106.4375
19	01	29	08	49	53	0.48993123425	0.409730705808	-0.195801594553	-0.59228515625	-0.31884765625	-0.59423828125	59.8125	-6.125	-117.0
19	01	29	08	49	53	0.466008454181	0.41797326709	-0.196108076396	-0.90185546875	0.0234375	-0.99755859375	56.4375	-34.3125	-130.375
19	01	29	08	49	53	0.439015716269	0.421315930684	-0.195613147594	-1.0419921875	0.80517578125	-0.74169921875	38.375	-64.75	-154.8125
19	01	29	08	49	53	0.407293782926	0.422919020215	-0.192446770203	-1.05908203125	1.05224609375	-0.32568359375	33.0	-74.8125	-190.0625
19	01	29	08	49	53	0.377993051717	0.42523455374	-0.192078820241	-1.001953125	0.87158203125	0.02294921875	51.5	-62.8125	-164.3125
19	01	29	08	49	53	0.353513510658	0.430966660697	-0.198302036625	-0.49853515625	1.04541015625	0.2607421875	85.9375	-32.375	-122.375
19	01	29	08	49	53	0.33435675035	0.439400190903	-0.202213200787	-0.015625	1.00537109375	0.3916015625	74.4375	6.875	-103.5
19	01	29	08	49	53	0.326595243006	0.448297899436	-0.207578101563	-0.0068359375	0.87451171875	0.41064453125	51.875	46.625	-62.3125
19	01	29	08	49	53	0.329533212049	0.460882623483	-0.214724548988	-0.25537109375	1.0078125	0.18115234375	34.625	73.8125	6.125
19	01	29	08	49	53	0.343195125354	0.472221356013	-0.219600935626	-0.2412109375	1.021484375	-0.09375	-12.875	83.75	56.9375
19	01	29	08	49	53	0.364492656107	0.479052722334	-0.215509639771	-0.13134765625	0.36376953125	-0.341796875	-73.75	81.6875	93.1875
19	01	29	08	49	53	0.394032454428	0.47795355493	-0.208856731576	0.0224609375	0.00048828125	-0.32763671875	-101.625	75.75	138.4375
19	01	29	08	49	53	0.428520917433	0.474967921872	-0.207211011919	0.15234375	0.07763671875	-0.36865234375	-93.6875	75.125	183.6875
19	01	29	08	49	53	0.46526626434	0.470026958111	-0.206357764625	0.09619140625	0.63818359375	-0.39892578125	-103.5625	73.5625	199.6875
19	01	29	08	49	53	0.531319259288	0.449164667329	-0.201052916725	-1.2880859375	1.9580078125	-1.087890625	-137.5	19.625	161.625
19	01	29	08	49	53	0.557692606876	0.421885881441	-0.190068378878	-2.17041015625	1.3623046875	-0.74951171875	-194.125	-42.6875	109.0625
19	01	29	08	49	53	0.569903764079	0.410718906339	-0.191961801224	-1.70947265625	0.91015625	-0.546875	-53.6875	-27.875	76.875
19	01	29	08	49	53	0.579156699008	0.414607593673	-0.199277755534	-1.67431640625	1.298828125	-0.62939453125	33.1875	30.625	89.3125
19	01	29	08	49	53	0.586594466532	0.416005398386	-0.197810078663	-1.7646484375	1.17041015625	-0.83984375	-10.9375	35.1875	46.625
19	01	29	08	49	53	0.591357070971	0.413809571801	-0.192256659465	-1.8046875	0.4365234375	-0.88818359375	-38.5625	18.5	11.5
19	01	29	08	49	53	0.590101233348	0.414621191367	-0.192997527911	-1.57666015625	-0.28173828125	-1.10595703125	8.125	-1.875	-5.3125
19	01	29	08	49	53	0.584506127653	0.418864524808	-0.202871292505	-1.39794921875	-0.7421875	-1.23974609375	65.875	-21.8125	-0.375
19	01	29	08	49	53	0.575268268447	0.427499093072	-0.220524589273	-1.279296875	-0.44580078125	-1.30322265625	122.0625	-29.8125	7.375
19	01	29	08	49	53	0.562481991298	0.43351883509	-0.236686758057	-1.36279296875	0.26953125	-0.33740234375	103.1875	-64.375	-4.1875
19	01	29	08	49	53	0.548895258789	0.429448130862	-0.249575526875	-0.8251953125	1.2421875	-0.07080078125	45.125	-105.9375	-39.3125
19	01	29	08	49	53	0.532356004346	0.421209445768	-0.252628009859	-0.79345703125	1.30322265625	0.79248046875	1.1875	-110.0625	-94.5625
19	01	29	08	49	53	0.519040852453	0.412473904149	-0.254881773265	-0.41650390625	0.83837890625	1.28955078125	34.0	-83.0	-73.5
19	01	29	08	49	53	0.502876653534	0.418829906124	-0.268253779862	0.296875	1.2666015625	1.201171875	112.5625	-35.125	-62.6875
19	01	29	08	49	53	0.4945725518	0.419559634836	-0.281435769018	0.62353515625	1.58642578125	1.2001953125	89.625	1.375	-75.5
19	01	29	08	49	54	0.497857072391	0.409784526669	-0.283931727444	0.921875	1.1689453125	1.1376953125	-5.375	9.375	-49.5
19	01	29	08	49	54	0.50012583568	0.407168592851	-0.276857553166	0.3369140625	0.96484375	0.5068359375	-52.1875	29.4375	-50.75
19	01	29	08	49	54	0.498354632273	0.413393254671	-0.26025525438	1.15625	0.685546875	1.35546875	-52.1875	61.375	-67.0625
19	01	29	08	49	54	0.507016868982	0.406370327878	-0.241637147502	0.78466796875	0.29345703125	1.17626953125	-72.875	83.4375	-61.0625
19	01	29	08	49	54	0.519819889473	0.402453017634	-0.230034186148	0.416015625	0.06201171875	0.958984375	-37.75	81.625	16.3125
19	01	29	08	49	54	0.541016132892	0.39392126824	-0.233398656608	0.53662109375	1.05224609375	0.6748046875	-52.625	46.8125	91.0
19	01	29	08	49	54	0.561289154816	0.385687926194	-0.23883476107	0.47216796875	1.9287109375	0.49267578125	-86.75	34.25	83.5
19	01	29	08	49	54	0.571647558119	0.37450666417	-0.226864613872	-0.232421875	2.0751953125	0.31298828125	-126.8125	3.0625	18.25
19	01	29	08	49	54	0.581285543196	0.357352672765	-0.207880991193	-1.08935546875	1.4287109375	0.88134765625	-167.0625	-16.6875	4.3125
19	01	29	08	49	54	0.584896784331	0.357175830315	-0.204771857605	-0.53515625	0.9375	1.0947265625	-7.25	13.3125	24.375
19	01	29	08	49	54	0.585635795255	0.371523198095	-0.216431946845	-0.40771484375	1.31787109375	0.9443359375	97.0625	41.9375	46.5
19	01	29	08	49	54	0.581792184235	0.384646909888	-0.219484336394	-0.6494140625	1.44189453125	0.8701171875	53.8125	35.75	-1.5625
19	01	29	08	49	54	0.573120735282	0.395325133378	-0.205566627948	-1.1640625	0.90234375	0.71923828125	-7.75	31.0	-55.1875
19	01	29	08	49	54	0.568424321276	0.399050597284	-0.184205369012	-1.2275390625	-0.16845703125	0.4306640625	-42.0625	19.875	-31.9375
19	01	29	08	49	54	0.568596149682	0.399347853947	-0.167539333499	-1.0791015625	-0.83642578125	0.1494140625	-26.625	4.8125	21.75
19	01	29	08	49	54	0.568300102318	0.403199492634	-0.174866264971	-0.2763671875	-0.5244140625	-0.27587890625	55.0	-18.875	50.0625
19	01	29	08	49	54	0.561946107413	0.409725667325	-0.194639528244	-0.7880859375	-0.26220703125	-0.3955078125	116.1875	-46.3125	37.75
19	01	29	08	49	54	0.548159570617	0.417848838709	-0.212769654066	-0.9150390625	0.5068359375	-0.3037109375	93.25	-86.9375	10.625
19	01	29	08	49	54	0.535774607241	0.410772739432	-0.229434580613	-0.97802734375	1.5458984375	-0.21826171875	45.1875	-126.8125	-24.125
19	01	29	08	49	54	0.52465668155	0.391539391827	-0.22497493348	-0.94970703125	1.59033203125	0.92822265625	-82.5	-131.0625	-90.25
19	01	29	08	49	54	0.51298548795	0.377674503205	-0.209405497818	-0.91455078125	0.5302734375	1.2578125	-67.8125	-80.9375	-92.625
19	01	29	08	49	54	0.496029526382	0.384946256047	-0.218321350544	-0.29931640625	0.69677734375	1.62646484375	102.5	-20.25	-77.625
19	01	29	08	49	54	0.47703672104	0.402820158503	-0.236077026226	-0.09521484375	1.2763671875	1.42431640625	177.875	16.125	-64.3125
19	01	29	08	49	54	0.465814473272	0.410578349279	-0.24639583708	0.10546875	1.4384765625	1.06201171875	93.1875	24.8125	-77.625
19	01	29	08	49	54	0.465332612839	0.410278833094	-0.244446106299	0.54541015625	1.05322265625	0.82373046875	-6.5625	43.5625	-66.625
19	01	29	08	49	54	0.474977457997	0.403443972932	-0.235230419316	0.97265625	0.58837890625	0.88037109375	-59.6875	68.0625	-38.5625
19	01	29	08	49	54	0.487678735029	0.401251564967	-0.220828743847	0.703125	0.12548828125	0.41796875	-78.3125	91.625	-8.25
19	01	29	08	49	54	0.500914477691	0.403807747582	-0.205932185662	1.53173828125	0.154296875	0.41259765625	-79.1875	82.625	35.5625
19	01	29	08	49	54	0.51763523214	0.403561390745	-0.202146903531	0.68115234375	0.322265625	0.041015625	-55.125	82.1875	50.3125
19	01	29	08	49	54	0.54113725988	0.395629564464	-0.201293783339	0.79150390625	0.8603515625	0.16357421875	-96.0	61.8125	82.0
19	01	29	08	49	54	0.568401953596	0.389757851999	-0.187371845543	-0.32421875	1.17431640625	-0.0771484375	-134.3125	78.6875	128.75
19	01	29	08	49	54	0.603766608873	0.374088712675	-0.178773998927	-0.32568359375	1.74169921875	0.23681640625	-161.25	42.4375	197.0625
19	01	29	08	49	54	0.636182767159	0.35614760111	-0.175357679176	-1.1455078125	2.1005859375	-0.02294921875	-125.0625	16.375	204.4375
19	01	29	08	49	54	0.664369069189	0.334229216618	-0.174072630715	-1.80517578125	1.900390625	0.23876953125	-126.1875	-17.3125	184.875
19	01	29	08	49	54	0.685449224218	0.323558890256	-0.177130333809	-1.19873046875	1.57470703125	0.4609375	-66.375	-10.25	171.375
19	01	29	08	49	54	0.701894207897	0.325190638233	-0.181088705637	-1.11572265625	1.71630859375	0.5615234375	-3.625	32.125	154.375
19	01	29	08	49	54	0.715200485313	0.329219271017	-0.180234428497	-0.99560546875	1.73291015625	0.546875	-8.125	52.4375	119.75
19	01	29	08	49	54	0.724470181962	0.343436707152	-0.16662203848	-1.15234375	1.35693359375	0.51416015625	-30.9375	89.875	97.6875
19	01	29	08	49	54	0.736818001016	0.34942702583	-0.150207844641	-1.07470703125	0.76318359375	0.41357421875	-43.1875	117.125	75.75
19	01	29	08	49	54	0.749762325388	0.354495244697	-0.12848011193	-0.87255859375	0.2412109375	0.255859375	-60.6875	139.6875	66.9375
19	01	29	08	49	54	0.761889599961	0.359918526874	-0.107603249598	-0.67919921875	-0.09814453125	0.009765625	-52.9375	140.1875	68.6875
19	01	29	08	49	54	0.770230891566	0.365736072768	-0.0937534392143	-0.45703125	-0.2568359375	-0.32373046875	-25.625	104.625	58.875
19	01	29	08	49	54	0.773134975403	0.374635073737	-0.0847781227469	-0.33447265625	-0.30517578125	-0.5625	1.25	61.125	46.375
19	01	29	08	49	54	0.771851504619	0.384582977274	-0.0788575157337	-0.44970703125	-0.3310546875	-0.7509765625	13.625	29.6875	25.4375
19	01	29	08	49	54	0.770656173692	0.389783805259	-0.0740381703381	-0.41943359375	-0.12451171875	-0.4853515625	-3.9375	10.1875	11.625
19	01	29	08	49	54	0.769737549558	0.389721215917	-0.0684835088894	-0.33056640625	0.30224609375	-0.1455078125	-36.1875	0.3125	-15.5
19	01	29	08	49	54	0.767096480687	0.384219632871	-0.0592656494866	-0.173828125	0.68359375	0.224609375	-71.9375	-0.6875	-74.25
19	01	29	08	49	54	0.75816522038	0.382317415912	-0.0421135084578	-0.08544921875	0.99365234375	0.76611328125	-48.0625	34.4375	-139.375
19	01	29	08	49	54	0.744953504298	0.388926155624	-0.0245978092775	-0.734375	0.92578125	1.24560546875	3.25	59.5625	-143.125
19	01	29	08	49	54	0.731823043311	0.402594227997	-0.00762951463002	-1.37890625	0.92236328125	1.62353515625	39.9375	90.25	-109.0
19	01	29	08	49	55	0.721366925507	0.423823667884	-0.00140379383084	-1.6298828125	1.271484375	1.501953125	93.3125	97.375	-39.5625
19	01	29	08	49	55	0.717602840412	0.435676539497	0.0029907747878	-1.5361328125	1.7470703125	1.10107421875	44.5	65.9375	-4.4375
19	01	29	08	49	55	0.723707278003	0.432258998298	0.0107423868541	-0.974609375	1.61767578125	0.859375	-88.625	20.3125	9.375
19	01	29	08	49	55	0.736169889828	0.412733670095	0.0265511899573	-0.5029296875	0.966796875	0.716796875	-164.6875	10.0625	4.1875
19	01	29	08	49	55	0.74537763198	0.397469631465	0.0430307263794	-0.220703125	0.4775390625	0.70361328125	-136.25	29.75	-5.75
19	01	29	08	49	55	0.750397991688	0.393510318237	0.0545067029915	-0.10205078125	0.29345703125	0.6015625	-56.3125	63.75	3.6875
19	01	29	08	49	55	0.752811564449	0.39880580202	0.0642093210476	-0.07275390625	0.3564453125	0.48095703125	-13.9375	89.9375	13.8125
19	01	29	08	49	55	0.756785646567	0.403326038593	0.0740366956437	-0.0087890625	0.38134765625	0.35302734375	-27.4375	90.875	23.625
19	01	29	08	49	55	0.764264030154	0.400718261957	0.0840501213579	0.12353515625	0.310546875	0.2548828125	-67.5	72.3125	28.1875
19	01	29	08	49	55	0.774144637978	0.391741724083	0.0928387601013	0.23095703125	0.2705078125	0.2216796875	-97.0	49.1875	28.1875
19	01	29	08	49	55	0.783814664978	0.380554776214	0.102417147472	0.30859375	0.34130859375	0.14599609375	-105.5	30.25	31.5625
19	01	29	08	49	55	0.794914687987	0.366756937969	0.113341260411	0.37353515625	0.3662109375	0.0908203125	-125.9375	31.625	37.4375
19	01	29	08	49	55	0.806716754186	0.353949493646	0.124453012165	0.318359375	0.515625	0.12744140625	-127.0625	41.0625	53.375
19	01	29	08	49	55	0.818052449965	0.351500713225	0.126037328149	0.212890625	0.99951171875	0.16845703125	-97.4375	47.0625	70.5
19	01	29	08	49	55	0.826812301361	0.35670242796	0.125126621718	-0.01806640625	1.51611328125	0.05029296875	-80.9375	43.875	73.1875
19	01	29	08	49	55	0.838811367678	0.347109091755	0.130982259698	-0.384765625	1.640625	0.1767578125	-115.875	29.3125	84.5625
19	01	29	08	49	55	0.851272858672	0.339056480241	0.133303213834	-0.64111328125	1.51513671875	0.25927734375	-101.6875	18.1875	110.8125
19	01	29	08	49	55	0.860615308294	0.338813870663	0.133059671779	-0.76220703125	1.4169921875	0.37744140625	-49.8125	26.125	120.25
19	01	29	08	49	55	0.868379081477	0.34327433431	0.133671904719	-0.9404296875	1.52978515625	0.4873046875	-27.875	44.625	133.1875
19	01	29	08	49	55	0.877218139535	0.346321717487	0.137332369465	-0.97314453125	1.42529296875	0.56298828125	-44.0625	66.5625	155.0
19	01	29	08	49	55	0.887115984957	0.346081439019	0.143986969074	-0.95068359375	1.21923828125	0.57373046875	-68.5	83.9375	172.1875
19	01	29	08	49	55	0.896519665649	0.343824569485	0.153021160252	-0.86083984375	0.85546875	0.595703125	-78.1875	99.0	177.3125
