18	12	13	20	18	09	0.502831527197	0.583523840738	-0.224620055849	0.771484375	0.306640625	0.1865234375	-35.4375	46.0	-22.1875
18	12	13	20	18	09	0.50819424275	0.57887511389	-0.22034364837	0.728515625	0.33154296875	0.1865234375	-15.9375	40.125	-17.25
18	12	13	20	18	09	0.511440630647	0.575775088781	-0.215892768898	0.673828125	0.31787109375	0.1875	-3.5	33.4375	-12.0
18	12	13	20	18	09	0.513084208287	0.573877911767	-0.211923432212	0.64306640625	0.29052734375	0.18310546875	4.25	25.8125	-7.4375
18	12	13	20	18	09	0.513454786411	0.573211352732	-0.208446040846	0.6259765625	0.26904296875	0.18017578125	10.0	17.75	-5.5
18	12	13	20	18	09	0.513385646811	0.573507494642	-0.205329843761	0.62890625	0.2646484375	0.18505859375	12.5	10.375	-5.8125
18	12	13	20	18	09	0.513382084534	0.574296996003	-0.2033141985	0.6513671875	0.26171875	0.17822265625	8.875	3.8125	-6.875
18	12	13	20	18	09	0.513817436876	0.575160573496	-0.202462869817	0.67578125	0.2529296875	0.18212890625	2.8125	-2.5625	-8.25
18	12	13	20	18	09	0.514741936106	0.576025097953	-0.202893655356	0.6845703125	0.244140625	0.1806640625	-3.875	-8.25	-9.5
18	12	13	20	18	09	0.5162112333	0.577006596711	-0.204299278451	0.689453125	0.2509765625	0.1826171875	-9.9375	-14.0625	-10.625
18	12	13	20	18	09	0.518020918586	0.578081314944	-0.206732278927	0.70068359375	0.2470703125	0.1962890625	-14.875	-20.625	-11.3125
18	12	13	20	18	09	0.520147536773	0.579230242194	-0.210268512577	0.716796875	0.2568359375	0.2060546875	-19.75	-26.8125	-10.875
18	12	13	20	18	09	0.522239709467	0.580530841133	-0.214731100737	0.7255859375	0.27099609375	0.2138671875	-23.125	-32.75	-8.875
18	12	13	20	18	09	0.523935551136	0.5821031397	-0.220096877609	0.744140625	0.27734375	0.22607421875	-23.875	-38.75	-5.625
18	12	13	20	18	09	0.524795608807	0.584245588218	-0.226080825194	0.76025390625	0.28369140625	0.2275390625	-21.625	-44.625	-1.9375
18	12	13	20	18	09	0.524479182169	0.587223811433	-0.232362649426	0.79296875	0.2890625	0.234375	-16.0625	-50.625	1.4375
18	12	13	20	18	10	0.522784539132	0.591146323584	-0.238655872505	0.818359375	0.2998046875	0.23974609375	-7.9375	-55.8125	5.375
18	12	13	20	18	10	0.519486870749	0.596210522086	-0.244575712735	0.8388671875	0.31787109375	0.2353515625	2.25	-60.25	9.5625
18	12	13	20	18	10	0.514729327002	0.602257117221	-0.250070680983	0.86083984375	0.33935546875	0.22509765625	12.0625	-63.5625	13.75
18	12	13	20	18	10	0.508868615976	0.608847840273	-0.255258312584	0.87890625	0.3662109375	0.2119140625	19.0625	-65.3125	18.0625
18	12	13	20	18	10	0.502209990563	0.615860331159	-0.260016353889	0.896484375	0.39501953125	0.19384765625	24.5625	-65.5	20.875
18	12	13	20	18	10	0.495262687987	0.622893237726	-0.264355768015	0.91796875	0.41455078125	0.17431640625	27.0625	-64.1875	22.1875
18	12	13	20	18	10	0.488677582384	0.629494367615	-0.268449164042	0.939453125	0.42431640625	0.1484375	25.3125	-60.9375	21.375
18	12	13	20	18	10	0.483418217795	0.635157825048	-0.272350011086	0.94775390625	0.43994140625	0.1240234375	18.125	-56.0	18.9375
18	12	13	20	18	10	0.479947302177	0.639624542733	-0.276383235948	0.97314453125	0.46435546875	0.09814453125	6.9375	-50.1875	15.6875
18	12	13	20	18	10	0.479205632401	0.642603094883	-0.280589516259	1.044921875	0.4921875	0.083984375	-8.75	-45.0625	8.125
18	12	13	20	18	10	0.481645070855	0.64363797645	-0.285532333223	1.15771484375	0.51611328125	0.09423828125	-29.125	-41.3125	0.5
18	12	13	20	18	10	0.486955882703	0.642723169323	-0.291697438385	1.32373046875	0.5400390625	0.09033203125	-50.75	-37.8125	-6.0625
18	12	13	20	18	10	0.495393231104	0.639384437632	-0.299640878695	1.466796875	0.5556640625	0.05859375	-76.9375	-33.4375	-10.875
18	12	13	20	18	10	0.506060712789	0.632835299747	-0.310069764922	1.44677734375	0.548828125	0.01318359375	-102.75	-24.3125	-5.5
18	12	13	20	18	10	0.516939727441	0.623880145728	-0.320760215811	1.28173828125	0.49951171875	0.00341796875	-107.8125	-10.1875	5.125
18	12	13	20	18	10	0.525956201237	0.614520950917	-0.328928625794	1.10107421875	0.4091796875	0.02685546875	-89.125	7.625	13.3125
18	12	13	20	18	10	0.531201769346	0.606765114222	-0.332527546754	0.9140625	0.32373046875	0.04833984375	-48.8125	26.0	18.5
18	12	13	20	18	10	0.532790652969	0.601212960447	-0.330941794065	0.7705078125	0.26611328125	0.0712890625	-5.875	43.125	20.0
18	12	13	20	18	10	0.532436687636	0.597259313139	-0.32429624228	0.72998046875	0.24267578125	0.1171875	27.125	59.3125	14.875
18	12	13	20	18	10	0.53035465606	0.595237496362	-0.313488492752	0.7802734375	0.220703125	0.14013671875	54.75	69.6875	4.9375
18	12	13	20	18	10	0.527254413693	0.594092059327	-0.300799924829	0.880859375	0.2177734375	0.16748046875	67.9375	72.875	-0.75
18	12	13	20	18	10	0.524560488803	0.592923037961	-0.287855162345	0.9267578125	0.2529296875	0.1572265625	64.875	74.125	-3.875
18	12	13	20	18	10	0.523571627197	0.590650808625	-0.2760073325	0.91748046875	0.2958984375	0.14697265625	48.875	73.25	-5.375
18	12	13	20	18	10	0.524798175912	0.586750972905	-0.266427545691	0.91552734375	0.30615234375	0.13818359375	25.75	70.75	-7.625
18	12	13	20	18	10	0.528332686672	0.581007260216	-0.259527562815	0.912109375	0.283203125	0.14208984375	1.5	67.4375	-10.0
18	12	13	20	18	10	0.532733899117	0.574117215295	-0.254647780375	0.90673828125	0.244140625	0.15771484375	-12.25	63.6875	-9.5
18	12	13	20	18	10	0.536647565386	0.567227687117	-0.250622714226	0.90673828125	0.1962890625	0.1787109375	-12.8125	59.9375	-8.5625
18	12	13	20	18	10	0.539456606362	0.561125207319	-0.24653374441	0.8994140625	0.17578125	0.193359375	-6.0	56.5	-7.0
18	12	13	20	18	10	0.540985426245	0.556061969208	-0.242262344214	0.88134765625	0.18505859375	0.18896484375	1.6875	53.4375	-3.125
18	12	13	20	18	10	0.541490288665	0.551684052413	-0.237935874785	0.8330078125	0.1962890625	0.17724609375	6.8125	50.9375	1.375
18	12	13	20	18	10	0.54108334121	0.547675219479	-0.233950642624	0.78515625	0.19580078125	0.166015625	9.625	48.875	6.75
18	12	13	20	18	10	0.53986870899	0.543897124456	-0.230107974324	0.7412109375	0.1875	0.16552734375	12.625	47.1875	11.75
18	12	13	20	18	10	0.537566378414	0.540557266633	-0.226330888062	0.70068359375	0.16259765625	0.17041015625	18.625	44.875	15.875
18	12	13	20	18	10	0.533970434515	0.53799901804	-0.222304563615	0.68212890625	0.14208984375	0.18408203125	26.625	42.0625	19.125
18	12	13	20	18	10	0.529194932127	0.536397354502	-0.217781720626	0.6806640625	0.1396484375	0.18212890625	35.3125	39.4375	21.25
18	12	13	20	18	10	0.523420453356	0.53575059115	-0.212908517937	0.68408203125	0.1416015625	0.181640625	42.375	36.5	22.625
18	12	13	20	18	10	0.516923920551	0.5359675223	-0.207831615241	0.68798828125	0.154296875	0.1767578125	46.9375	32.875	23.875
18	12	13	20	18	10	0.510200027066	0.536750692429	-0.203127849034	0.70654296875	0.169921875	0.18505859375	47.4375	27.6875	24.0
18	12	13	20	18	10	0.50361684606	0.538102789342	-0.199286026225	0.7431640625	0.185546875	0.19580078125	43.75	20.375	23.1875
18	12	13	20	18	10	0.497523442267	0.539578852857	-0.196848619962	0.77587890625	0.2041015625	0.2255859375	36.375	11.6875	22.75
18	12	13	20	18	10	0.492028719293	0.541286525579	-0.196481881579	0.810546875	0.20849609375	0.25	26.5	0.8125	23.3125
18	12	13	20	18	10	0.487089047909	0.54330571622	-0.198314826649	0.83544921875	0.22412109375	0.265625	15.375	-11.25	24.375
18	12	13	20	18	10	0.482631890146	0.545867837812	-0.202342824818	0.8671875	0.22021484375	0.27880859375	6.125	-24.3125	24.25
18	12	13	20	18	10	0.478288862243	0.549458440265	-0.207832258287	0.9072265625	0.21875	0.2978515625	1.625	-37.8125	23.0
18	12	13	20	18	10	0.473663564037	0.554906631529	-0.214308347079	0.9921875	0.216796875	0.2919921875	1.6875	-52.625	18.75
18	12	13	20	18	10	0.469206412962	0.562107695716	-0.221266195783	1.0869140625	0.2451171875	0.28173828125	1.375	-65.875	13.0
18	12	13	20	18	10	0.465151117807	0.570803471163	-0.22857773733	1.17822265625	0.298828125	0.255859375	-0.5	-77.1875	7.625
18	12	13	20	18	10	0.462052766708	0.580465232681	-0.236824931945	1.30615234375	0.3486328125	0.2099609375	-8.5	-86.875	1.5
18	12	13	20	18	10	0.460596840597	0.590059588928	-0.246473634022	1.40478515625	0.4091796875	0.16015625	-23.1875	-93.75	-3.1875
18	12	13	20	18	10	0.460227934461	0.598906696675	-0.25727596071	1.4794921875	0.4599609375	0.158203125	-33.8125	-98.625	-2.5
18	12	13	20	18	10	0.459301560669	0.607315684872	-0.268439636389	1.5380859375	0.462890625	0.15625	-32.1875	-102.625	-3.0625
18	12	13	20	18	11	0.457541432569	0.615385902236	-0.279371282933	1.48388671875	0.455078125	0.1123046875	-28.75	-100.8125	0.75
18	12	13	20	18	11	0.455044070142	0.623205896197	-0.288103019593	1.29736328125	0.43994140625	0.03759765625	-18.125	-88.5	6.5625
18	12	13	20	18	11	0.451012736716	0.630282517164	-0.294144049023	1.05029296875	0.38134765625	-0.02734375	-1.25	-68.8125	10.9375
18	12	13	20	18	11	0.44587276755	0.636612315612	-0.296577108491	0.853515625	0.31201171875	-0.09765625	17.9375	-43.3125	10.25
18	12	13	20	18	11	0.440814570218	0.642483268639	-0.293957763801	0.77880859375	0.2724609375	-0.1044921875	37.5625	-18.625	-1.25
18	12	13	20	18	11	0.437274592172	0.647915940244	-0.287243750804	0.83642578125	0.25927734375	-0.09033203125	46.625	-0.1875	-19.6875
18	12	13	20	18	11	0.437323206741	0.651437625338	-0.279361942394	0.900390625	0.287109375	-0.08203125	32.0625	13.25	-32.5625
18	12	13	20	18	11	0.442340825229	0.651761464301	-0.273266161798	0.91748046875	0.31884765625	-0.08984375	-2.25	23.5625	-38.5625
18	12	13	20	18	11	0.453087969725	0.64798354932	-0.270522144931	0.90185546875	0.3505859375	-0.08349609375	-48.0625	31.375	-40.4375
18	12	13	20	18	11	0.469372538233	0.639604008861	-0.271613497417	0.87939453125	0.36181640625	-0.02734375	-93.75	36.1875	-40.5
18	12	13	20	18	11	0.489346110727	0.626743902326	-0.276382585677	0.84912109375	0.32373046875	0.037109375	-130.6875	40.375	-37.9375
18	12	13	20	18	11	0.510765860175	0.611295421804	-0.282605871488	0.82275390625	0.27392578125	0.1181640625	-147.75	44.125	-34.5
18	12	13	20	18	11	0.530919195344	0.595742854284	-0.287799954708	0.79931640625	0.21484375	0.189453125	-139.375	46.6875	-33.6875
18	12	13	20	18	11	0.548236585758	0.58168499914	-0.290598350567	0.77197265625	0.197265625	0.251953125	-115.3125	48.375	-31.875
18	12	13	20	18	11	0.562215051388	0.56911227219	-0.290659871318	0.72412109375	0.20166015625	0.28125	-84.4375	48.6875	-27.875
18	12	13	20	18	11	0.572469871486	0.559468903086	-0.288584876041	0.67041015625	0.20458984375	0.287109375	-53.625	45.375	-22.9375
18	12	13	20	18	11	0.579109228694	0.553046871964	-0.285160024922	0.62939453125	0.2041015625	0.2802734375	-26.5	37.9375	-17.9375
18	12	13	20	18	11	0.582662733704	0.549580479181	-0.280955013957	0.60546875	0.2109375	0.2578125	-4.1875	30.125	-12.8125
18	12	13	20	18	11	0.584133972141	0.548243608963	-0.276319173655	0.58544921875	0.23046875	0.2431640625	10.3125	23.4375	-9.4375
18	12	13	20	18	11	0.58444099787	0.548306369072	-0.271864251124	0.56494140625	0.24658203125	0.23779296875	17.1875	16.1875	-6.9375
18	12	13	20	18	11	0.584364930987	0.548780561365	-0.268805426788	0.5810546875	0.2421875	0.24365234375	14.6875	7.125	-5.5
18	12	13	20	18	11	0.584310704597	0.549397331252	-0.267526775123	0.6044921875	0.232421875	0.244140625	8.25	-2.25	-5.0625
18	12	13	20	18	11	0.584174372595	0.550238425342	-0.267947497199	0.638671875	0.2197265625	0.24609375	2.9375	-11.3125	-4.6875
18	12	13	20	18	11	0.583949855098	0.551477677518	-0.269726602872	0.6796875	0.2294921875	0.2568359375	-1.3125	-20.875	-4.75
18	12	13	20	18	11	0.583586724727	0.553311751872	-0.272963061707	0.73291015625	0.24853515625	0.2490234375	-5.125	-30.4375	-4.625
18	12	13	20	18	11	0.582980833908	0.55569652517	-0.277482030253	0.775390625	0.28076171875	0.2421875	-8.9375	-39.4375	-3.25
18	12	13	20	18	11	0.582050671856	0.558429278189	-0.283090500846	0.80908203125	0.3154296875	0.2373046875	-11.25	-47.0625	-0.25
18	12	13	20	18	11	0.580397220858	0.561475868616	-0.289740835778	0.82177734375	0.33154296875	0.23193359375	-11.9375	-53.5625	4.75
18	12	13	20	18	11	0.577719719408	0.564901849247	-0.296947325401	0.8291015625	0.333984375	0.236328125	-7.75	-58.75	10.6875
18	12	13	20	18	11	0.573450600849	0.569177951349	-0.304151606603	0.83349609375	0.33740234375	0.23388671875	1.3125	-62.5	16.0
18	12	13	20	18	11	0.567518975007	0.574721302287	-0.310554586453	0.84619140625	0.34326171875	0.232421875	15.125	-65.25	19.125
18	12	13	20	18	11	0.559779648011	0.581631257867	-0.315993810681	0.90234375	0.34033203125	0.23388671875	30.0	-67.75	19.875
18	12	13	20	18	11	0.551039001753	0.589553136678	-0.320503522176	0.966796875	0.357421875	0.22412109375	40.125	-69.125	18.9375
18	12	13	20	18	11	0.542072327307	0.59761627707	-0.324596400925	1.00341796875	0.39013671875	0.19970703125	42.1875	-68.75	19.4375
18	12	13	20	18	11	0.534008288407	0.604932694753	-0.328925667645	1.0400390625	0.447265625	0.1884765625	35.0	-68.0625	21.0
18	12	13	20	18	11	0.527297318899	0.610856762072	-0.333932588459	1.1484375	0.46826171875	0.2275390625	24.875	-69.5625	20.0
18	12	13	20	18	11	0.522905413712	0.614339090581	-0.342052286499	1.35888671875	0.51904296875	0.267578125	-1.5	-78.125	22.8125
18	12	13	20	18	11	0.517407626457	0.618606381283	-0.349739966922	1.564453125	0.49169921875	0.16650390625	4.9375	-76.0625	17.5625
18	12	13	20	18	11	0.512036662218	0.622696153052	-0.355477592175	1.607421875	0.486328125	0.05224609375	10.0625	-59.125	14.1875
18	12	13	20	18	11	0.506593357598	0.626527809126	-0.357606082189	1.44677734375	0.505859375	-0.10107421875	22.625	-28.1875	16.0625
18	12	13	20	18	11	0.500739669942	0.631295758923	-0.354863534988	1.16650390625	0.5439453125	-0.287109375	42.25	5.4375	14.3125
18	12	13	20	18	11	0.498127930467	0.633631423376	-0.349989652407	0.89501953125	0.576171875	-0.27392578125	32.0625	29.25	14.25
18	12	13	20	18	11	0.500931809474	0.63033054666	-0.347179253355	0.7822265625	0.484375	-0.18505859375	-7.4375	45.625	14.5625
18	12	13	20	18	11	0.506298063293	0.622816809866	-0.344185024582	0.79931640625	0.318359375	-0.08935546875	-21.875	68.0	12.1875
18	12	13	20	18	11	0.513701695908	0.613744124567	-0.338825821529	0.837890625	0.22998046875	0.0087890625	-23.125	82.625	-2.0625
18	12	13	20	18	11	0.522491187865	0.603733684483	-0.332172551912	0.8583984375	0.22314453125	0.0634765625	-26.3125	90.125	-9.5
18	12	13	20	18	11	0.532685248485	0.590916224428	-0.326801514883	0.8515625	0.20361328125	0.14453125	-41.5625	95.6875	-3.875
18	12	13	20	18	11	0.540538715028	0.579602036801	-0.319403691931	0.81201171875	0.16796875	0.14892578125	-21.375	101.125	0.125
18	12	13	20	18	11	0.547379845507	0.569414203694	-0.310312124727	0.7978515625	0.15625	0.2412109375	-9.125	101.125	-3.75
18	12	13	20	18	11	0.553533642985	0.559271007903	-0.300479228627	0.814453125	0.17138671875	0.30029296875	-0.5625	96.3125	-7.25
18	12	13	20	18	12	0.558370925543	0.550436052312	-0.290416360268	0.8037109375	0.1806640625	0.326171875	7.75	89.4375	-6.625
18	12	13	20	18	12	0.561251530865	0.54312301486	-0.28065628482	0.79345703125	0.17626953125	0.3515625	17.875	79.75	-2.8125
18	12	13	20	18	12	0.561705859762	0.537597002367	-0.271972325448	0.78955078125	0.1416015625	0.349609375	27.5625	67.625	2.1875
18	12	13	20	18	12	0.559585194781	0.534254931274	-0.263923034711	0.7666015625	0.10205078125	0.3203125	40.4375	56.4375	6.9375
18	12	13	20	18	12	0.55477152647	0.533408336431	-0.255503752866	0.744140625	0.078125	0.28271484375	57.5625	48.125	10.3125
18	12	13	20	18	12	0.547453891922	0.535185162713	-0.246107045627	0.732421875	0.0654296875	0.2392578125	76.5	42.0	11.6875
18	12	13	20	18	12	0.538464996626	0.538892252915	-0.235845471204	0.732421875	0.072265625	0.2041015625	89.1875	37.5625	11.25
18	12	13	20	18	12	0.528887031494	0.543535951004	-0.225227137474	0.75244140625	0.099609375	0.166015625	93.1875	35.0625	10.5
18	12	13	20	18	12	0.519444802879	0.548194333097	-0.215285760253	0.7744140625	0.12646484375	0.1240234375	87.6875	33.875	10.25
18	12	13	20	18	12	0.510898644911	0.551855991474	-0.206617910756	0.78515625	0.14697265625	0.107421875	75.8125	33.625	11.4375
18	12	13	20	18	12	0.503378805839	0.554223300233	-0.199715709071	0.79296875	0.1513671875	0.09765625	61.8125	33.4375	13.3125
18	12	13	20	18	12	0.496790348359	0.555448110342	-0.194284762112	0.806640625	0.16552734375	0.10888671875	49.375	32.5	15.1875
18	12	13	20	18	12	0.490917509222	0.55579943292	-0.190312171298	0.83056640625	0.16650390625	0.1328125	39.1875	30.375	16.9375
18	12	13	20	18	12	0.485858512982	0.555624377347	-0.187812392518	0.87353515625	0.1845703125	0.146484375	29.0	27.0	17.6875
18	12	13	20	18	12	0.481711501043	0.554957040989	-0.187142354561	0.91650390625	0.205078125	0.1513671875	16.375	23.0	19.0
18	12	13	20	18	12	0.478352369657	0.553672878035	-0.188484384012	0.9462890625	0.21923828125	0.1533203125	3.8125	18.5	22.125
18	12	13	20	18	12	0.475431388656	0.552157188571	-0.191539825087	0.9619140625	0.22314453125	0.16162109375	-5.8125	13.25	24.875
18	12	13	20	18	12	0.47255828657	0.550931425288	-0.195444540635	0.9794921875	0.2158203125	0.1796875	-8.4375	7.1875	25.5
18	12	13	20	18	12	0.469443830667	0.550807583921	-0.199350351184	1.02197265625	0.224609375	0.193359375	-5.5	0.0625	23.625
18	12	13	20	18	12	0.465849235968	0.55215830563	-0.202771378654	1.05908203125	0.2421875	0.21728515625	1.0	-8.0	21.125
18	12	13	20	18	12	0.461755264567	0.555266046499	-0.205638266534	1.12890625	0.26904296875	0.2333984375	7.875	-17.8125	17.8125
18	12	13	20	18	12	0.45784443276	0.560204799876	-0.208810265894	1.2197265625	0.32177734375	0.23095703125	7.75	-29.8125	12.9375
18	12	13	20	18	12	0.454426615562	0.566553102168	-0.212533710596	1.31494140625	0.37890625	0.24755859375	5.375	-43.0625	9.0625
18	12	13	20	18	12	0.45114505742	0.574140225962	-0.216996438794	1.40673828125	0.416015625	0.31396484375	4.75	-59.25	6.3125
18	12	13	20	18	12	0.44702787754	0.582955114471	-0.222720470391	1.4404296875	0.419921875	0.35595703125	5.6875	-77.125	9.3125
18	12	13	20	18	12	0.44148064562	0.592791377059	-0.230353650846	1.34814453125	0.42578125	0.28857421875	4.25	-90.375	19.4375
18	12	13	20	18	12	0.435684233903	0.602804356125	-0.238411686414	1.1630859375	0.43701171875	0.1669921875	2.0625	-91.75	24.9375
18	12	13	20	18	12	0.429648812535	0.612275499153	-0.245435129309	0.9755859375	0.39892578125	0.06884765625	6.125	-82.25	25.3125
18	12	13	20	18	12	0.422977826599	0.621527158479	-0.249514192661	0.869140625	0.30517578125	-0.02978515625	20.1875	-66.0625	16.4375
18	12	13	20	18	12	0.417007767592	0.630577758634	-0.249154816644	0.876953125	0.24658203125	-0.1044921875	33.875	-45.3125	-2.4375
18	12	13	20	18	12	0.413096653804	0.638810516949	-0.24457421569	0.9404296875	0.26416015625	-0.13427734375	40.5	-24.5	-22.0
18	12	13	20	18	12	0.412012036701	0.645302407703	-0.238356593084	0.9794921875	0.30126953125	-0.12451171875	32.375	-10.5	-33.125
18	12	13	20	18	12	0.414630482774	0.649138110452	-0.233592059116	0.98876953125	0.3193359375	-0.08642578125	7.4375	-4.4375	-38.1875
18	12	13	20	18	12	0.421717693053	0.649942103869	-0.232069860904	0.98291015625	0.33203125	-0.0537109375	-28.375	-2.25	-39.9375
18	12	13	20	18	12	0.433248129032	0.647308595151	-0.233897834665	0.943359375	0.3427734375	0.00927734375	-65.0625	-0.5625	-39.8125
18	12	13	20	18	12	0.448202710168	0.641571385888	-0.238536863862	0.91015625	0.3154296875	0.06005859375	-94.5625	1.9375	-40.1875
18	12	13	20	18	12	0.465047649515	0.63357325134	-0.244700882912	0.88330078125	0.287109375	0.111328125	-112.3125	6.5	-40.25
18	12	13	20	18	12	0.482190609527	0.624528394517	-0.25049496981	0.8515625	0.27783203125	0.1689453125	-114.25	12.125	-40.5625
18	12	13	20	18	12	0.498446616356	0.615458882283	-0.254899959577	0.81591796875	0.25439453125	0.2216796875	-105.6875	16.0	-41.25
18	12	13	20	18	12	0.513084657504	0.606289543538	-0.257763086919	0.75830078125	0.22900390625	0.2421875	-90.0625	17.1875	-38.75
18	12	13	20	18	12	0.524741420026	0.598597081097	-0.259288304324	0.697265625	0.20166015625	0.259765625	-68.8125	15.75	-33.5625
18	12	13	20	18	12	0.532978734514	0.593222666141	-0.25947006418	0.64013671875	0.1728515625	0.25439453125	-44.0	11.75	-28.5
18	12	13	20	18	12	0.538032912703	0.590401856447	-0.25818255482	0.59375	0.1650390625	0.24951171875	-19.6875	6.8125	-23.8125
18	12	13	20	18	12	0.540560856545	0.5896972036	-0.25611939409	0.56982421875	0.17724609375	0.2236328125	-1.875	2.25	-19.5
18	12	13	20	18	12	0.541896254197	0.590238429611	-0.253735382822	0.54931640625	0.201171875	0.20556640625	6.0625	-1.5	-16.625
18	12	13	20	18	12	0.542735590141	0.591137448326	-0.251958222683	0.55078125	0.2060546875	0.193359375	6.375	-5.25	-13.75
18	12	13	20	18	12	0.543592587485	0.591811557181	-0.251532119136	0.56640625	0.193359375	0.1904296875	1.0625	-9.375	-12.0
18	12	13	20	18	12	0.54470202209	0.592189491071	-0.252269549227	0.6025390625	0.1884765625	0.19091796875	-4.9375	-13.3125	-11.0
18	12	13	20	18	12	0.545791717293	0.592484925046	-0.254035464926	0.6533203125	0.1845703125	0.2021484375	-8.1875	-17.875	-10.125
18	12	13	20	18	12	0.546719534118	0.592986521598	-0.256604769614	0.71484375	0.21142578125	0.21875	-10.3125	-23.1875	-8.75
18	12	13	20	18	13	0.547577092928	0.593600181555	-0.26014642404	0.78076171875	0.25830078125	0.2353515625	-13.25	-29.25	-5.75
18	12	13	20	18	13	0.548368536076	0.594208336899	-0.265089553893	0.84619140625	0.30126953125	0.2451171875	-18.5625	-36.5	-1.625
18	12	13	20	18	13	0.549167467865	0.594458371628	-0.271928539439	0.8994140625	0.34765625	0.22998046875	-27.1875	-42.5	4.8125
18	12	13	20	18	13	0.549344077216	0.594390291548	-0.280104441149	0.90185546875	0.37255859375	0.22509765625	-30.0625	-46.3125	14.625
18	12	13	20	18	13	0.54794905696	0.594644058472	-0.288654460328	0.9091796875	0.36279296875	0.23828125	-22.4375	-49.5	22.625
18	12	13	20	18	13	0.543955527639	0.596385711464	-0.296026066994	0.92138671875	0.33203125	0.24609375	-2.5	-50.375	27.0625
18	12	13	20	18	13	0.536810451551	0.600531896852	-0.300967860898	0.9365234375	0.328125	0.23046875	25.8125	-49.0625	29.5
18	12	13	20	18	13	0.527004033693	0.607086184748	-0.302932710125	0.9697265625	0.3642578125	0.1962890625	53.0625	-45.0	29.75
18	12	13	20	18	13	0.516063343762	0.614881386761	-0.302557775876	0.9892578125	0.41259765625	0.14599609375	67.625	-39.1875	28.3125
18	12	13	20	18	13	0.506488895111	0.622154893693	-0.301464045909	1.04296875	0.49365234375	0.07958984375	61.25	-32.125	25.5
18	12	13	20	18	13	0.500619607412	0.62739197081	-0.300847847468	1.140625	0.587890625	0.0546875	37.1875	-26.125	19.0
18	12	13	20	18	13	0.499167057582	0.629360666512	-0.302564331675	1.2958984375	0.61865234375	0.09765625	3.5625	-24.5625	13.75
18	12	13	20	18	13	0.502752563171	0.62708265558	-0.308841564847	1.48291015625	0.6162109375	0.111328125	-44.25	-26.1875	11.4375
18	12	13	20	18	13	0.506616009519	0.623687034369	-0.316970715353	1.54443359375	0.5263671875	-0.01123046875	-56.8125	-20.4375	11.5625
18	12	13	20	18	13	0.511135652958	0.619417793912	-0.323808769876	1.41650390625	0.4951171875	-0.025390625	-56.3125	-8.4375	11.0
18	12	13	20	18	13	0.514735741708	0.615693042406	-0.326798904435	1.1572265625	0.51513671875	-0.0498046875	-36.25	10.375	13.5
18	12	13	20	18	13	0.520280968638	0.611714672418	-0.326060644588	0.87158203125	0.5458984375	-0.05224609375	-32.5	28.8125	5.4375
18	12	13	20	18	13	0.525532937011	0.605797258982	-0.32484161333	0.736328125	0.4375	0.01611328125	-29.1875	40.75	12.0
18	12	13	20	18	13	0.527722041641	0.600294503763	-0.321357454226	0.69384765625	0.2490234375	0.09130859375	-1.25	50.3125	13.125
18	12	13	20	18	13	0.526325270637	0.597250698502	-0.314037286029	0.74267578125	0.12060546875	0.154296875	36.8125	55.75	5.5625
18	12	13	20	18	13	0.524819884411	0.59471041333	-0.303489702872	0.80712890625	0.16943359375	0.1845703125	50.4375	67.0	-1.0
18	12	13	20	18	13	0.524358908055	0.593695623169	-0.290530602065	0.7822265625	0.23876953125	0.11865234375	53.5	70.4375	-15.8125
18	12	13	20	18	13	0.524805547016	0.59237471898	-0.278150602204	0.79296875	0.29345703125	0.1181640625	44.75	67.4375	-17.3125
18	12	13	20	18	13	0.527663213655	0.58918831711	-0.268439885906	0.84033203125	0.30126953125	0.138671875	19.625	63.125	-19.4375
18	12	13	20	18	13	0.5335304446	0.583276161606	-0.262523102874	0.85986328125	0.2900390625	0.14794921875	-14.0625	58.9375	-20.25
18	12	13	20	18	13	0.541111780537	0.575049530111	-0.260087681542	0.85888671875	0.25390625	0.17041015625	-38.8125	54.0	-16.125
18	12	13	20	18	13	0.548477443911	0.566239177293	-0.259589869681	0.85693359375	0.1943359375	0.19580078125	-45.5	48.0625	-13.125
18	12	13	20	18	13	0.554600769546	0.558324151336	-0.259476983419	0.845703125	0.150390625	0.19287109375	-39.8125	42.8125	-12.0
18	12	13	20	18	13	0.559353247778	0.551906598255	-0.25880158998	0.84033203125	0.15771484375	0.18212890625	-29.25	39.75	-10.6875
18	12	13	20	18	13	0.562704656258	0.54677387035	-0.257395111774	0.81005859375	0.1826171875	0.1669921875	-18.875	38.0625	-7.3125
18	12	13	20	18	13	0.564684465232	0.5425878512	-0.25582019174	0.7998046875	0.197265625	0.16357421875	-10.6875	35.375	-1.8125
18	12	13	20	18	13	0.565146210757	0.539144235837	-0.254404299215	0.77392578125	0.18896484375	0.169921875	-3.0625	32.0625	5.0625
18	12	13	20	18	13	0.563972106815	0.536444896839	-0.252993980817	0.7353515625	0.17236328125	0.1728515625	5.9375	29.375	12.0625
18	12	13	20	18	13	0.561362068766	0.534627635133	-0.251047318564	0.69580078125	0.16943359375	0.1923828125	16.625	26.75	17.3125
18	12	13	20	18	13	0.557138224292	0.534188621714	-0.248234132143	0.6767578125	0.1611328125	0.2236328125	30.25	21.9375	19.875
18	12	13	20	18	13	0.551496589038	0.535259943473	-0.245258804068	0.69140625	0.158203125	0.24169921875	40.1875	14.6875	21.625
18	12	13	20	18	13	0.544514298358	0.537678113915	-0.24231832356	0.7080078125	0.16796875	0.25439453125	48.3125	7.125	24.25
18	12	13	20	18	13	0.536606890596	0.541245967343	-0.23970597877	0.728515625	0.18115234375	0.26220703125	52.8125	-1.125	26.3125
18	12	13	20	18	13	0.528402084712	0.545736749383	-0.237985413918	0.77392578125	0.20654296875	0.2607421875	51.5625	-10.25	26.3125
18	12	13	20	18	13	0.520042171125	0.550805229135	-0.23755917019	0.8125	0.21240234375	0.251953125	47.75	-19.1875	26.75
18	12	13	20	18	13	0.511880381498	0.55619532986	-0.238604866596	0.85205078125	0.22412109375	0.2490234375	40.875	-28.0625	26.875
18	12	13	20	18	13	0.504177698635	0.561859045513	-0.240979849178	0.8876953125	0.24267578125	0.2412109375	33.6875	-36.375	26.25
18	12	13	20	18	13	0.497038031842	0.567598754525	-0.244643059268	0.90673828125	0.25390625	0.21875	25.25	-43.0	26.125
18	12	13	20	18	13	0.490313291585	0.573507243587	-0.249276669094	0.94189453125	0.271484375	0.20703125	19.3125	-48.75	25.125
18	12	13	20	18	13	0.484459224058	0.579678625536	-0.25452878472	1.0283203125	0.2880859375	0.1904296875	12.75	-54.125	20.3125
18	12	13	20	18	13	0.479708014106	0.585855391194	-0.260393738157	1.12060546875	0.31884765625	0.17236328125	5.0	-57.5	15.4375
18	12	13	20	18	13	0.475916280636	0.591950248763	-0.266920853562	1.22509765625	0.3544921875	0.1416015625	-3.375	-60.1875	12.4375
18	12	13	20	18	13	0.474274554255	0.597695808914	-0.274432225988	1.36669921875	0.41162109375	0.08447265625	-19.0625	-62.0625	4.8125
18	12	13	20	18	13	0.475959425242	0.601937913791	-0.283573671413	1.4765625	0.48779296875	0.04443359375	-44.0	-62.25	-1.3125
18	12	13	20	18	13	0.480239446936	0.604571901614	-0.293832320482	1.61474609375	0.54052734375	0.072265625	-62.75	-63.5	-6.375
18	12	13	20	18	14	0.484880223017	0.605795092327	-0.305247481786	1.59326171875	0.5078125	0.09521484375	-70.1875	-64.75	-2.625
18	12	13	20	18	14	0.487980746167	0.606023868504	-0.3168365295	1.39599609375	0.48779296875	0.05126953125	-65.0	-57.75	12.4375
18	12	13	20	18	14	0.48837036446	0.606846414631	-0.324603624322	1.126953125	0.4248046875	0.03955078125	-35.0625	-42.625	17.4375
18	12	13	20	18	14	0.485622361618	0.608859107232	-0.32716639747	0.890625	0.3193359375	0.02587890625	4.375	-22.0	16.375
18	12	13	20	18	14	0.480055268103	0.612932613132	-0.323068345082	0.75048828125	0.2373046875	0.00244140625	47.8125	0.1875	6.6875
18	12	13	20	18	14	0.472508287961	0.61949187631	-0.312584284026	0.74560546875	0.18505859375	-0.00048828125	86.3125	15.375	-11.25
18	12	13	20	18	14	0.465528508682	0.627154245012	-0.298775671955	0.8505859375	0.1982421875	-0.03076171875	96.5625	22.75	-29.5
18	12	13	20	18	14	0.46285088918	0.633268887676	-0.284986258945	0.91357421875	0.259765625	-0.0712890625	71.5	29.375	-44.25
18	12	13	20	18	14	0.467240006992	0.634848244641	-0.275338951214	0.92578125	0.31103515625	-0.06982421875	15.3125	33.125	-51.3125
18	12	13	20	18	14	0.479402837155	0.630963474366	-0.272174338028	0.96044921875	0.33642578125	-0.07080078125	-54.375	32.1875	-53.9375
18	12	13	20	18	14	0.498942860829	0.62053500406	-0.275108328084	0.9560546875	0.3154296875	-0.03369140625	-120.125	31.125	-53.875
18	12	13	20	18	14	0.522361680045	0.605373117864	-0.28266615334	0.91650390625	0.25732421875	0.021484375	-164.5625	31.625	-48.3125
18	12	13	20	18	14	0.546536147557	0.587859016878	-0.291579537288	0.88720703125	0.18603515625	0.0859375	-178.75	33.0625	-45.125
18	12	13	20	18	14	0.568878884094	0.570526923779	-0.299149722204	0.83251953125	0.14892578125	0.162109375	-166.75	34.9375	-42.9375
18	12	13	20	18	14	0.587426756231	0.555076779007	-0.304150823597	0.74755859375	0.13720703125	0.2333984375	-136.9375	36.6875	-36.5625
18	12	13	20	18	14	0.601567659957	0.542790300325	-0.306460148199	0.6708984375	0.1474609375	0.27490234375	-100.125	35.5	-29.75
18	12	13	20	18	14	0.611849409366	0.533048772146	-0.306840281413	0.62548828125	0.1650390625	0.29736328125	-66.125	29.375	-23.375
18	12	13	20	18	14	0.618279145081	0.526718406842	-0.306240149163	0.59033203125	0.171875	0.291015625	-37.8125	21.0625	-15.5
18	12	13	20	18	14	0.621361014252	0.523334905324	-0.305248176058	0.5712890625	0.17724609375	0.2724609375	-14.375	13.0625	-7.4375
18	12	13	20	18	14	0.621908247304	0.52247861389	-0.304209510704	0.57763671875	0.1826171875	0.25244140625	2.125	4.75	-2.5
18	12	13	20	18	14	0.621248279641	0.522976543522	-0.303787845134	0.5888671875	0.19384765625	0.21533203125	7.625	-1.9375	-0.4375
18	12	13	20	18	14	0.620190423943	0.523936088881	-0.304022094445	0.587890625	0.2021484375	0.19775390625	7.0	-6.5625	1.0
18	12	13	20	18	14	0.619176227414	0.524993565851	-0.305132291093	0.59814453125	0.19970703125	0.1943359375	3.6875	-11.6875	0.5
18	12	13	20	18	14	0.618198637946	0.52633558995	-0.30708504616	0.625	0.19580078125	0.20068359375	0.9375	-18.0	-1.25
18	12	13	20	18	14	0.617231370014	0.528052668314	-0.309897514395	0.66943359375	0.21142578125	0.22265625	-1.375	-26.0625	-3.0625
18	12	13	20	18	14	0.616257866497	0.53025278192	-0.313866674874	0.732421875	0.24658203125	0.24658203125	-5.25	-36.5	-4.125
18	12	13	20	18	14	0.615371441474	0.532727825945	-0.319282683034	0.80810546875	0.30517578125	0.26513671875	-11.5	-47.3125	-3.5
18	12	13	20	18	14	0.61433438727	0.535352897242	-0.326485309241	0.8681640625	0.36962890625	0.27001953125	-18.4375	-58.3125	0.0
18	12	13	20	18	14	0.613108647631	0.537545829734	-0.335638073999	0.89111328125	0.42333984375	0.28271484375	-26.25	-68.75	7.5625
18	12	13	20	18	14	0.611092027285	0.539496846702	-0.346806322317	0.90576171875	0.4541015625	0.27587890625	-31.125	-78.875	17.0625
18	12	13	20	18	14	0.608054246762	0.541462479726	-0.358899716017	0.888671875	0.44677734375	0.26220703125	-29.875	-84.5	23.875
18	12	13	20	18	14	0.603168404691	0.544450735665	-0.370678174629	0.8779296875	0.40966796875	0.25244140625	-16.875	-87.625	27.5
18	12	13	20	18	14	0.598401310563	0.547313805775	-0.38111156499	0.88916015625	0.4267578125	0.27685546875	-12.0	-83.25	27.0
18	12	13	20	18	14	0.594641375499	0.55063229813	-0.390405074697	0.943359375	0.50244140625	0.24560546875	-14.0625	-81.4375	19.5625
18	12	13	20	18	14	0.591447085575	0.552993869485	-0.401317294908	1.115234375	0.56201171875	0.2578125	-25.5625	-89.75	21.0
18	12	13	20	18	14	0.586684979566	0.553419965639	-0.415660082276	1.32568359375	0.48828125	0.2177734375	-33.3125	-95.5625	34.6875
18	12	13	20	18	14	0.579931277785	0.556248156453	-0.426601378849	1.4453125	0.38916015625	0.0908203125	-6.6875	-81.375	22.875
18	12	13	20	18	14	0.573508912307	0.561606588138	-0.431962811026	1.48388671875	0.34619140625	-0.00048828125	16.1875	-58.8125	-0.375
18	12	13	20	18	14	0.56727387625	0.566236254569	-0.435190740011	1.43994140625	0.36669921875	-0.0791015625	23.9375	-37.375	5.625
18	12	13	20	18	14	0.563077762011	0.568082897673	-0.437583141014	1.234375	0.43505859375	-0.14111328125	13.75	-13.1875	20.0625
18	12	13	20	18	14	0.562690891809	0.566108907856	-0.439215062095	1.07666015625	0.37451171875	-0.107421875	-6.6875	8.375	20.8125
18	12	13	20	18	14	0.560317753033	0.563064408685	-0.43922075717	0.9560546875	0.13427734375	-0.04052734375	15.625	26.5	28.5
18	12	13	20	18	14	0.551789269864	0.563203494805	-0.434289895474	0.8740234375	-0.064453125	0.00244140625	79.8125	44.875	35.875
18	12	13	20	18	14	0.538532406242	0.56960040973	-0.420425163119	0.89013671875	-0.1328125	0.0712890625	151.125	62.4375	34.125
18	12	13	20	18	14	0.519348707536	0.581116352621	-0.39892621371	0.9404296875	-0.06787109375	0.0625	217.875	75.0625	28.625
18	12	13	20	18	14	0.49849854378	0.592070022611	-0.374591106058	0.9931640625	0.0439453125	0.07080078125	232.375	85.0	30.125
18	12	13	20	18	14	0.481711612313	0.597439592159	-0.352433204447	0.96435546875	0.2001953125	0.0751953125	191.125	95.625	34.0625
18	12	13	20	18	14	0.470648599902	0.597359336952	-0.334965570777	0.869140625	0.24755859375	0.07421875	133.0	96.75	32.9375
18	12	13	20	18	14	0.464672736874	0.592422643387	-0.323250599565	0.81005859375	0.1787109375	0.0986328125	77.0625	92.125	36.125
18	12	13	20	18	14	0.462045921694	0.583935711077	-0.317206427351	0.79638671875	0.02294921875	0.1435546875	33.625	83.5625	33.4375
18	12	13	20	18	15	0.460031293838	0.575084894592	-0.312628404808	0.80224609375	-0.05810546875	0.19091796875	24.25	75.5625	28.1875
18	12	13	20	18	15	0.457099989676	0.568063774058	-0.306035431731	0.7998046875	-0.06884765625	0.23095703125	38.5	70.1875	20.0
18	12	13	20	18	15	0.453706373643	0.563333260104	-0.296957017056	0.77783203125	-0.0029296875	0.228515625	52.4375	65.6875	12.4375
18	12	13	20	18	15	0.451145404526	0.559857346815	-0.287253453349	0.7412109375	0.0908203125	0.22509765625	50.9375	59.375	7.25
18	12	13	20	18	15	0.450029288271	0.5563565662	-0.279246438877	0.7216796875	0.14599609375	0.2216796875	35.75	51.75	5.8125
18	12	13	20	18	15	0.450208467475	0.552384304589	-0.273872748585	0.72216796875	0.1748046875	0.22412109375	17.25	43.5625	7.4375
18	12	13	20	18	15	0.450638222519	0.548175792557	-0.270761364634	0.7265625	0.16796875	0.22998046875	5.75	36.375	11.0
18	12	13	20	18	15	0.450215273931	0.544396695796	-0.268322443628	0.72119140625	0.13525390625	0.23193359375	7.1875	31.1875	13.375
18	12	13	20	18	15	0.447889203094	0.542191304318	-0.264717289973	0.7392578125	0.08349609375	0.2412109375	23.1875	27.125	11.9375
18	12	13	20	18	15	0.44281812039	0.542612417679	-0.258427556407	0.80810546875	0.02734375	0.24169921875	50.75	23.75	7.375
18	12	13	20	18	15	0.434643103812	0.546096313692	-0.248663952384	0.88427734375	0.00390625	0.2177734375	83.0	21.625	2.875
18	12	13	20	18	15	0.424703517823	0.551907043425	-0.23450861102	0.93017578125	0.02734375	0.18212890625	109.625	21.1875	0.375
18	12	13	20	18	15	0.413881649463	0.558779899842	-0.218690156323	0.97705078125	0.0751953125	0.1455078125	121.0	19.75	-3.4375
18	12	13	20	18	15	0.40424979495	0.565449207371	-0.203437198636	1.021484375	0.11572265625	0.10546875	112.4375	17.0	-8.6875
18	12	13	20	18	15	0.397057455471	0.571933644544	-0.192272249767	1.033203125	0.17529296875	0.06298828125	82.25	14.0625	-12.625
18	12	13	20	18	15	0.394426601463	0.57601421201	-0.186104411616	1.0341796875	0.21875	0.0498046875	38.8125	10.625	-14.25
18	12	13	20	18	15	0.396377826509	0.577171039031	-0.185859328876	1.02099609375	0.2158203125	0.05615234375	-8.375	6.5625	-14.4375
18	12	13	20	18	15	0.401880273062	0.576207438899	-0.190685597364	1.056640625	0.1884765625	0.10107421875	-45.5625	-0.625	-15.875
18	12	13	20	18	15	0.409564361908	0.574244637381	-0.198922541797	1.13916015625	0.1279296875	0.1455078125	-68.25	-9.1875	-20.75
18	12	13	20	18	15	0.418484404644	0.572058903198	-0.208998045727	1.1845703125	0.1171875	0.18017578125	-81.0625	-17.25	-23.4375
18	12	13	20	18	15	0.427801629558	0.570259755309	-0.219729756942	1.2138671875	0.138671875	0.19091796875	-85.125	-24.375	-25.0625
18	12	13	20	18	15	0.437589162611	0.568945262198	-0.231032916792	1.25244140625	0.17236328125	0.22119140625	-90.0	-33.5625	-26.9375
18	12	13	20	18	15	0.447712649844	0.568567598268	-0.242930653903	1.35986328125	0.19287109375	0.2626953125	-92.5625	-45.25	-31.8125
18	12	13	20	18	15	0.456923712225	0.569476120098	-0.255501290325	1.44677734375	0.18896484375	0.2958984375	-90.0625	-60.1875	-33.1875
18	12	13	20	18	15	0.463587894119	0.571015766884	-0.269057990425	1.3408203125	0.2060546875	0.2744140625	-83.5	-69.8125	-18.3125
18	12	13	20	18	15	0.467556228224	0.573153130942	-0.281815549048	1.1328125	0.23779296875	0.18896484375	-69.875	-68.75	-3.0625
18	12	13	20	18	15	0.46948808423	0.57593468055	-0.292117780957	0.92578125	0.2275390625	0.11962890625	-50.6875	-60.8125	1.5625
18	12	13	20	18	15	0.469638894677	0.579510224338	-0.298666897797	0.8271484375	0.17041015625	0.08154296875	-25.5	-49.125	-2.5625
18	12	13	20	18	15	0.467905423448	0.584668151736	-0.300360369005	0.90478515625	0.1005859375	0.05517578125	5.875	-35.4375	-14.6875
18	12	13	20	18	15	0.464503088387	0.591402158131	-0.296952368594	1.03271484375	0.10400390625	0.01611328125	36.1875	-19.0625	-25.1875
18	12	13	20	18	15	0.460773213058	0.598291036481	-0.290234021472	1.076171875	0.16162109375	-0.033203125	50.875	-2.8125	-28.5
18	12	13	20	18	15	0.459422429229	0.603163603779	-0.283087714463	1.041015625	0.23876953125	-0.07373046875	37.875	11.6875	-29.0625
18	12	13	20	18	15	0.462618412772	0.604535263239	-0.278401184939	0.9853515625	0.3125	-0.08447265625	1.75	20.8125	-28.5
18	12	13	20	18	15	0.470591819667	0.601637297854	-0.277777350364	0.93017578125	0.32861328125	-0.0322265625	-41.4375	23.5625	-26.1875
18	12	13	20	18	15	0.482447006673	0.594574429657	-0.281264651664	0.87646484375	0.3037109375	0.03369140625	-80.4375	24.875	-22.1875
18	12	13	20	18	15	0.496281367467	0.584172791541	-0.286989913889	0.8154296875	0.251953125	0.08740234375	-101.4375	28.3125	-20.0625
18	12	13	20	18	15	0.510584811119	0.572782769581	-0.292312093299	0.77783203125	0.2099609375	0.1455078125	-103.875	33.1875	-21.125
18	12	13	20	18	15	0.524055344383	0.56128732203	-0.295902668247	0.73876953125	0.16259765625	0.185546875	-93.1875	38.75	-23.125
18	12	13	20	18	15	0.535798649387	0.550814195953	-0.297075874524	0.6845703125	0.14453125	0.19970703125	-74.1875	43.3125	-23.1875
18	12	13	20	18	15	0.545433188288	0.542015075202	-0.296094046149	0.62451171875	0.138671875	0.19580078125	-53.375	44.8125	-22.25
18	12	13	20	18	15	0.553310184141	0.535059798586	-0.293410044696	0.58056640625	0.1513671875	0.20361328125	-35.875	42.4375	-21.625
18	12	13	20	18	15	0.559833471507	0.529803154457	-0.289621655288	0.568359375	0.17626953125	0.2275390625	-22.625	37.375	-21.4375
18	12	13	20	18	15	0.565384613518	0.525954789451	-0.285591558529	0.560546875	0.19140625	0.25048828125	-15.0	30.3125	-21.625
18	12	13	20	18	15	0.570394237215	0.522968199514	-0.282053693972	0.55859375	0.2080078125	0.29150390625	-12.9375	20.6875	-21.125
18	12	13	20	18	15	0.574843036193	0.520703540217	-0.27991401189	0.57177734375	0.21728515625	0.3408203125	-13.625	7.6875	-19.3125
18	12	13	20	18	15	0.57840949822	0.519628541404	-0.279682600342	0.60888671875	0.21435546875	0.3828125	-14.5625	-8.9375	-17.25
18	12	13	20	18	15	0.580778095306	0.520167202123	-0.281385919008	0.65966796875	0.22705078125	0.4130859375	-13.5	-27.3125	-14.75
18	12	13	20	18	15	0.581510730883	0.522608888194	-0.285109333889	0.72216796875	0.23876953125	0.41552734375	-10.1875	-45.625	-11.125
18	12	13	20	18	15	0.580837861034	0.526880245528	-0.29072412065	0.76611328125	0.26220703125	0.38330078125	-9.25	-62.25	-8.0625
18	12	13	20	18	15	0.579860371186	0.531762479344	-0.29853653426	0.81005859375	0.30224609375	0.35791015625	-16.4375	-75.3125	-4.9375
18	12	13	20	18	16	0.579606006672	0.536147763543	-0.30896857685	0.8203125	0.3388671875	0.3017578125	-33.5625	-85.375	-3.125
18	12	13	20	18	16	0.579116127126	0.54054093822	-0.320869886204	0.84375	0.3251953125	0.259765625	-39.4375	-92.5625	-2.6875
18	12	13	20	18	16	0.578404679602	0.54507743656	-0.332967235883	0.87548828125	0.314453125	0.2412109375	-39.375	-95.9375	-4.75
18	12	13	20	18	16	0.577106943033	0.549945378818	-0.344066825793	0.88720703125	0.29931640625	0.216796875	-32.6875	-93.0	-7.0
18	12	13	20	18	16	0.574736649308	0.55599789067	-0.352984499039	0.91259765625	0.30908203125	0.2041015625	-17.125	-89.3125	-9.625
18	12	13	20	18	16	0.571797713313	0.562459001727	-0.360669586675	0.9501953125	0.3564453125	0.181640625	-9.25	-84.875	-8.625
18	12	13	20	18	16	0.569719338832	0.567827191896	-0.367686875629	1.00634765625	0.42138671875	0.17529296875	-12.8125	-77.8125	-6.625
18	12	13	20	18	16	0.569735990559	0.570773649852	-0.375937857923	1.12841796875	0.49365234375	0.169921875	-32.9375	-74.5	-4.5
18	12	13	20	18	16	0.571125034534	0.570087402217	-0.388013449239	1.32080078125	0.4990234375	0.2041015625	-60.0	-80.375	6.3125
18	12	13	20	18	16	0.568565680187	0.569481244889	-0.400651113768	1.56005859375	0.3427734375	0.22119140625	-37.5625	-80.6875	16.0
18	12	13	20	18	16	0.563935693704	0.572481098739	-0.406395048022	1.6474609375	0.24853515625	0.18212890625	6.625	-58.0625	-4.5
18	12	13	20	18	16	0.560152105614	0.576510475921	-0.407494328983	1.5634765625	0.373046875	0.13037109375	21.875	-36.0	-8.4375
18	12	13	20	18	16	0.555936273458	0.581328180546	-0.404988710407	1.333984375	0.48876953125	0.0654296875	40.1875	-14.375	0.5
18	12	13	20	18	16	0.555625323349	0.584618185986	-0.400528767639	1.10595703125	0.5439453125	0.03369140625	23.75	3.25	-8.0
18	12	13	20	18	16	0.555621831238	0.585346958318	-0.397535426437	0.9658203125	0.44384765625	0.02392578125	14.3125	11.8125	3.0
18	12	13	20	18	16	0.554008548318	0.584281572441	-0.393793450892	0.81640625	0.27392578125	0.08740234375	28.75	28.25	16.8125
18	12	13	20	18	16	0.549821530475	0.584978857468	-0.385570893429	0.77099609375	0.15234375	0.150390625	65.375	43.9375	11.875
18	12	13	20	18	16	0.542305106932	0.590828749026	-0.371648373225	0.7822265625	0.16064453125	0.17529296875	109.25	52.625	-0.8125
18	12	13	20	18	16	0.535479122079	0.595356589167	-0.357860947538	0.81103515625	0.2275390625	0.1767578125	102.0625	56.5625	0.9375
18	12	13	20	18	16	0.531260568498	0.598034357783	-0.342780256513	0.76416015625	0.27978515625	0.11572265625	90.625	66.8125	-5.25
18	12	13	20	18	16	0.529147813755	0.5990986033	-0.32796299496	0.76025390625	0.25634765625	0.12939453125	75.3125	70.5	-12.6875
18	12	13	20	18	16	0.529019931006	0.598054376831	-0.314775099135	0.7939453125	0.23388671875	0.15185546875	55.125	70.6875	-15.25
18	12	13	20	18	16	0.530604167098	0.59536558678	-0.303359336303	0.82568359375	0.2021484375	0.14794921875	36.6875	70.0625	-19.0
18	12	13	20	18	16	0.533710532339	0.591512896718	-0.293467547974	0.8642578125	0.18115234375	0.15185546875	20.8125	68.1875	-23.0625
18	12	13	20	18	16	0.537979919517	0.586565353592	-0.285103721814	0.90234375	0.171875	0.1396484375	6.5625	67.25	-24.75
18	12	13	20	18	16	0.542809411059	0.580530789225	-0.278088347777	0.88671875	0.16455078125	0.13037109375	-3.5625	68.1875	-21.875
18	12	13	20	18	16	0.547746063445	0.573564715644	-0.272225032646	0.84814453125	0.15576171875	0.13037109375	-10.5625	68.875	-16.625
18	12	13	20	18	16	0.552514067659	0.566186532435	-0.266918252085	0.83056640625	0.13818359375	0.12890625	-12.8125	69.3125	-13.8125
18	12	13	20	18	16	0.556838677656	0.55873081829	-0.261847849078	0.82177734375	0.12646484375	0.12939453125	-12.375	69.875	-11.6875
18	12	13	20	18	16	0.560331229105	0.551480681369	-0.256787960876	0.81640625	0.12744140625	0.126953125	-8.625	70.875	-7.9375
18	12	13	20	18	16	0.563024749409	0.54428574268	-0.25166424998	0.8095703125	0.13623046875	0.126953125	-5.375	72.125	-3.25
18	12	13	20	18	16	0.565014125503	0.537120482276	-0.246648166918	0.80126953125	0.14453125	0.1318359375	-3.0625	73.0625	1.875
18	12	13	20	18	16	0.566064074085	0.530112840568	-0.241831557206	0.806640625	0.1318359375	0.1357421875	0.4375	72.6875	6.0
18	12	13	20	18	16	0.566318288235	0.52353006663	-0.237135864388	0.82373046875	0.13623046875	0.12255859375	3.5	72.5	9.0625
18	12	13	20	18	16	0.565832710791	0.517611800163	-0.232253879672	0.8466796875	0.15283203125	0.111328125	7.375	72.1875	10.8125
18	12	13	20	18	16	0.564715996505	0.512346095402	-0.227180386834	0.85791015625	0.17041015625	0.123046875	11.5625	70.0	12.375
18	12	13	20	18	16	0.563127241304	0.507644620196	-0.222479817315	0.87744140625	0.1875	0.130859375	12.5	66.0625	14.0
18	12	13	20	18	16	0.561366014231	0.503257887065	-0.218576894309	0.89208984375	0.205078125	0.15576171875	10.4375	60.5	15.9375
18	12	13	20	18	16	0.559526532263	0.499344012266	-0.215765931226	0.92138671875	0.22509765625	0.181640625	7.0625	52.8125	17.0625
18	12	13	20	18	16	0.557565014325	0.496162671204	-0.214175767407	0.94677734375	0.24853515625	0.20751953125	3.6875	42.625	17.875
18	12	13	20	18	16	0.555149761064	0.4941107549	-0.213575482569	0.95703125	0.26416015625	0.2626953125	4.5625	29.9375	19.625
18	12	13	20	18	16	0.551976848414	0.494050714482	-0.21412526642	0.998046875	0.27099609375	0.31591796875	8.0	12.3125	18.875
18	12	13	20	18	16	0.547987490096	0.49659458893	-0.216191990412	1.06787109375	0.2802734375	0.35595703125	11.25	-9.3125	16.5
18	12	13	20	18	16	0.543234451617	0.50172889801	-0.220223584431	1.12451171875	0.30419921875	0.380859375	11.6875	-33.0	16.125
18	12	13	20	18	16	0.536820881923	0.509476282139	-0.226020207591	1.169921875	0.3349609375	0.43359375	16.9375	-58.0	21.0
18	12	13	20	18	16	0.528872309374	0.520571486053	-0.234193081485	1.26025390625	0.34130859375	0.45361328125	20.6875	-89.25	20.875
18	12	13	20	18	16	0.520285952147	0.533531148254	-0.245860137875	1.27197265625	0.39111328125	0.40673828125	11.5	-117.625	24.0625
18	12	13	20	18	16	0.510754247956	0.546826877084	-0.260931454351	1.16650390625	0.435546875	0.2939453125	0.4375	-135.3125	34.0
18	12	13	20	18	16	0.501003569801	0.559356324763	-0.27772493209	0.9951171875	0.46142578125	0.16162109375	-8.8125	-140.25	40.0
18	12	13	20	18	16	0.491362330944	0.571017963475	-0.29408493298	0.85693359375	0.45361328125	0.078125	-10.6875	-136.125	39.875
18	12	13	20	18	17	0.481940931483	0.583199797406	-0.306950474218	0.8623046875	0.373046875	0.03662109375	3.0	-127.5	25.75
18	12	13	20	18	17	0.473210712185	0.596442032694	-0.314456544458	0.98486328125	0.31103515625	-0.0224609375	21.6875	-112.75	3.625
18	12	13	20	18	17	0.465486732762	0.610882667385	-0.316733629203	1.07177734375	0.33642578125	-0.078125	37.1875	-93.125	-14.25
18	12	13	20	18	17	0.459847381199	0.624157063996	-0.316045890609	1.0634765625	0.400390625	-0.10400390625	37.25	-76.0625	-24.1875
18	12	13	20	18	17	0.458260690423	0.63441150989	-0.315923992226	1.033203125	0.45849609375	-0.1025390625	12.1875	-65.8125	-27.875
18	12	13	20	18	17	0.461450576451	0.640415270916	-0.318803751429	0.9873046875	0.46630859375	-0.05859375	-26.25	-60.0	-27.1875
18	12	13	20	18	17	0.469073471781	0.642175926689	-0.325024884481	0.9228515625	0.43896484375	-0.00537109375	-64.9375	-57.375	-25.0625
18	12	13	20	18	17	0.479742825467	0.640755748314	-0.332951286631	0.87744140625	0.384765625	0.06005859375	-88.75	-52.875	-26.8125
18	12	13	20	18	17	0.491842124072	0.63753921394	-0.340224373241	0.85205078125	0.31591796875	0.1181640625	-95.25	-45.0	-33.125
18	12	13	20	18	17	0.504053391651	0.633698512003	-0.345415129977	0.83349609375	0.265625	0.16162109375	-87.375	-34.8125	-39.5
18	12	13	20	18	17	0.515526128702	0.62978908311	-0.348160198688	0.798828125	0.2509765625	0.2099609375	-73.75	-24.0625	-41.6875
18	12	13	20	18	17	0.526273199451	0.625887889953	-0.349139724062	0.76025390625	0.2568359375	0.22607421875	-62.0	-14.875	-40.375
18	12	13	20	18	17	0.535971644673	0.622095775255	-0.349196421726	0.72021484375	0.26123046875	0.2216796875	-53.0	-8.4375	-36.875
18	12	13	20	18	17	0.544518129448	0.618312818216	-0.348892010753	0.6796875	0.24169921875	0.2021484375	-45.9375	-3.1875	-31.8125
18	12	13	20	18	17	0.55213958087	0.614519268207	-0.348215377942	0.6552734375	0.2265625	0.18603515625	-39.875	2.25	-27.6875
18	12	13	20	18	17	0.558727744912	0.610852880826	-0.346870196017	0.64404296875	0.21044921875	0.1787109375	-30.9375	8.125	-24.25
18	12	13	20	18	17	0.563914192667	0.607799278123	-0.344610837948	0.6455078125	0.1982421875	0.158203125	-19.6875	14.0625	-21.25
18	12	13	20	18	17	0.56797772905	0.60527320379	-0.341397037999	0.65576171875	0.1962890625	0.1474609375	-9.1875	19.3125	-19.0
18	12	13	20	18	17	0.571314587924	0.602932211487	-0.337600532672	0.67333984375	0.20703125	0.140625	-3.0	23.9375	-16.3125
18	12	13	20	18	17	0.574436671262	0.600317146091	-0.333638385413	0.689453125	0.22998046875	0.142578125	-1.5	28.0625	-12.4375
18	12	13	20	18	17	0.577535220241	0.597067165969	-0.33002884547	0.7216796875	0.24169921875	0.134765625	-3.75	31.25	-8.5625
18	12	13	20	18	17	0.580826099006	0.59309449391	-0.32691305026	0.7626953125	0.2626953125	0.14453125	-8.0625	33.1875	-4.875
18	12	13	20	18	17	0.584073883955	0.588590705714	-0.32441767094	0.810546875	0.28076171875	0.15283203125	-10.75	33.625	-1.0625
18	12	13	20	18	17	0.587040280274	0.583805394139	-0.322573079772	0.861328125	0.30859375	0.162109375	-12.375	32.5625	3.1875
18	12	13	20	18	17	0.589208667064	0.579137245737	-0.321064704108	0.89013671875	0.33984375	0.1748046875	-9.5	31.4375	9.6875
18	12	13	20	18	17	0.589863824817	0.575092814303	-0.319713029221	0.9091796875	0.3681640625	0.19482421875	-1.0625	29.625	17.875
18	12	13	20	18	17	0.588700804514	0.572159807311	-0.318124270931	0.9267578125	0.39599609375	0.19677734375	10.5625	27.875	25.1875
18	12	13	20	18	17	0.585777963781	0.570457523131	-0.316113793312	0.92919921875	0.4169921875	0.18408203125	22.25	26.5625	31.125
18	12	13	20	18	17	0.581008755907	0.570144215666	-0.313301601436	0.9189453125	0.44189453125	0.18017578125	36.625	25.9375	36.8125
18	12	13	20	18	17	0.574185894842	0.571500216159	-0.309524468241	0.95654296875	0.4609375	0.203125	53.0	22.3125	40.0
18	12	13	20	18	17	0.565859678205	0.574892925145	-0.305116226011	1.1005859375	0.4794921875	0.22509765625	65.8125	14.125	35.625
18	12	13	20	18	17	0.557628640969	0.579357602898	-0.301397792152	1.28076171875	0.5244140625	0.2041015625	62.9375	5.0625	27.8125
18	12	13	20	18	17	0.55136589425	0.58304517014	-0.300251171683	1.41845703125	0.5673828125	0.1083984375	38.25	-0.1875	22.8125
18	12	13	20	18	17	0.548552832404	0.583405805288	-0.30281190626	1.37890625	0.58203125	0.00927734375	-0.5625	2.25	26.3125
18	12	13	20	18	17	0.548175792557	0.580281400717	-0.308421365081	1.22119140625	0.52685546875	-0.05908203125	-31.0	8.6875	34.625
18	12	13	20	18	17	0.549528056918	0.574981039227	-0.314835690057	1.04638671875	0.4609375	-0.07958984375	-45.3125	15.875	36.5
18	12	13	20	18	17	0.550925025427	0.569358368844	-0.319470594182	0.9111328125	0.39013671875	-0.0517578125	-37.9375	23.6875	34.0625
18	12	13	20	18	17	0.55160321001	0.565153714892	-0.320573205596	0.85595703125	0.3134765625	-0.001953125	-16.25	30.0	23.0
18	12	13	20	18	17	0.551608332404	0.563449874562	-0.317646316458	0.91796875	0.27880859375	0.0546875	7.625	32.9375	4.8125
