19	01	29	08	46	06	0.550308166037	0.21320168855	0.271797056717	-1.70458984375	0.93408203125	1.0966796875	-118.25	199.6875	-51.0
19	01	29	08	46	06	0.53126786687	0.21320297093	0.308848277385	-3.1455078125	-0.2177734375	1.228515625	-139.1875	147.3125	-126.5
19	01	29	08	46	06	0.520524634511	0.230415161266	0.303903864356	-2.5625	-1.33642578125	1.5673828125	94.875	73.5625	-23.5
19	01	29	08	46	06	0.501280449766	0.26910331219	0.260314272282	-1.9306640625	-0.3544921875	1.2255859375	362.0	41.9375	-8.625
19	01	29	08	46	07	0.486998943871	0.292602197884	0.229919165505	-1.28564453125	0.31005859375	1.1650390625	234.75	21.3125	-16.5
19	01	29	08	46	07	0.477359093076	0.295412096981	0.224122566139	-0.5068359375	-0.1435546875	1.02587890625	60.6875	22.0625	-43.625
19	01	29	08	46	07	0.470653004382	0.290228898435	0.221928974703	0.146484375	-0.34765625	0.99951171875	28.0	22.4375	-33.8125
19	01	29	08	46	07	0.470899328659	0.28351618686	0.218084679365	0.8232421875	-0.40185546875	0.95556640625	18.375	38.875	13.3125
19	01	29	08	46	07	0.469906874991	0.292295625969	0.218199386686	1.259765625	-0.40625	0.8466796875	21.5625	46.3125	13.1875
19	01	29	08	46	07	0.466984057359	0.300417661786	0.222780265241	1.2138671875	-0.3837890625	0.86767578125	2.4375	57.75	-4.1875
19	01	29	08	46	07	0.463017854445	0.289004685051	0.216494111484	0.6474609375	0.01611328125	0.7333984375	10.8125	-11.5625	-40.8125
19	01	29	08	46	07	0.468568987457	0.258240899561	0.215943347352	0.546875	-0.240234375	0.861328125	-72.9375	-96.25	-17.125
19	01	29	08	46	07	0.478897855043	0.223457181661	0.211799076854	0.2353515625	-0.53173828125	0.9365234375	-77.5	-182.25	2.875
19	01	29	08	46	07	0.488593925784	0.180972016234	0.194033740171	0.0	-0.5615234375	1.21630859375	-29.375	-262.125	-3.25
19	01	29	08	46	07	0.50517194053	0.130183852743	0.180475223891	-0.0390625	-0.4443359375	1.8056640625	-90.625	-289.5	32.0
19	01	29	08	46	07	0.518911335503	0.0774521859272	0.174496295954	-1.16357421875	-0.43359375	2.01953125	-135.75	-291.5	15.625
19	01	29	08	46	07	0.52502132284	0.0141600728783	0.180540929198	-2.2041015625	0.04345703125	2.82861328125	-221.6875	-290.0	-31.875
19	01	29	08	46	07	0.528507184378	-0.0443728748173	0.197389102007	-2.5791015625	-0.43896484375	2.44921875	-264.4375	-231.875	-24.25
19	01	29	08	46	07	0.535395474196	-0.0884391292876	0.191648630754	-2.27197265625	-0.80859375	2.14599609375	-112.5	-235.375	1.625
19	01	29	08	46	07	0.54223487677	-0.115844416491	0.181395998847	-2.0166015625	0.630859375	1.771484375	-38.625	-170.25	13.75
19	01	29	08	46	07	0.546007655901	-0.135861059919	0.178584663667	-1.7099609375	0.65625	0.89501953125	-52.0	-109.1875	10.5
19	01	29	08	46	07	0.55088459426	-0.146113197281	0.179742425227	-1.5048828125	0.38427734375	-0.03369140625	-39.0	-52.875	29.75
19	01	29	08	46	07	0.564197344733	-0.135739387136	0.187251996283	-1.15625	0.6044921875	-0.5888671875	-17.875	-19.8125	72.4375
19	01	29	08	46	07	0.576408280071	-0.117613167693	0.187009209036	-0.5712890625	0.888671875	-0.60888671875	27.0625	27.5625	75.1875
19	01	29	08	46	07	0.583924515588	-0.0846559321753	0.182434449367	-0.478515625	0.92041015625	-0.65087890625	94.0625	92.0625	49.875
19	01	29	08	46	07	0.584231966371	-0.047668738585	0.177369211688	-0.14306640625	0.75244140625	-0.615234375	142.625	147.75	21.375
19	01	29	08	46	07	0.575858141925	-0.00311274671311	0.175656569418	0.2734375	0.57080078125	-0.37451171875	155.375	210.1875	-19.625
19	01	29	08	46	07	0.558093593282	0.0476064088758	0.182369166309	0.3603515625	0.2880859375	-0.2802734375	142.8125	276.875	-61.8125
19	01	29	08	46	07	0.531961736178	0.0958825020118	0.204826019575	0.1259765625	0.080078125	-0.03955078125	64.75	322.75	-102.125
19	01	29	08	46	07	0.500195796142	0.142520705795	0.248480425393	-0.6435546875	-0.109375	0.73193359375	-45.0	385.5	-123.4375
19	01	29	08	46	07	0.45867921716	0.179992682822	0.282470714174	-3.51806640625	-0.27734375	1.283203125	-9.8125	328.0	-186.0625
19	01	29	08	46	07	0.441098726884	0.208250844905	0.295896862866	-3.16552734375	-1.32666015625	2.01611328125	26.3125	199.125	-46.5
19	01	29	08	46	07	0.419915646755	0.248836641253	0.273250341646	-2.60400390625	-0.90576171875	1.9130859375	247.75	160.5625	-23.0
19	01	29	08	46	07	0.403634711815	0.279730513269	0.256536623886	-1.8427734375	-0.142578125	1.6669921875	182.5625	126.875	-13.8125
19	01	29	08	46	07	0.39935553192	0.300538994219	0.255738908566	-0.984375	-0.57080078125	1.51171875	53.6875	118.25	26.5625
19	01	29	08	46	07	0.400089903456	0.313602124174	0.25006381914	-0.39404296875	-0.505859375	1.18310546875	61.0	95.0625	61.875
19	01	29	08	46	07	0.402272411479	0.320731531227	0.236444139291	0.18115234375	-0.251953125	0.9287109375	80.0	53.8125	59.375
19	01	29	08	46	07	0.404849978473	0.316165066861	0.224123190254	0.71923828125	-0.05322265625	0.97412109375	42.8125	21.375	28.5
19	01	29	08	46	07	0.40387233032	0.314821441709	0.22619780205	1.17578125	-0.07373046875	1.1484375	-10.6875	-1.25	-11.125
19	01	29	08	46	07	0.399540860761	0.309635011708	0.226015858142	1.38818359375	-0.43212890625	1.1103515625	1.75	-26.5625	-36.375
19	01	29	08	46	07	0.395999618788	0.30005149907	0.218874018646	1.60498046875	-0.7119140625	0.97216796875	27.875	-70.25	-33.0
19	01	29	08	46	07	0.397288638511	0.279914840408	0.2032525989	1.64013671875	-0.64990234375	0.8154296875	39.9375	-151.6875	-15.1875
19	01	29	08	46	07	0.411188466491	0.242306399283	0.184445828371	1.34765625	-0.4638671875	0.83154296875	-5.75	-257.25	33.1875
19	01	29	08	46	07	0.439632598753	0.184507753163	0.164366317984	0.9228515625	-0.3125	1.0546875	-70.75	-346.0625	101.0
19	01	29	08	46	07	0.471018492954	0.115358941517	0.146792727168	0.2822265625	-0.1640625	1.544921875	-123.6875	-402.0	113.625
19	01	29	08	46	07	0.498839709494	0.0378417496496	0.139526193063	-0.67431640625	-0.06591796875	3.017578125	-198.625	-422.5625	98.0
19	01	29	08	46	07	0.511523763412	-0.0410146723557	0.154110190027	-2.25390625	0.49951171875	4.01220703125	-308.8125	-353.375	24.875
19	01	29	08	46	07	0.512675887616	-0.114924844807	0.18096238176	-3.208984375	0.1376953125	4.314453125	-359.0	-283.875	-15.375
19	01	29	08	46	07	0.519100589793	-0.158263119263	0.172850425666	-3.14404296875	-1.0888671875	2.97119140625	-94.4375	-243.375	8.125
19	01	29	08	46	07	0.5352012255	-0.171198476169	0.125606582516	-2.4482421875	-0.0869140625	1.955078125	194.8125	-221.8125	32.875
19	01	29	08	46	07	0.557668876159	-0.179257249565	0.0860581279834	-1.6455078125	0.61572265625	0.9736328125	174.375	-186.875	96.75
19	01	29	08	46	07	0.573238008385	-0.190428299208	0.0802606453392	-1.04345703125	0.48974609375	0.3876953125	-9.1875	-109.375	97.375
19	01	29	08	46	07	0.585200029174	-0.200315654542	0.0937491911568	-0.9814453125	0.02734375	-0.3681640625	-84.5625	-33.875	100.4375
19	01	29	08	46	07	0.601481111865	-0.197625148678	0.105160015803	-0.75	0.16650390625	-0.6220703125	-28.25	16.75	127.125
19	01	29	08	46	08	0.62463489669	-0.170410458429	0.100097833747	-0.48681640625	0.5751953125	-0.8544921875	131.8125	69.625	149.8125
19	01	29	08	46	08	0.642935118384	-0.125852687878	0.0886217763332	-0.3564453125	0.99365234375	-0.7353515625	211.875	131.125	111.75
19	01	29	08	46	08	0.64251448327	-0.0738522394563	0.0807491841328	-0.23583984375	1.0419921875	-0.591796875	214.125	197.0	-11.25
19	01	29	08	46	08	0.622208741665	-0.0286872776714	0.0932031340516	-0.576171875	0.8642578125	-0.33544921875	98.1875	249.9375	-132.25
19	01	29	08	46	08	0.591663002864	0.0113523126194	0.126828524856	-0.73046875	0.0185546875	0.02685546875	-2.4375	306.25	-180.6875
19	01	29	08	46	08	0.560257333018	0.0615251543395	0.169011063855	-1.322265625	-0.75390625	1.15966796875	-3.375	378.875	-153.625
19	01	29	08	46	08	0.525446937848	0.1257312919	0.182737615509	-2.67529296875	-0.677734375	1.98095703125	167.5	371.625	-145.625
19	01	29	08	46	08	0.489628768621	0.191774319497	0.180604777655	-2.6806640625	0.02685546875	2.37451171875	245.75	335.6875	-127.8125
19	01	29	08	46	08	0.456964789561	0.236203250381	0.195310181194	-2.6787109375	0.38818359375	2.521484375	94.375	283.0	-136.5
19	01	29	08	46	08	0.438842078642	0.264281808139	0.219176899083	-1.89892578125	-0.455078125	2.29150390625	-21.125	223.625	-75.5625
19	01	29	08	46	08	0.427904185357	0.290762450298	0.22142866702	-0.998046875	-0.39453125	1.96240234375	68.75	161.0625	-10.25
19	01	29	08	46	08	0.420526545386	0.312861984274	0.211300856332	-0.03759765625	0.07666015625	1.5234375	109.1875	109.9375	13.5625
19	01	29	08	46	08	0.419373556897	0.314698014752	0.193848117698	0.720703125	0.0986328125	1.2275390625	83.625	55.125	17.625
19	01	29	08	46	08	0.41918175698	0.319696278838	0.185726570543	1.34033203125	-0.1572265625	1.04248046875	50.8125	4.3125	19.0625
19	01	29	08	46	08	0.423760576462	0.315485873503	0.176571993044	1.95458984375	-0.5205078125	0.806640625	26.4375	-49.375	30.9375
19	01	29	08	46	08	0.432603486924	0.299001761067	0.166315533559	2.2333984375	-0.673828125	0.54150390625	-3.4375	-118.75	34.9375
19	01	29	08	46	08	0.443478916799	0.268064877867	0.153868751617	1.88134765625	-0.708984375	0.42236328125	-29.0625	-201.5625	26.125
19	01	29	08	46	08	0.458428731312	0.220028701422	0.14513959833	1.10009765625	-0.57421875	0.51806640625	-88.9375	-257.8125	30.1875
19	01	29	08	46	08	0.47637424014	0.16296210393	0.142576582315	0.4814453125	-0.3955078125	0.8427734375	-152.75	-290.1875	37.5625
19	01	29	08	46	08	0.491012058502	0.0985075776784	0.142268378915	-0.08447265625	-0.37353515625	1.560546875	-185.375	-322.9375	16.0625
19	01	29	08	46	08	0.500728011257	0.0351559403321	0.145689634675	-0.73828125	-0.13818359375	2.82177734375	-201.75	-308.0	-2.5625
19	01	29	08	46	08	0.498276876952	-0.0261223056511	0.157405201575	-2.35205078125	0.25634765625	3.90625	-233.25	-264.125	-64.6875
19	01	29	08	46	08	0.492906209184	-0.0821510348641	0.169428880225	-3.10009765625	-0.57470703125	3.587890625	-222.375	-235.3125	-67.0625
19	01	29	08	46	08	0.499145994063	-0.119995234083	0.150268701074	-2.71142578125	-0.5283203125	3.18798828125	-15.4375	-246.6875	-2.875
19	01	29	08	46	08	0.505538876151	-0.143428269824	0.119381147139	-2.54931640625	0.70166015625	2.0498046875	84.875	-209.0	-3.0
19	01	29	08	46	08	0.512250546769	-0.16405688904	0.103023820201	-1.98388671875	0.60888671875	1.24267578125	21.0	-156.5	21.3125
19	01	29	08	46	08	0.523550784906	-0.168942477573	0.098814259823	-1.8232421875	-0.06787109375	0.0810546875	11.9375	-49.625	69.125
19	01	29	08	46	08	0.545848657576	-0.160769916589	0.101259412157	-1.46923828125	-0.17724609375	-0.9921875	26.875	21.0	152.5
19	01	29	08	46	08	0.578242739466	-0.138670836401	0.103087606814	-0.8505859375	0.435546875	-1.24169921875	79.6875	73.0625	224.75
19	01	29	08	46	08	0.602837170968	-0.100279586099	0.104124755864	-0.18701171875	1.0146484375	-1.1875	134.5	154.375	177.8125
19	01	29	08	46	08	0.608028900296	-0.0532833999155	0.112792351711	0.2890625	0.81298828125	-0.623046875	115.4375	241.875	59.6875
19	01	29	08	46	08	0.593630996974	0.00305177358099	0.130921086624	0.28076171875	0.505859375	-0.30517578125	109.5625	332.9375	-57.4375
19	01	29	08	46	08	0.564637688154	0.0566407712255	0.16583294765	-0.07373046875	0.02734375	0.07421875	32.75	384.5	-135.625
19	01	29	08	46	08	0.524467606863	0.111997912091	0.2172210186	-1.13134765625	-0.52880859375	1.12451171875	-33.6875	449.375	-180.625
19	01	29	08	46	08	0.47920339452	0.171026354789	0.256417457697	-3.48876953125	-0.88916015625	1.841796875	30.875	447.625	-182.8125
19	01	29	08	46	08	0.45143120006	0.230842725612	0.26203273957	-3.44775390625	-1.21435546875	2.03564453125	164.5	339.125	-46.625
19	01	29	08	46	08	0.430734176634	0.281927329159	0.251287034888	-2.75537109375	-0.1259765625	2.177734375	208.0625	245.875	-2.6875
19	01	29	08	46	08	0.419007956974	0.318116456191	0.249756818636	-1.81494140625	0.078125	1.796875	105.875	194.0625	16.1875
19	01	29	08	46	08	0.416184338285	0.343371914825	0.250174454118	-0.3837890625	-0.23291015625	1.64501953125	50.125	156.5	46.25
19	01	29	08	46	08	0.414680503826	0.367682566242	0.241459533873	0.85107421875	-0.41796875	1.42822265625	90.5	107.875	62.5625
19	01	29	08	46	08	0.409058985619	0.384156558563	0.226807399367	1.87109375	-0.45556640625	1.21337890625	117.0	49.375	29.375
19	01	29	08	46	08	0.405455076336	0.380674892535	0.215209182472	2.662109375	-0.39501953125	0.978515625	61.4375	-53.1875	-11.125
19	01	29	08	46	08	0.409537751563	0.354973407316	0.207759538945	2.2109375	-0.0966796875	1.14599609375	-20.0625	-166.0625	-23.5625
19	01	29	08	46	08	0.417472803981	0.311761854201	0.198787854176	1.1005859375	-0.56298828125	0.9169921875	-57.25	-264.3125	-33.5
19	01	29	08	46	08	0.431828805908	0.251223655847	0.187563239655	0.744140625	-0.63525390625	0.9345703125	-92.5625	-339.75	-10.1875
19	01	29	08	46	08	0.449229673139	0.184147544003	0.175053084587	0.1494140625	-0.3154296875	1.724609375	-118.5625	-374.8125	6.0625
19	01	29	08	46	08	0.464410581934	0.118772899519	0.169614536364	-1.03271484375	0.2724609375	2.84912109375	-153.5	-355.625	2.8125
19	01	29	08	46	08	0.464423296374	0.0482795147105	0.178164226852	-3.3095703125	0.267578125	3.09912109375	-225.125	-329.4375	-88.125
19	01	29	08	46	08	0.471064136344	-0.0168455171846	0.18194379249	-3.5478515625	-1.0634765625	3.078125	-197.75	-319.75	-25.8125
19	01	29	08	46	08	0.488151667494	-0.0492546131118	0.147031428731	-3.291015625	-0.72216796875	2.0400390625	82.375	-273.1875	58.1875
19	01	29	08	46	09	0.512861580495	-0.0691505617876	0.121455973484	-2.5439453125	0.650390625	0.81103515625	67.3125	-193.875	130.8125
19	01	29	08	46	09	0.535018675588	-0.0917331815434	0.130611449436	-1.7216796875	0.78271484375	0.04931640625	-114.1875	-105.0	146.5625
19	01	29	08	46	09	0.553414002106	-0.0952162615293	0.146669664394	-0.9677734375	0.76904296875	-0.52001953125	-97.75	-4.8125	134.75
19	01	29	08	46	09	0.5695855303	-0.0727546026701	0.146180598486	-0.2685546875	0.79345703125	-0.77978515625	66.4375	79.6875	119.8125
19	01	29	08	46	09	0.57844855512	-0.0306406219975	0.141545024725	-0.2158203125	0.85009765625	-0.8837890625	150.25	165.5	81.0
19	01	29	08	46	09	0.57775264967	0.0152586269192	0.13873143595	0.02880859375	0.55029296875	-0.8544921875	160.25	200.1875	27.25
19	01	29	08	46	09	0.564869753929	0.0581043766332	0.147885403973	-0.01025390625	0.33349609375	-0.43994140625	101.0625	236.0	-45.9375
19	01	29	08	46	09	0.545464211488	0.0949694878679	0.176145206932	-0.26708984375	0.29150390625	0.07275390625	-6.875	274.0625	-84.0
19	01	29	08	46	09	0.520328496568	0.122620521948	0.222902014013	-1.4169921875	-0.189453125	0.888671875	-117.875	285.375	-123.0625
19	01	29	08	46	09	0.492308871561	0.144225869514	0.257140748312	-2.84814453125	-0.34423828125	1.53271484375	-71.4375	236.375	-139.125
19	01	29	08	46	09	0.476982984148	0.172666009233	0.262447451291	-2.38037109375	-1.4501953125	2.216796875	70.6875	169.4375	-39.5
19	01	29	08	46	09	0.458115579908	0.211602280248	0.236992112548	-2.02294921875	-0.38134765625	1.8232421875	259.4375	132.75	-30.6875
19	01	29	08	46	09	0.439098162566	0.238470464435	0.22076981568	-1.6171875	0.1533203125	1.43408203125	174.6875	95.0625	-60.0
19	01	29	08	46	09	0.428710418452	0.247558294027	0.216369366944	-0.703125	-0.0517578125	1.3203125	51.625	57.9375	-47.0625
19	01	29	08	46	09	0.421201138823	0.241697798832	0.210753156406	0.2109375	-0.24609375	1.4033203125	30.8125	27.5	-39.625
19	01	29	08	46	09	0.416077746715	0.248291664022	0.201721718189	0.88818359375	-0.36181640625	1.18359375	70.25	12.3125	-11.4375
19	01	29	08	46	09	0.413810148322	0.253107770662	0.18310183554	1.3232421875	-0.443359375	0.85205078125	110.1875	-23.8125	11.625
19	01	29	08	46	09	0.419378359477	0.250186566074	0.167360713387	1.72412109375	-0.30322265625	0.80029296875	63.5625	-59.5	43.75
19	01	29	08	46	09	0.43224809342	0.231565838243	0.156798270545	1.6123046875	-0.11572265625	0.7236328125	-10.6875	-130.3125	58.5625
19	01	29	08	46	09	0.454237198259	0.189397746063	0.154728741949	0.92236328125	-0.38671875	0.91552734375	-120.3125	-210.125	78.8125
19	01	29	08	46	09	0.478999861002	0.13189585877	0.149290731398	0.1767578125	-0.44482421875	1.32080078125	-147.75	-305.4375	84.1875
19	01	29	08	46	09	0.501403988844	0.0641479722793	0.13635258808	-0.53564453125	-0.23486328125	1.93408203125	-144.25	-385.875	69.0
19	01	29	08	46	09	0.521041275785	-0.016417957501	0.125118263484	-1.283203125	-0.40576171875	2.4658203125	-190.8125	-439.75	59.8125
19	01	29	08	46	09	0.535702968077	-0.0978388809192	0.119689360875	-1.396484375	-0.0966796875	3.4736328125	-226.3125	-423.3125	53.875
19	01	29	08	46	09	0.539301307618	-0.157408111402	0.115233235489	-2.13623046875	-0.18310546875	2.86328125	-167.375	-306.25	7.3125
19	01	29	08	46	09	0.551646208617	-0.195072060493	0.0917375803885	-1.88916015625	-0.3994140625	2.24658203125	-3.75	-270.0	53.6875
19	01	29	08	46	09	0.565063453407	-0.210876456202	0.0708007783487	-1.5556640625	0.69482421875	1.45654296875	55.6875	-158.875	65.875
19	01	29	08	46	09	0.577579029418	-0.218812302702	0.0614017228781	-1.58544921875	0.6640625	0.39404296875	28.125	-84.1875	76.0625
19	01	29	08	46	09	0.589042281439	-0.222653221706	0.0657339692373	-1.82763671875	0.74560546875	-0.388671875	-21.3125	-19.625	88.625
19	01	29	08	46	09	0.598925405725	-0.214289931672	0.0679917356545	-1.41015625	0.95068359375	-0.73046875	28.5	34.125	68.0625
19	01	29	08	46	09	0.606761434185	-0.184512605929	0.0585948070433	-1.236328125	0.9423828125	-1.00634765625	154.0625	98.6875	26.6875
19	01	29	08	46	09	0.611666973537	-0.143243103861	0.0456522546603	-1.14599609375	0.98388671875	-0.90234375	208.0	141.75	1.8125
19	01	29	08	46	09	0.606077274994	-0.0917355633752	0.0367430533279	-0.69189453125	0.8955078125	-0.482421875	205.1875	199.375	-63.0625
19	01	29	08	46	09	0.584113841562	-0.0396733539201	0.0437627611703	-0.5224609375	0.71533203125	0.23779296875	129.125	267.0625	-156.0
19	01	29	08	46	09	0.547043491913	0.013793576835	0.0786111812545	-0.7216796875	0.22265625	1.5498046875	7.5	370.9375	-232.125
19	01	29	08	46	09	0.506208668939	0.0825167736202	0.13628694933	-1.79345703125	-0.68310546875	2.63818359375	-50.75	528.9375	-214.625
19	01	29	08	46	09	0.472524317764	0.158260857138	0.170406599741	-3.49658203125	-1.36962890625	2.73828125	72.5	493.9375	-128.375
19	01	29	08	46	09	0.4454920382	0.21697824302	0.171202242383	-2.88525390625	-0.31298828125	2.7421875	181.375	313.875	-79.0625
19	01	29	08	46	09	0.423760038955	0.250484113477	0.178097622594	-1.86865234375	0.333984375	2.3203125	79.125	201.8125	-83.25
19	01	29	08	46	09	0.408278062676	0.26899109317	0.189337501932	-0.53857421875	-0.26513671875	2.14453125	12.0625	149.75	-69.5625
19	01	29	08	46	09	0.390755678561	0.291388255147	0.184635415128	0.17578125	-0.14697265625	1.5234375	104.125	133.5	-56.3125
19	01	29	08	46	09	0.372916893143	0.310479252932	0.172664793895	0.56103515625	0.0791015625	1.14453125	132.8125	99.75	-55.1875
19	01	29	08	46	09	0.360530190169	0.325618514399	0.16448770315	1.11376953125	0.1220703125	1.0009765625	95.8125	66.6875	-33.875
19	01	29	08	46	09	0.355584635547	0.334588906981	0.157773134722	1.60498046875	-0.0654296875	0.75048828125	60.625	35.1875	-3.375
19	01	29	08	46	09	0.358327389597	0.336782581468	0.146907516055	1.8056640625	-0.3662109375	0.3525390625	52.625	-13.8125	36.625
19	01	29	08	46	09	0.365834837241	0.327505795234	0.135738518189	1.80322265625	-0.43798828125	0.03076171875	23.375	-79.125	45.9375
19	01	29	08	46	09	0.378064966035	0.304453995896	0.120975906148	1.48486328125	-0.2890625	0.033203125	5.5	-164.3125	58.8125
19	01	29	08	46	09	0.401187828863	0.263552266093	0.104798342029	1.080078125	-0.2412109375	0.21435546875	-42.1875	-245.5625	105.3125
19	01	29	08	46	09	0.431993214231	0.213616311078	0.09313671163	0.7919921875	-0.29931640625	0.6650390625	-98.75	-277.875	142.9375
19	01	29	08	46	10	0.46330815837	0.160946332976	0.0875836131289	0.2333984375	-0.443359375	1.4853515625	-137.0	-275.6875	148.4375
19	01	29	08	46	10	0.489613438245	0.109677804603	0.0993020523592	-0.669921875	0.5400390625	3.3662109375	-222.6875	-229.875	114.8125
19	01	29	08	46	10	0.490667713455	0.0645149612043	0.13574387296	-3.69287109375	1.35107421875	3.44384765625	-308.1875	-120.5	-40.6875
19	01	29	08	46	10	0.495115267433	0.0100707617266	0.161132187626	-4.07470703125	-1.29736328125	3.0927734375	-283.375	-198.5625	-17.1875
19	01	29	08	46	10	0.511536976564	-0.0126343102433	0.132568704581	-2.91259765625	-0.63427734375	2.38330078125	69.8125	-207.25	74.8125
19	01	29	08	46	10	0.530271611231	-0.027648830558	0.0949703760447	-2.37451171875	0.43896484375	1.46044921875	135.125	-197.875	97.125
19	01	29	08	46	10	0.552368006646	-0.0539550627486	0.0877685296748	-1.43701171875	0.5927734375	0.9072265625	-49.875	-163.5625	136.25
19	01	29	08	46	10	0.567555471265	-0.0640247004362	0.0942365466859	-0.87060546875	0.28369140625	0.59228515625	-91.0625	-97.9375	92.875
19	01	29	08	46	10	0.579713796159	-0.0661012888229	0.0993655569748	-0.5478515625	0.23388671875	0.107421875	-48.5	-39.875	79.1875
19	01	29	08	46	10	0.590266961097	-0.0582271410285	0.0969231655695	-0.306640625	0.27392578125	-0.26171875	23.4375	-1.3125	69.5625
19	01	29	08	46	10	0.599918947908	-0.0450442754661	0.0952155416357	-0.35888671875	0.30322265625	-0.6591796875	41.6875	21.3125	66.0625
19	01	29	08	46	10	0.607427851203	-0.0335086304573	0.0933847078317	-0.22900390625	0.40673828125	-0.6455078125	28.6875	22.875	52.125
19	01	29	08	46	10	0.608333778669	-0.0236814995609	0.090026319207	0.09912109375	0.45556640625	-0.40234375	23.375	36.875	7.875
19	01	29	08	46	10	0.601677236423	-0.0130613642315	0.0919178249192	0.15966796875	0.431640625	-0.17529296875	3.375	68.5625	-43.0
19	01	29	08	46	10	0.588558499262	-0.00372312231204	0.107970547049	0.17529296875	0.25341796875	-0.1298828125	-41.4375	107.8125	-80.5
19	01	29	08	46	10	0.571101439263	0.00280759497768	0.134703524255	0.12890625	0.07568359375	0.21533203125	-98.0625	134.0	-104.0625
19	01	29	08	46	10	0.553589640544	0.0144653522391	0.168823478031	-0.138671875	-0.16943359375	0.61962890625	-115.5	179.3125	-91.375
19	01	29	08	46	10	0.53601892724	0.0327763794042	0.198184178632	-1.09033203125	-0.31591796875	1.091796875	-74.0625	183.3125	-85.5625
19	01	29	08	46	10	0.520927485433	0.0455315646319	0.20739444587	-1.75830078125	-0.35791015625	1.4755859375	6.5	103.8125	-78.8125
19	01	29	08	46	10	0.51036946569	0.0555412836376	0.203305511865	-1.69677734375	-0.265625	2.03564453125	60.0625	45.9375	-58.125
19	01	29	08	46	10	0.500789215641	0.065673271911	0.196592573258	-1.603515625	-0.23193359375	1.81005859375	72.4375	37.8125	-51.0625
19	01	29	08	46	10	0.496282460126	0.080079029355	0.193971917142	-1.37744140625	-0.509765625	1.2392578125	69.1875	5.1875	-23.5625
19	01	29	08	46	10	0.497316066783	0.0861819202623	0.183411239652	-0.98974609375	-0.56396484375	0.712890625	94.5	-49.75	10.0625
19	01	29	08	46	10	0.501822352548	0.0847763619179	0.168454110074	-0.55517578125	-0.2841796875	0.4970703125	78.0625	-79.375	24.375
19	01	29	08	46	10	0.505312303402	0.0784305242025	0.157593473534	-0.34619140625	-0.099609375	0.373046875	35.0	-80.875	11.625
