18	11	28	11	40	00	0.774145112426	0.0484031439055	0.631133049159	-0.2666015625	0.3935546875	0.5625	195.125	169.6875	-80.375
18	11	28	11	40	00	0.763996646495	0.0660417329638	0.641373872443	-0.51416015625	0.3056640625	0.7138671875	149.25	87.9375	-27.9375
18	11	28	11	40	00	0.769025729712	0.0841112354587	0.633214772604	-0.4033203125	0.658203125	0.87744140625	73.8125	3.625	30.875
18	11	28	11	40	00	0.784812658245	0.0910060408651	0.612993741387	-0.33056640625	0.478515625	0.95703125	-41.375	-77.4375	89.75
18	11	28	11	40	00	0.805074420237	0.0928368607416	0.585281168738	-0.36767578125	0.36328125	1.14794921875	-109.9375	-163.0625	157.0625
18	11	28	11	40	00	0.828501105997	0.106088184058	0.546372460014	-0.64013671875	0.7421875	1.48388671875	-75.5625	-222.875	217.0625
18	11	28	11	40	00	0.849152232644	0.131230398231	0.50209360737	-1.84423828125	1.33740234375	1.34130859375	-22.8125	-262.125	271.625
18	11	28	11	40	00	0.871071418746	0.147467489853	0.446736158209	-3.0380859375	1.50244140625	1.37109375	-92.8125	-310.3125	286.0
18	11	28	11	40	00	0.890290262397	0.158635979156	0.380994914156	-2.1826171875	1.15771484375	1.5693359375	-145.875	-344.0	326.375
18	11	28	11	40	00	0.901780778912	0.172128184414	0.314835877733	-2.8740234375	0.90283203125	1.15380859375	-120.75	-334.5625	324.875
18	11	28	11	40	00	0.909026648576	0.177312993629	0.246590187353	-2.5986328125	0.80908203125	0.6044921875	-155.25	-330.125	297.3125
18	11	28	11	40	00	0.910348813191	0.17603902221	0.186293722533	-2.0830078125	0.81884765625	0.30517578125	-162.875	-274.375	263.75
18	11	28	11	40	01	0.906171530262	0.168037870323	0.144660280663	-1.40478515625	0.70068359375	0.0791015625	-162.625	-184.5	233.8125
18	11	28	11	40	01	0.896343674278	0.160407979299	0.124517609501	-1.138671875	0.5703125	-0.21875	-109.875	-66.625	216.6875
18	11	28	11	40	01	0.884855053653	0.149174708638	0.126346827693	-1.04931640625	0.1259765625	-0.6787109375	-69.3125	51.375	170.6875
18	11	28	11	40	01	0.872542372399	0.145942554208	0.152351574782	-0.74267578125	-0.43603515625	-1.05224609375	44.5625	149.75	101.4375
18	11	28	11	40	01	0.85539385368	0.16138585337	0.200267392174	-0.30517578125	-0.95166015625	-1.107421875	210.75	215.125	66.5625
18	11	28	11	40	01	0.842992975462	0.170905823712	0.256480811157	-0.13232421875	-0.68115234375	-0.8251953125	215.4375	251.5625	-47.875
18	11	28	11	40	01	0.839272299662	0.163703876923	0.310561269868	-0.22998046875	-0.34033203125	-0.5009765625	143.375	253.5625	-174.1875
18	11	28	11	40	01	0.844117247391	0.145823711333	0.352259789912	-0.08984375	-0.57373046875	-0.279296875	81.25	195.3125	-261.375
18	11	28	11	40	01	0.854721025598	0.109441890945	0.379842101142	0.07763671875	-0.4931640625	0.2060546875	-35.8125	159.3125	-312.0625
18	11	28	11	40	01	0.860510692552	0.0652493921363	0.413897219903	0.05908203125	0.029296875	0.3779296875	-50.5625	215.75	-359.3125
18	11	28	11	40	01	0.862556768162	0.0202638584086	0.453190206878	-2.0224609375	-0.001953125	0.515625	-0.375	225.875	-442.0
18	11	28	11	40	01	0.866422564793	-0.0288705792989	0.463577272251	-4.32861328125	-0.3759765625	0.443359375	-124.0625	99.6875	-336.125
18	11	28	11	40	01	0.865586246895	-0.0536527967718	0.472193442351	-2.69091796875	-0.50927734375	1.67041015625	-46.75	75.5	-189.625
18	11	28	11	40	01	0.86160709197	-0.0335706928722	0.49257362087	-2.189453125	-0.0771484375	1.18310546875	225.1875	105.8125	-134.625
18	11	28	11	40	01	0.851000475116	0.00390647184102	0.518645175517	-1.4462890625	0.77099609375	1.0380859375	296.25	145.125	-66.3125
18	11	28	11	40	01	0.834919069886	0.0361336420332	0.54633822608	-0.58740234375	1.5927734375	1.1025390625	250.0	167.3125	-26.6875
18	11	28	11	40	01	0.817828681449	0.0537731971309	0.571912437136	-0.12646484375	1.587890625	0.91748046875	163.375	165.875	-47.4375
18	11	28	11	40	01	0.8051483492	0.0592065725665	0.589807330629	-0.21044921875	0.8447265625	0.76025390625	80.5625	131.375	-70.625
18	11	28	11	40	01	0.800540053367	0.0642751564007	0.595689697355	-0.05810546875	0.47802734375	0.70263671875	43.3125	85.25	-44.625
18	11	28	11	40	01	0.794718192883	0.078800398388	0.60183727971	0.263671875	0.52197265625	0.85595703125	119.375	57.0	-29.375
18	11	28	11	40	01	0.791958467938	0.101749114917	0.601583249325	0.15283203125	0.19140625	0.86572265625	179.8125	14.0625	-19.75
18	11	28	11	40	01	0.795989827459	0.130925402952	0.589988319317	-0.27685546875	0.3173828125	1.1806640625	170.75	-50.8125	54.5
18	11	28	11	40	01	0.807266183123	0.164859062499	0.566111738127	-0.55078125	0.92724609375	1.2158203125	121.875	-117.375	162.0
18	11	28	11	40	01	0.826043498729	0.194043618005	0.529148828086	-0.705078125	1.0078125	1.28857421875	42.8125	-189.1875	236.3125
18	11	28	11	40	01	0.846379255604	0.224321633084	0.481848971855	-0.92626953125	1.25927734375	1.25439453125	15.4375	-236.875	298.125
18	11	28	11	40	01	0.863690302974	0.257275945374	0.426656905851	-1.7001953125	1.65673828125	1.3203125	9.625	-268.25	365.375
18	11	28	11	40	01	0.879904196131	0.276740123839	0.366158800818	-2.5263671875	1.68994140625	1.1884765625	-68.5	-279.375	362.0625
18	11	28	11	40	01	0.892162469907	0.285667785931	0.300500536354	-2.0751953125	1.259765625	1.2998046875	-139.3125	-274.9375	399.5625
18	11	28	11	40	01	0.89751079531	0.285904554219	0.239210065752	-2.2001953125	1.0947265625	1.0576171875	-168.25	-231.3125	384.5
18	11	28	11	40	01	0.901511433546	0.269843063487	0.181767166493	-2.07666015625	0.93798828125	0.57275390625	-235.625	-198.3125	323.5625
18	11	28	11	40	01	0.904101582391	0.242688893572	0.133491099155	-1.93212890625	0.4931640625	0.12158203125	-265.375	-146.25	249.4375
18	11	28	11	40	01	0.898825378601	0.221807104837	0.106875134995	-1.6044921875	0.2138671875	-0.36328125	-179.4375	-43.125	224.125
18	11	28	11	40	01	0.885167876777	0.207894206889	0.107975587782	-1.03564453125	0.0419921875	-0.91259765625	-83.0	76.5625	229.625
18	11	28	11	40	01	0.868552133486	0.203374259225	0.133914503223	-0.63232421875	-0.29345703125	-1.12890625	33.9375	177.125	160.5625
18	11	28	11	40	01	0.851371621828	0.218946802946	0.185924717529	-0.59033203125	-0.5908203125	-0.99609375	220.5	231.625	36.1875
18	11	28	11	40	01	0.843929036209	0.231583014854	0.242631123892	-0.74951171875	-0.53125	-0.81787109375	234.4375	214.0625	-128.875
18	11	28	11	40	01	0.85086278066	0.220162270433	0.287059372844	-0.865234375	-0.162109375	-0.34326171875	92.9375	170.0625	-264.3125
18	11	28	11	40	01	0.864571231632	0.188064386096	0.31893424776	-0.59716796875	-0.0888671875	-0.01953125	-36.0	143.75	-318.625
18	11	28	11	40	01	0.876067825706	0.152532118473	0.352856413322	-0.51171875	-0.099609375	0.29833984375	-29.8125	160.1875	-360.5625
18	11	28	11	40	01	0.879740937949	0.119085171022	0.391803030646	-1.4736328125	-0.3525390625	0.72412109375	2.6875	191.5625	-343.6875
18	11	28	11	40	01	0.883229458478	0.0899709897579	0.415368104005	-3.07421875	0.20947265625	0.66455078125	-18.9375	121.6875	-305.4375
18	11	28	11	40	01	0.882834413643	0.0640274681908	0.433543476224	-2.248046875	0.44677734375	1.572265625	-41.0	107.5625	-218.9375
18	11	28	11	40	01	0.878027522771	0.0556053578898	0.454914086007	-1.890625	0.27001953125	1.52587890625	60.3125	118.375	-177.4375
18	11	28	11	40	01	0.867451679446	0.0604872371468	0.480357776333	-1.51220703125	0.794921875	1.4736328125	107.0	151.625	-110.4375
18	11	28	11	40	01	0.855224875897	0.0630538360432	0.504980044129	-1.130859375	0.9091796875	1.3837890625	76.0625	159.75	-84.6875
18	11	28	11	40	01	0.840625100988	0.0678750444597	0.530548459032	-0.56396484375	1.0078125	1.5439453125	78.0	179.75	-63.125
18	11	28	11	40	01	0.82424597246	0.0725121604918	0.556536935492	-0.27880859375	0.88134765625	1.3173828125	71.25	188.0	-49.5
18	11	28	11	40	01	0.81164386607	0.0744073003489	0.575237406471	-0.16943359375	0.40283203125	1.033203125	41.6875	140.8125	-29.25
18	11	28	11	40	01	0.807459378377	0.0844753027193	0.580096298442	0.18212890625	0.4951171875	0.953125	64.125	96.125	-15.9375
18	11	28	11	40	01	0.801149983576	0.0968094380154	0.58830350794	0.35546875	0.62255859375	0.6728515625	109.9375	60.25	-37.5625
18	11	28	11	40	02	0.80175039882	0.109809590215	0.586159808136	0.31591796875	0.7548828125	0.61083984375	95.125	23.8125	-64.75
18	11	28	11	40	02	0.807032694665	0.116153624107	0.577960413386	-0.14990234375	0.64208984375	0.64501953125	38.5625	-21.75	-37.4375
18	11	28	11	40	02	0.819989103292	0.115240392066	0.558500840786	-0.7470703125	0.5927734375	0.6845703125	-68.875	-97.75	51.0625
18	11	28	11	40	02	0.839698741224	0.112370820862	0.525658614481	-0.91162109375	0.23193359375	0.7802734375	-124.0	-193.0	139.75
18	11	28	11	40	02	0.862498975945	0.123606541139	0.478799856144	-0.58837890625	0.1962890625	1.06494140625	-69.3125	-270.5	200.9375
18	11	28	11	40	02	0.880195425882	0.157849193574	0.426119574763	-0.8408203125	0.91162109375	1.28076171875	43.0625	-302.8125	260.875
18	11	28	11	40	02	0.892129667783	0.196114711452	0.367509081125	-1.86962890625	1.568359375	1.26513671875	43.6875	-321.375	329.25
18	11	28	11	40	02	0.901695056978	0.218648232744	0.301724794655	-2.64111328125	1.75830078125	1.20703125	-55.1875	-330.1875	340.125
18	11	28	11	40	02	0.908092152737	0.223467457899	0.230792258486	-2.13818359375	1.13427734375	1.107421875	-158.125	-323.125	345.125
18	11	28	11	40	02	0.909607412896	0.217849205249	0.164867106578	-2.45263671875	0.72998046875	0.7783203125	-191.9375	-280.4375	306.375
18	11	28	11	40	02	0.908981956228	0.202097720727	0.107732551218	-2.1904296875	0.470703125	0.302734375	-217.875	-225.4375	241.9375
18	11	28	11	40	02	0.903820554603	0.186782663408	0.0683648964109	-1.66748046875	0.41357421875	0.01513671875	-171.375	-136.0	206.125
18	11	28	11	40	02	0.895441870128	0.171641618187	0.054935084057	-0.9189453125	0.47265625	-0.322265625	-118.75	-18.0	178.5625
18	11	28	11	40	02	0.884441207944	0.157783334889	0.0676911869986	-0.62109375	0.1513671875	-0.47509765625	-43.9375	117.875	150.625
18	11	28	11	40	02	0.871160525139	0.150707352618	0.102546922802	-0.47607421875	-0.2763671875	-0.69091796875	54.8125	211.25	113.1875
18	11	28	11	40	02	0.859272875605	0.152042103504	0.150943445189	-0.384765625	-0.62890625	-0.78759765625	142.9375	245.125	36.375
18	11	28	11	40	02	0.849445506326	0.156497684718	0.204350330903	-0.28857421875	-0.5185546875	-0.6318359375	179.1875	249.875	-31.8125
18	11	28	11	40	02	0.84170995879	0.162787560558	0.257640154899	-0.25048828125	-0.45263671875	-0.490234375	198.0	232.625	-88.5625
18	11	28	11	40	02	0.838492162262	0.165171419603	0.305438944454	-0.021484375	-0.27490234375	-0.2373046875	176.375	203.5	-155.6875
18	11	28	11	40	02	0.837926334376	0.167609681978	0.352432011559	-0.03662109375	0.1416015625	-0.1533203125	189.3125	183.4375	-224.375
18	11	28	11	40	02	0.84474405601	0.15333456671	0.38205455933	-0.68408203125	0.52197265625	0.0400390625	64.0	114.5	-261.375
18	11	28	11	40	02	0.859820217161	0.128115470705	0.384712630707	-2.21728515625	0.84521484375	0.50634765625	-61.125	1.4375	-240.5625
18	11	28	11	40	02	0.88108028822	0.0989422339595	0.363357877089	-2.36962890625	0.5927734375	0.91357421875	-144.0625	-118.125	-205.5
18	11	28	11	40	02	0.898543802328	0.0800821594086	0.341814095037	-1.55615234375	-0.0576171875	1.87451171875	-93.25	-127.125	-170.9375
18	11	28	11	40	02	0.907251110129	0.101382137643	0.336434884219	-1.642578125	-0.2060546875	1.92626953125	160.875	-91.75	-135.0
18	11	28	11	40	02	0.904105388713	0.147164332446	0.34615053061	-1.25634765625	0.53857421875	1.60791015625	312.5	-20.625	-57.25
18	11	28	11	40	02	0.894999243448	0.185921550538	0.361771841773	-0.8310546875	1.06591796875	1.255859375	263.6875	40.4375	-31.5625
18	11	28	11	40	02	0.885904275905	0.208505512367	0.377946760122	-0.44580078125	1.5263671875	1.015625	161.75	70.125	-40.5
18	11	28	11	40	02	0.88320761915	0.202765425765	0.392468900562	-0.16943359375	1.25830078125	0.75390625	8.0	76.9375	-102.375
18	11	28	11	40	02	0.882879615891	0.180128439332	0.407257521932	-0.052734375	0.62646484375	0.6416015625	-83.5625	92.875	-117.5625
18	11	28	11	40	02	0.880946078972	0.158329808692	0.423108031555	0.03515625	0.22998046875	0.5263671875	-74.375	101.625	-110.1875
18	11	28	11	40	02	0.875484577461	0.149729043332	0.442594901427	0.09716796875	0.18212890625	0.6044921875	21.9375	111.0625	-125.375
18	11	28	11	40	02	0.865379152365	0.160221489276	0.465588388647	-0.236328125	0.05908203125	0.58447265625	157.5625	113.4375	-136.75
18	11	28	11	40	02	0.857408396449	0.180368890974	0.477199319672	-1.0927734375	-0.35595703125	0.43115234375	187.0625	41.3125	-66.75
18	11	28	11	40	02	0.856226873217	0.208258204407	0.468947181846	-1.0830078125	0.12353515625	0.623046875	160.0	-57.1875	52.8125
18	11	28	11	40	02	0.865711186317	0.229627404846	0.44039386655	-0.37353515625	0.26318359375	0.96240234375	82.625	-161.125	99.25
18	11	28	11	40	02	0.881808363909	0.245309601616	0.396438383304	-0.2607421875	0.21484375	1.16162109375	25.4375	-241.75	136.625
18	11	28	11	40	02	0.900055924146	0.256967003978	0.341015356585	-0.43115234375	0.60498046875	1.4658203125	-18.75	-294.6875	175.3125
18	11	28	11	40	02	0.91930623353	0.259109950291	0.275895636117	-1.03564453125	0.99951171875	1.5107421875	-88.9375	-345.6875	200.0
18	11	28	11	40	02	0.939974994962	0.245614245437	0.199225869062	-1.57568359375	1.02294921875	1.83203125	-182.1875	-399.0625	187.5
18	11	28	11	40	02	0.957574054519	0.218396224316	0.118781177339	-1.26025390625	0.6455078125	2.0556640625	-251.375	-410.4375	164.6875
18	11	28	11	40	02	0.964869419883	0.201604484683	0.0454113643973	-1.4267578125	0.3173828125	2.0673828125	-174.25	-374.0625	165.1875
18	11	28	11	40	02	0.96537378337	0.189461319144	-0.0123296348154	-1.26025390625	0.6181640625	1.51318359375	-126.4375	-311.9375	164.875
18	11	28	11	40	02	0.964756835032	0.171820225903	-0.0595724832969	-0.73828125	0.95361328125	1.04345703125	-154.6875	-246.5	122.5625
18	11	28	11	40	02	0.966066835904	0.146493991671	-0.0945496637907	-0.4814453125	1.083984375	0.49853515625	-195.0625	-174.75	50.1875
18	11	28	11	40	02	0.969874042006	0.119326856647	-0.111147931434	-0.6044921875	0.76513671875	0.05224609375	-189.4375	-78.3125	-23.0625
18	11	28	11	40	02	0.97520477428	0.100407576747	-0.106633456886	-0.98828125	0.30712890625	-0.35009765625	-120.0	23.4375	-76.125
18	11	28	11	40	02	0.980066835104	0.100527500618	-0.082460627404	-0.9716796875	-0.04150390625	-0.7490234375	9.5625	115.25	-103.5625
18	11	28	11	40	02	0.981990762116	0.125007277524	-0.0497465484289	-0.8798828125	-0.28466796875	-1.02001953125	156.5625	141.1875	-128.5
18	11	28	11	40	03	0.981277271638	0.161013214069	-0.0200808746886	-0.927734375	0.126953125	-0.99951171875	210.3125	105.1875	-189.0625
18	11	28	11	40	03	0.98011095511	0.185609503954	0.00366214082118	-0.5283203125	0.44091796875	-0.86474609375	136.75	79.8125	-209.75
18	11	28	11	40	03	0.980993320956	0.19055880712	0.0220955439389	-0.45947265625	0.39599609375	-0.1767578125	27.4375	51.125	-247.3125
18	11	28	11	40	03	0.981841037402	0.186345933556	0.033448271074	-0.80908203125	-0.13720703125	0.77197265625	-10.875	6.875	-239.8125
18	11	28	11	40	03	0.980942554754	0.185738796224	0.0355241470267	-0.5771484375	-0.423828125	1.4970703125	19.4375	-30.4375	-181.5625
18	11	28	11	40	03	0.977955191564	0.19379651312	0.0280776050505	-0.35546875	0.2060546875	2.3564453125	68.0625	-71.625	-145.625
18	11	28	11	40	03	0.975028068096	0.192820437406	0.0147102644554	0.12060546875	0.375	2.59619140625	9.1875	-115.875	-192.25
18	11	28	11	40	03	0.973949101653	0.168458953473	-0.00762948158844	0.423828125	0.0224609375	2.87451171875	-117.5	-186.875	-215.4375
18	11	28	11	40	03	0.970709988527	0.132691367899	-0.0379641356177	0.64599609375	0.00341796875	2.51708984375	-172.1875	-244.5625	-223.875
18	11	28	11	40	03	0.963940137525	0.0875865318399	-0.0739144878454	0.81201171875	-0.013671875	1.9423828125	-207.6875	-276.25	-216.0625
18	11	28	11	40	03	0.95286186409	0.0395525262911	-0.109379825793	0.8154296875	0.1845703125	1.46533203125	-227.9375	-278.375	-200.375
18	11	28	11	40	03	0.938323340766	-0.00109866780289	-0.135441325256	0.7451171875	0.51123046875	1.126953125	-207.625	-218.125	-198.75
18	11	28	11	40	03	0.922845790337	-0.0279539267179	-0.145812076264	0.58544921875	0.5634765625	0.39697265625	-163.375	-108.3125	-206.125
18	11	28	11	40	03	0.909555999195	-0.0328983145595	-0.151857155147	0.24560546875	0.1806640625	-0.0263671875	-44.0	-44.3125	-182.1875
18	11	28	11	40	03	0.89811730361	-0.0166623189864	-0.158383581574	-0.158203125	0.27490234375	-0.2099609375	70.8125	-4.9375	-166.625
18	11	28	11	40	03	0.886978402572	0.00897232488151	-0.158511072907	-0.2265625	0.6552734375	-0.1611328125	98.375	49.125	-167.9375
18	11	28	11	40	03	0.871882401606	0.0459592193496	-0.162047446711	-0.1513671875	0.82861328125	-0.1640625	159.9375	57.6875	-200.25
18	11	28	11	40	03	0.856088634071	0.0756234006569	-0.173402809739	-0.31689453125	0.19482421875	-0.166015625	158.5625	-3.125	-169.4375
18	11	28	11	40	03	0.845502237854	0.0952738752104	-0.192622902091	-0.005859375	0.08935546875	-0.0693359375	144.3125	-54.0	-78.8125
18	11	28	11	40	03	0.837226938914	0.117676863616	-0.221315512175	0.3056640625	0.14892578125	0.07177734375	195.0	-79.75	-20.0
18	11	28	11	40	03	0.828484962652	0.13415426167	-0.257810555639	0.23388671875	-0.04296875	0.13037109375	197.75	-132.6875	12.625
18	11	28	11	40	03	0.81927179844	0.141845165729	-0.29833871346	0.4453125	0.1259765625	0.4228515625	171.75	-173.75	39.0625
18	11	28	11	40	03	0.810553178327	0.140992307375	-0.334170079167	0.53955078125	0.1044921875	0.71875	119.9375	-176.5625	44.625
18	11	28	11	40	03	0.803522488911	0.133299894856	-0.361997104575	0.8505859375	0.10205078125	1.0771484375	64.5625	-156.0625	41.8125
18	11	28	11	40	03	0.800619914398	0.120547711438	-0.379160700484	1.3720703125	0.05859375	1.62548828125	13.75	-111.4375	44.75
18	11	28	11	40	03	0.798822420325	0.111754573015	-0.387936682731	1.9892578125	-0.02001953125	1.8662109375	-12.375	-65.375	30.0
18	11	28	11	40	03	0.798173631994	0.0950947861625	-0.395516183782	2.05908203125	-0.16845703125	1.654296875	-52.8125	-77.875	47.625
18	11	28	11	40	03	0.801587867091	0.0611582306271	-0.401739993999	1.83447265625	0.00927734375	1.38623046875	-128.0	-104.0625	115.625
18	11	28	11	40	03	0.805599360018	0.0117797315314	-0.401792604516	1.68603515625	0.15380859375	0.96142578125	-216.375	-104.9375	129.5
18	11	28	11	40	03	0.808829086327	-0.0360103502062	-0.39452695548	1.56689453125	0.35595703125	0.80029296875	-238.125	-69.0625	116.8125
18	11	28	11	40	03	0.811383509632	-0.0690902762828	-0.381705466319	1.58154296875	0.53857421875	0.80224609375	-194.625	-7.25	71.375
18	11	28	11	40	03	0.811283996516	-0.0741581444303	-0.372377645407	1.12939453125	0.6826171875	0.77001953125	-85.8125	54.3125	-4.0625
18	11	28	11	40	03	0.812397583476	-0.0566419953017	-0.358895401265	0.26513671875	0.62841796875	0.76171875	3.25	94.5625	-58.5625
18	11	28	11	40	03	0.814320112642	-0.0347285372578	-0.342280557015	-0.24169921875	0.45556640625	0.64599609375	32.5625	132.1875	-81.9375
18	11	28	11	40	03	0.817493850919	-0.00689687958443	-0.325312992787	-0.515625	0.1103515625	0.5302734375	70.875	149.75	-75.375
18	11	28	11	40	03	0.820796249745	0.0264891115697	-0.309324464136	-0.72265625	-0.07421875	0.39990234375	108.4375	158.6875	-69.5
18	11	28	11	40	03	0.825295880272	0.0607894317964	-0.287590163278	-0.75830078125	-0.0595703125	0.298828125	99.125	191.125	-60.0625
18	11	28	11	40	03	0.831251409063	0.0924087402394	-0.257999831567	-0.68603515625	-0.0341796875	0.123046875	64.625	226.125	-48.8125
18	11	28	11	40	03	0.838305157742	0.120908810884	-0.22179839412	-0.45849609375	0.13232421875	0.109375	31.3125	255.0	-35.375
18	11	28	11	40	03	0.844868747966	0.150516278896	-0.178654155852	-0.1435546875	0.08447265625	0.12109375	20.375	296.5625	-39.375
18	11	28	11	40	03	0.847998175683	0.191292469775	-0.136480524064	-0.06640625	-0.10009765625	0.1884765625	87.8125	324.4375	-39.125
18	11	28	11	40	03	0.844124083498	0.246279152344	-0.0996103039964	-0.2451171875	0.07275390625	0.21923828125	179.6875	333.5	-46.6875
18	11	28	11	40	03	0.833769521679	0.300242480025	-0.0658592469906	-0.330078125	0.3896484375	0.310546875	187.625	308.0	-69.875
18	11	28	11	40	03	0.819407465798	0.344486833293	-0.0261233814049	-0.12548828125	0.625	0.47705078125	128.75	304.0625	-118.625
18	11	28	11	40	03	0.799383781459	0.383181750019	0.0249025412564	0.0556640625	0.5029296875	0.59130859375	87.0	334.3125	-185.5
18	11	28	11	40	03	0.768690458805	0.421455265845	0.0792860811488	-0.4091796875	0.4638671875	0.64697265625	101.9375	329.25	-253.0625
18	11	28	11	40	03	0.732565656351	0.448255472441	0.133426805931	-1.02294921875	0.13232421875	0.74853515625	73.1875	278.3125	-298.5
18	11	28	11	40	03	0.696505756991	0.469382987579	0.179207861057	-1.0576171875	0.05322265625	0.931640625	72.75	236.625	-270.625
18	11	28	11	40	03	0.649375246052	0.503313119555	0.215766659911	-0.9453125	0.4384765625	1.4423828125	179.5	266.5625	-263.0
18	11	28	11	40	03	0.595171569634	0.540482437608	0.247382870652	-2.046875	0.1953125	1.38134765625	215.4375	259.8125	-258.6875
18	11	28	11	40	03	0.546644305947	0.577834038008	0.268317147046	-2.1484375	0.734375	1.392578125	217.0625	248.1875	-171.375
18	11	28	11	40	04	0.505146775648	0.607323636744	0.280040285968	-1.64892578125	0.79443359375	1.21875	202.0625	202.75	-133.4375
18	11	28	11	40	04	0.469256286315	0.630883581601	0.291698203993	-1.32373046875	0.6552734375	0.80322265625	159.0625	180.75	-117.0
18	11	28	11	40	04	0.435379293149	0.65309945839	0.304149028146	-0.92041015625	0.54931640625	0.49267578125	137.625	185.875	-106.0625
18	11	28	11	40	04	0.401061546316	0.674742869354	0.314818970613	-0.7451171875	0.54443359375	0.34765625	141.0625	184.25	-99.25
18	11	28	11	40	04	0.371594615422	0.691490702714	0.326121884067	-0.630859375	0.625	0.3271484375	108.0	164.5	-96.1875
18	11	28	11	40	04	0.348939425324	0.703005824888	0.336671308394	-0.47314453125	0.5283203125	0.373046875	73.3125	133.125	-82.8125
18	11	28	11	40	04	0.329725194334	0.712675188642	0.341932717264	-0.30322265625	0.248046875	0.36669921875	74.9375	100.1875	-55.25
18	11	28	11	40	04	0.310615937302	0.722491815651	0.338387651091	-0.1796875	0.0068359375	0.34814453125	108.75	64.125	-23.3125
18	11	28	11	40	04	0.290708372625	0.732599747349	0.324521607652	0.01416015625	-0.11572265625	0.4365234375	153.4375	25.1875	8.9375
18	11	28	11	40	04	0.26801619538	0.74288888954	0.302380376204	0.29296875	-0.00927734375	0.5146484375	199.625	-1.875	26.0625
18	11	28	11	40	04	0.243106272279	0.751291766377	0.275516372851	0.4404296875	0.1181640625	0.5048828125	227.3125	-28.1875	28.4375
18	11	28	11	40	04	0.223387519304	0.752193384673	0.250181814652	0.21240234375	0.3486328125	0.51220703125	197.8125	-75.25	16.4375
18	11	28	11	40	04	0.21081967384	0.745254261026	0.228520225494	-0.15869140625	0.63623046875	0.6796875	151.375	-117.625	3.3125
18	11	28	11	40	04	0.206546919899	0.735304593389	0.203556140031	-0.55859375	0.9296875	0.970703125	124.125	-137.0	36.875
18	11	28	11	40	04	0.211494536969	0.724147528601	0.175238330631	-1.419921875	1.4443359375	1.3447265625	88.5625	-162.875	99.9375
18	11	28	11	40	04	0.232843595758	0.706343101888	0.153743910279	-3.0908203125	1.39208984375	1.33349609375	-14.0	-186.875	126.9375
18	11	28	11	40	04	0.259030425492	0.68419676479	0.12548693563	-2.85205078125	0.771484375	1.3876953125	-13.1875	-222.6875	166.625
18	11	28	11	40	04	0.28558016248	0.66545854061	0.0773306402782	-3.0810546875	0.58544921875	1.35302734375	63.875	-222.5625	255.125
18	11	28	11	40	04	0.316281023791	0.645562406144	0.0247800261789	-3.17236328125	1.0458984375	1.35693359375	61.0	-214.0	297.25
18	11	28	11	40	04	0.363343142637	0.617066885949	-0.0133056954636	-3.17724609375	1.0068359375	1.11572265625	-73.8125	-201.5	319.1875
18	11	28	11	40	04	0.419299432076	0.578779696416	-0.0355214366038	-2.6162109375	0.71142578125	0.80712890625	-189.1875	-197.8125	304.4375
18	11	28	11	40	04	0.469252344935	0.536454066029	-0.0382091529565	-2.09326171875	0.50341796875	0.36328125	-257.8125	-182.5	228.0
18	11	28	11	40	04	0.504887353837	0.500797961586	-0.0368045302664	-1.57080078125	0.43994140625	-0.14892578125	-216.8125	-151.6875	152.625
18	11	28	11	40	04	0.523665202426	0.487838690325	-0.0383288749561	-1.060546875	0.0400390625	-0.6142578125	-90.5625	-55.375	106.125
18	11	28	11	40	04	0.530826978819	0.501590906282	-0.0473026225807	-0.75830078125	-0.8251953125	-1.00634765625	60.6875	74.0	98.5
18	11	28	11	40	04	0.526141513621	0.528766117459	-0.0634787905064	-0.29541015625	-1.43310546875	-1.26220703125	164.3125	108.6875	77.0625
18	11	28	11	40	04	0.510502816539	0.551518824755	-0.0611577979642	0.03564453125	-0.75390625	-1.005859375	103.5	94.9375	-48.375
18	11	28	11	40	04	0.475782190126	0.570328259723	-0.0386973583759	0.12255859375	-0.212890625	-0.876953125	67.75	77.9375	-241.0625
18	11	28	11	40	04	0.428664359316	0.582539177746	0.00103763265106	0.09375	-0.37890625	-0.63671875	26.5	64.25	-369.5625
18	11	28	11	40	04	0.38092949517	0.587721536451	0.0553602070372	0.0458984375	-0.546875	-0.1845703125	-41.25	81.625	-415.125
18	11	28	11	40	04	0.326349882269	0.599783110727	0.112241898914	-0.12890625	-0.494140625	-0.11181640625	-17.0	154.0625	-425.625
18	11	28	11	40	04	0.255250378923	0.620242551558	0.165467187293	-0.81396484375	-0.38671875	0.10791015625	64.875	226.25	-460.3125
18	11	28	11	40	04	0.169433036728	0.642637047446	0.20764091893	-3.03125	-0.49755859375	-0.15771484375	158.9375	255.75	-478.6875
18	11	28	11	40	04	0.112854162403	0.655091252065	0.239502289491	-3.11083984375	-0.72412109375	0.033203125	77.625	186.9375	-326.25
18	11	28	11	40	04	0.0650032396782	0.664497906457	0.26629965701	-2.95849609375	-0.873046875	0.0625	59.9375	168.1875	-273.9375
18	11	28	11	40	04	0.0167241752884	0.675620059368	0.269723104377	-2.91650390625	-0.46044921875	0.22265625	160.5	154.75	-185.3125
18	11	28	11	40	04	-0.0227045093257	0.68705554161	0.270501035837	-2.5908203125	0.0771484375	0.37744140625	132.25	152.1875	-139.1875
18	11	28	11	40	04	-0.0478512147167	0.700556431783	0.275449658184	-2.02197265625	0.60302734375	1.00634765625	51.125	159.1875	-98.0
18	11	28	11	40	04	-0.0678705469911	0.717645585901	0.281491872952	-1.3466796875	0.60302734375	1.12109375	16.1875	187.5	-79.25
18	11	28	11	40	04	-0.0866094410252	0.734562806722	0.277528631671	-0.72021484375	0.5693359375	1.04443359375	45.75	194.625	-46.0625
18	11	28	11	40	04	-0.101443449582	0.75350143507	0.265327722823	-0.3154296875	0.66796875	0.884765625	59.6875	195.875	7.5
18	11	28	11	40	04	-0.115296605283	0.771736515194	0.249331197767	-0.31982421875	0.7470703125	0.67626953125	72.0625	187.4375	25.4375
18	11	28	11	40	04	-0.1275631653	0.784666054116	0.237365143471	-0.52734375	0.751953125	0.6796875	62.0	148.3125	6.4375
18	11	28	11	40	04	-0.13110284628	0.785762589854	0.222410973856	-0.46435546875	0.58740234375	0.8701171875	53.5625	62.25	13.125
18	11	28	11	40	04	-0.133609372772	0.77669221952	0.20605995545	-0.27587890625	0.2822265625	0.95654296875	69.5625	-33.5	43.3125
18	11	28	11	40	04	-0.138733588746	0.763004220378	0.178833882546	-0.44287109375	0.10009765625	1.22802734375	145.1875	-111.625	103.0625
18	11	28	11	40	04	-0.140626595208	0.743843887066	0.130006357549	-0.8623046875	0.1708984375	1.42431640625	229.0	-178.625	215.4375
18	11	28	11	40	04	-0.132083409831	0.71675391943	0.0664079250907	-0.81787109375	0.3603515625	1.5517578125	250.125	-230.8125	316.1875
18	11	28	11	40	04	-0.107360509286	0.683591645257	0.00231932879641	-1.03759765625	0.888671875	1.5322265625	190.0	-257.5625	379.125
18	11	28	11	40	05	-0.0639039335757	0.645264933871	-0.0489502910485	-2.2080078125	1.39208984375	1.21533203125	66.1875	-276.625	404.875
18	11	28	11	40	05	0.00085448868915	0.598813466375	-0.0717770498886	-3.14990234375	1.51806640625	0.92626953125	-134.5	-317.0625	394.5
18	11	28	11	40	05	0.079894115489	0.542169158051	-0.0704948077844	-3.4560546875	0.8740234375	0.95458984375	-293.75	-351.375	381.9375
18	11	28	11	40	05	0.15154700672	0.478261113436	-0.0617662387439	-3.60302734375	0.158203125	0.7236328125	-306.9375	-365.375	328.9375
18	11	28	11	40	05	0.211797791478	0.416515310963	-0.0595719436548	-3.2392578125	-0.0107421875	0.3388671875	-237.1875	-336.125	298.25
18	11	28	11	40	05	0.264465450749	0.364319011198	-0.0624389928725	-2.6025390625	-0.0302734375	-0.0966796875	-178.25	-270.6875	281.1875
18	11	28	11	40	05	0.311216217755	0.328122844999	-0.0744013668255	-2.1025390625	0.115234375	-0.34716796875	-90.875	-182.5625	279.8125
18	11	28	11	40	05	0.350285906391	0.310307291878	-0.0892957450861	-1.86572265625	0.02490234375	-0.7421875	-25.4375	-82.75	251.8125
18	11	28	11	40	05	0.380918844256	0.304991422007	-0.104552792855	-1.525390625	-0.17724609375	-0.94140625	18.4375	-19.1875	209.9375
18	11	28	11	40	05	0.400270148701	0.310242934713	-0.127625019965	-1.1123046875	-0.64013671875	-1.01171875	100.375	11.3125	163.0625
18	11	28	11	40	05	0.410458252196	0.32574211033	-0.146361173051	-0.7705078125	-0.84912109375	-0.90087890625	122.1875	47.9375	116.0625
18	11	28	11	40	05	0.412457196474	0.352035085715	-0.151482503943	-0.369140625	-0.56884765625	-0.71240234375	95.6875	99.3125	57.125
18	11	28	11	40	05	0.406189552712	0.37780816398	-0.151184300837	-0.03125	-0.3427734375	-0.490234375	78.5	129.5625	-30.125
18	11	28	11	40	05	0.383675004217	0.403450807807	-0.138857880145	0.31640625	-0.4248046875	-0.15771484375	53.3125	129.5	-155.375
18	11	28	11	40	05	0.342162666576	0.433227008091	-0.121642917318	0.28173828125	-0.30615234375	0.3896484375	82.6875	138.0	-270.8125
18	11	28	11	40	05	0.286676853794	0.46227176722	-0.103696822354	-0.5361328125	0.74365234375	0.7080078125	103.125	118.4375	-347.9375
18	11	28	11	40	05	0.231010838487	0.477157922139	-0.076474658025	-2.58935546875	1.31494140625	0.94580078125	35.0625	51.4375	-366.6875
18	11	28	11	40	05	0.214904332028	0.472350078263	-0.0210570845071	-1.857421875	0.89404296875	1.7412109375	-235.125	15.6875	-241.3125
18	11	28	11	40	05	0.194454042137	0.480153782014	0.00720200156065	-1.39892578125	-0.4384765625	1.99267578125	-73.4375	68.5	-178.6875
18	11	28	11	40	05	0.164612893856	0.497805992693	-0.00524905779445	-1.1689453125	-0.087890625	1.47265625	168.0625	95.125	-102.0
18	11	28	11	40	05	0.133425096992	0.519295848678	-0.0316777792035	-0.55859375	0.90283203125	1.22265625	235.5	116.5	-81.125
18	11	28	11	40	05	0.104250020159	0.543833536075	-0.046814850973	0.1943359375	1.666015625	1.11328125	181.1875	138.0	-91.3125
18	11	28	11	40	05	0.0844716831029	0.563836277821	-0.0381465331932	0.654296875	1.6005859375	0.916015625	34.9375	128.6875	-120.1875
18	11	28	11	40	05	0.0815403228795	0.577923141726	-0.00598125122918	0.70849609375	0.9990234375	1.0302734375	-133.0625	109.0625	-116.6875
18	11	28	11	40	05	0.0716539257122	0.595875022766	0.0152585020682	0.74951171875	0.5732421875	1.29150390625	-57.5	133.8125	-111.1875
18	11	28	11	40	05	0.046568759571	0.60923900136	0.0106198743976	0.033203125	0.06591796875	1.31494140625	112.6875	111.3125	-95.375
18	11	28	11	40	05	0.0343009831482	0.605882312655	-0.00720198578557	-1.5478515625	0.2041015625	1.3837890625	123.375	-14.3125	3.5625
18	11	28	11	40	05	0.0437612280059	0.586229560665	-0.0334465173602	-1.45703125	0.560546875	1.77099609375	82.4375	-141.4375	132.5
18	11	28	11	40	05	0.0650017886928	0.554987102895	-0.054747985406	-0.46240234375	0.69482421875	1.947265625	15.4375	-210.625	171.1875
18	11	28	11	40	05	0.102661031465	0.513854473191	-0.0716552026994	-0.412109375	0.7919921875	1.65478515625	-61.5	-257.3125	238.0
18	11	28	11	40	05	0.151671539766	0.460507753535	-0.0854487547978	-0.8291015625	1.19287109375	1.58203125	-121.625	-299.6875	276.3125
18	11	28	11	40	05	0.200926714532	0.403379300226	-0.0872798304317	-1.85498046875	1.7890625	1.2431640625	-180.0625	-310.875	263.5
18	11	28	11	40	05	0.250791695468	0.337705147487	-0.0665888877477	-2.29638671875	1.19921875	1.05029296875	-305.5	-324.6875	220.5625
18	11	28	11	40	05	0.297965951645	0.280876548437	-0.053587485773	-1.890625	0.8193359375	1.01513671875	-249.6875	-289.25	235.8125
18	11	28	11	40	05	0.337333744177	0.234308710674	-0.0523059559905	-2.13720703125	1.048828125	0.39404296875	-149.9375	-228.375	218.8125
18	11	28	11	40	05	0.365588746922	0.196832004812	-0.0464462498176	-2.0654296875	0.779296875	-0.373046875	-140.8125	-173.8125	154.1875
18	11	28	11	40	05	0.39124093013	0.179262809952	-0.0502936858701	-1.7978515625	0.447265625	-0.84912109375	-43.6875	-84.625	157.875
18	11	28	11	40	05	0.416074828836	0.182921558166	-0.0570676199151	-1.40869140625	0.447265625	-1.0498046875	21.125	23.625	161.9375
18	11	28	11	40	05	0.434995784166	0.205321428081	-0.0603635232973	-1.06494140625	0.3056640625	-1.08837890625	55.3125	127.5	126.375
18	11	28	11	40	05	0.449019250433	0.245840633511	-0.0646949035556	-0.8779296875	-0.08447265625	-0.935546875	108.8125	199.375	111.625
18	11	28	11	40	05	0.455876107096	0.292788550775	-0.0676886601647	-0.732421875	-0.06884765625	-0.61181640625	130.125	237.0	74.125
18	11	28	11	40	05	0.449514913317	0.338921427515	-0.0682969705365	-0.6435546875	0.02294921875	-0.33203125	137.4375	230.1875	-6.4375
18	11	28	11	40	05	0.429018744758	0.377993041156	-0.0666507994416	-0.64306640625	-0.00244140625	0.1904296875	136.6875	185.875	-95.375
18	11	28	11	40	05	0.401615461217	0.41559265584	-0.0642706809516	-0.8466796875	-0.25537109375	0.93115234375	152.4375	181.0625	-128.9375
18	11	28	11	40	05	0.37975749262	0.44463730854	-0.0668329242074	-1.74853515625	-0.4169921875	1.1259765625	146.0625	128.0	-77.125
18	11	28	11	40	05	0.357243051516	0.459966450747	-0.0760507162461	-1.88330078125	0.4951171875	1.33544921875	138.9375	37.25	-79.75
18	11	28	11	40	05	0.338329016763	0.460525425126	-0.0740991207559	-1.48974609375	0.7138671875	1.666015625	44.0	-17.1875	-106.6875
18	11	28	11	40	05	0.316107949675	0.463205875668	-0.068116715937	-1.1513671875	0.951171875	1.82470703125	36.25	5.75	-140.0625
18	11	28	11	40	05	0.292175225486	0.470397840572	-0.05670164706	-0.66748046875	0.45556640625	1.52978515625	26.0625	43.625	-158.25
18	11	28	11	40	05	0.26934255677	0.485890798651	-0.0506581287377	-0.265625	0.31201171875	1.3125	64.5	93.875	-131.125
18	11	28	11	40	06	0.247011278302	0.507572471055	-0.0501102692083	-0.1240234375	0.4326171875	0.9921875	97.125	127.375	-110.1875
18	11	28	11	40	06	0.223691894786	0.532343985354	-0.0485225256084	0.10009765625	0.837890625	0.91015625	96.375	152.625	-121.625
18	11	28	11	40	06	0.195919844569	0.556510013328	-0.038207421402	0.28466796875	0.7255859375	0.779296875	69.1875	158.125	-169.375
18	11	28	11	40	06	0.15796196816	0.579295610436	-0.0287481016242	0.232421875	0.51611328125	0.7998046875	105.375	145.4375	-211.4375
18	11	28	11	40	06	0.109924467307	0.601685396288	-0.0258179065358	0.03271484375	0.4736328125	0.60009765625	167.625	135.75	-233.6875
18	11	28	11	40	06	0.0721431627105	0.614742753655	-0.0205687358997	-0.54638671875	0.05810546875	0.58154296875	116.5	83.1875	-187.4375
18	11	28	11	40	06	0.057736887391	0.609411015433	-0.02233795009	-1.4296875	0.3349609375	0.84814453125	56.75	-12.75	-72.1875
18	11	28	11	40	06	0.0577395501295	0.587466353062	-0.0240479733097	-1.0302734375	0.1298828125	1.17822265625	-0.125	-143.3125	3.3125
18	11	28	11	40	06	0.0687835204206	0.550024033745	-0.0305772348986	-0.3916015625	0.00048828125	1.58349609375	-19.6875	-235.75	71.0
18	11	28	11	40	06	0.0858743965096	0.50633546087	-0.0537706775586	-0.03515625	0.47021484375	1.740234375	35.0	-292.1875	152.5625
18	11	28	11	40	06	0.11144872123	0.4558655525	-0.0803212032521	-0.33349609375	1.123046875	1.6123046875	24.125	-320.5625	207.3125
18	11	28	11	40	06	0.149050446575	0.396308169374	-0.0954606463731	-1.2919921875	1.765625	1.5654296875	-70.125	-349.5625	242.9375
18	11	28	11	40	06	0.194579255406	0.328550856916	-0.085265752761	-1.88916015625	1.53564453125	1.3115234375	-225.125	-361.6875	233.4375
18	11	28	11	40	06	0.239138641066	0.261233635468	-0.0690926344275	-1.3359375	0.978515625	1.27294921875	-259.75	-349.75	222.4375
18	11	28	11	40	06	0.28216334571	0.207578961445	-0.0604853721823	-1.4892578125	1.0751953125	0.8701171875	-198.125	-280.25	235.3125
18	11	28	11	40	06	0.312678603477	0.162046006682	-0.048461216311	-1.6435546875	1.158203125	0.02734375	-174.5	-214.125	165.0
18	11	28	11	40	06	0.340503563987	0.133967614797	-0.0443100174681	-1.24755859375	0.9580078125	-0.1259765625	-97.25	-130.75	162.25
18	11	28	11	40	06	0.370054360909	0.131957369006	-0.0444944135087	-0.86376953125	0.9775390625	-0.34765625	-39.5625	-11.125	178.875
18	11	28	11	40	06	0.394275108815	0.152705313043	-0.0419298761232	-1.03515625	0.6064453125	-0.59619140625	4.3125	111.125	149.5625
18	11	28	11	40	06	0.410753440731	0.190484619394	-0.0402208792633	-1.12890625	0.24169921875	-0.7470703125	59.3125	194.625	110.875
18	11	28	11	40	06	0.418822171088	0.236571660615	-0.042724500111	-0.9404296875	-0.02783203125	-0.7587890625	113.25	228.375	73.25
18	11	28	11	40	06	0.416072437228	0.286618184718	-0.0472407314676	-0.72119140625	-0.1953125	-0.52490234375	150.25	244.4375	18.5
18	11	28	11	40	06	0.406252768035	0.336855322534	-0.0472415328214	-0.4990234375	-0.32421875	-0.2490234375	143.0625	259.0	-24.0
18	11	28	11	40	06	0.391609549836	0.385200727714	-0.0397957335556	-0.34130859375	-0.3349609375	0.0146484375	112.4375	270.5	-61.875
18	11	28	11	40	06	0.37024427769	0.42639738278	-0.0209963784249	-0.3037109375	-0.5771484375	0.2509765625	60.375	255.1875	-123.5625
18	11	28	11	40	06	0.332708628827	0.469490877442	-0.00677502436247	-0.494140625	-0.580078125	0.62744140625	126.375	250.25	-192.25
18	11	28	11	40	06	0.283384623713	0.505429263185	0.00360105380122	-1.619140625	-0.66845703125	0.81396484375	163.125	191.4375	-238.625
18	11	28	11	40	06	0.248051788764	0.519968796378	0.0126955639919	-3.45166015625	0.3857421875	0.60888671875	83.5625	76.6875	-194.875
18	11	28	11	40	06	0.238648730484	0.512087685105	0.0383302820317	-2.15283203125	0.30126953125	1.078125	-101.9375	-22.25	-128.5
18	11	28	11	40	06	0.222769931187	0.505718260223	0.0575539849614	-2.03125	-0.3310546875	1.38134765625	-51.25	-21.4375	-142.75
18	11	28	11	40	06	0.195378864859	0.506361469188	0.0510878193962	-1.89697265625	-0.19189453125	1.46728515625	117.75	-9.875	-113.8125
18	11	28	11	40	06	0.169252291876	0.514104599521	0.0328982997912	-1.66650390625	0.41845703125	1.259765625	171.75	24.5625	-75.0625
18	11	28	11	40	06	0.148985775756	0.524898677388	0.0209349123656	-1.0947265625	0.775390625	1.0791015625	123.5	59.8125	-67.25
18	11	28	11	40	06	0.127932501055	0.541332706037	0.0106203507555	-0.36083984375	1.140625	1.150390625	120.0	108.875	-79.125
18	11	28	11	40	06	0.108643664221	0.559881085338	0.0141602978086	0.0419921875	1.068359375	0.8427734375	50.5	136.125	-111.4375
18	11	28	11	40	06	0.0929565732691	0.5782472588	0.0244140704581	0.1298828125	0.67626953125	0.7744140625	9.8125	142.9375	-109.375
18	11	28	11	40	06	0.07604871426	0.59459596655	0.030089900586	0.21826171875	0.3671875	0.70703125	35.75	128.4375	-95.5625
18	11	28	11	40	06	0.0522465019951	0.608220084558	0.0256349659322	0.33154296875	0.3427734375	0.56005859375	104.625	103.5	-93.5625
18	11	28	11	40	06	0.0177617417535	0.614763790176	0.0158085605297	0.34228515625	0.18115234375	0.5078125	165.8125	53.125	-123.125
18	11	28	11	40	06	-0.0248402825155	0.612279396058	-0.000976522162771	0.40771484375	0.056640625	0.64892578125	225.6875	-3.25	-134.3125
18	11	28	11	40	06	-0.0697621820065	0.602103171911	-0.0286250773063	0.3125	0.37451171875	0.91943359375	282.625	-41.5625	-111.1875
18	11	28	11	40	06	-0.107543398053	0.584835891113	-0.0599362184381	-0.2734375	0.71337890625	0.92236328125	275.1875	-82.0625	-69.6875
18	11	28	11	40	06	-0.115846308676	0.55982209862	-0.0850841698076	-0.96240234375	0.57666015625	1.07421875	150.625	-138.75	54.875
18	11	28	11	40	06	-0.103574908813	0.521414523272	-0.11450001705	-0.748046875	0.3818359375	1.423828125	111.4375	-212.0625	181.3125
