18	12	13	15	34	21	-0.623442678653	-0.0339338354705	-0.736290991216	-0.69287109375	0.25537109375	-0.08837890625	-60.125	14.0625	40.6875
18	12	13	15	34	21	-0.619967531273	-0.0324082259408	-0.735318843944	-0.64990234375	0.24755859375	-0.0810546875	-53.9375	14.3125	42.5625
18	12	13	15	34	21	-0.616367936302	-0.0319200347248	-0.734526994098	-0.61669921875	0.24951171875	-0.07373046875	-46.0	13.6875	43.75
18	12	13	15	34	21	-0.612574244315	-0.0323467519664	-0.733966111601	-0.60400390625	0.29052734375	-0.09814453125	-40.25	12.4375	43.6875
18	12	13	15	34	21	-0.608784919446	-0.0330178086637	-0.733471394677	-0.60791015625	0.3251953125	-0.10888671875	-37.625	11.4375	41.3125
18	12	13	15	34	21	-0.605072327389	-0.033262499337	-0.7330566597	-0.6337890625	0.35302734375	-0.12939453125	-36.875	10.5	37.0625
18	12	13	15	34	21	-0.601781207831	-0.0330186240808	-0.732574020041	-0.6865234375	0.3798828125	-0.15380859375	-36.0625	8.8125	32.1875
18	12	13	15	34	21	-0.59903518592	-0.0320421266029	-0.731964236855	-0.72998046875	0.412109375	-0.1767578125	-36.0625	5.5	25.375
18	12	13	15	34	21	-0.597151569497	-0.0300284722192	-0.731059024881	-0.77490234375	0.42138671875	-0.18408203125	-36.625	2.1875	17.625
18	12	13	15	34	21	-0.596120190286	-0.0270991465636	-0.72996800203	-0.8203125	0.4072265625	-0.17578125	-35.1875	0.1875	10.6875
18	12	13	15	34	21	-0.595924263633	-0.0239858905784	-0.729036801424	-0.84814453125	0.37158203125	-0.15625	-27.375	-1.5625	4.9375
18	12	13	15	34	21	-0.596430790964	-0.0214231690164	-0.728387746559	-0.861328125	0.35888671875	-0.14501953125	-16.625	-4.3125	0.5625
18	12	13	15	34	21	-0.597151902051	-0.0197138250575	-0.728129823331	-0.83837890625	0.37255859375	-0.13134765625	-6.8125	-5.0	-3.0625
18	12	13	15	34	21	-0.597877686287	-0.0184319172375	-0.728243829397	-0.82373046875	0.39208984375	-0.11328125	-0.8125	-3.625	-6.1875
18	12	13	15	34	21	-0.598584306329	-0.0169053683578	-0.728517624862	-0.83056640625	0.4228515625	-0.11181640625	0.4375	-2.3125	-9.8125
18	12	13	15	34	21	-0.59927303592	-0.0147697397589	-0.728660838766	-0.8369140625	0.44677734375	-0.09912109375	-2.25	-0.875	-13.125
18	12	13	15	34	21	-0.600251602415	-0.0117181807487	-0.728602300929	-0.8427734375	0.4453125	-0.09375	-5.875	-0.6875	-17.8125
18	12	13	15	34	21	-0.60153825278	-0.00775115240494	-0.72836419528	-0.84716796875	0.4482421875	-0.08544921875	-8.0625	-0.4375	-23.125
18	12	13	15	34	21	-0.603118814646	-0.0032346991678	-0.728051440995	-0.87646484375	0.453125	-0.0869140625	-8.25	-0.9375	-28.0
18	12	13	15	34	21	-0.605442072027	0.00158684414039	-0.727568038371	-0.91064453125	0.4384765625	-0.07080078125	-4.8125	-2.8125	-32.75
18	12	13	15	34	21	-0.608195413417	0.00628641521143	-0.726965937702	-0.9423828125	0.46044921875	-0.07421875	-1.625	-6.0	-37.0
18	12	13	15	34	21	-0.611534758265	0.0112297799921	-0.725968657641	-0.98388671875	0.46142578125	-0.07373046875	-1.625	-8.9375	-39.75
18	12	13	15	34	21	-0.61557297084	0.0164787529374	-0.724393772646	-1.04150390625	0.44482421875	-0.05078125	-2.25	-12.375	-42.125
18	12	13	15	34	21	-0.620090615937	0.0215444869514	-0.722503219633	-1.119140625	0.47216796875	-0.0478515625	-0.125	-15.1875	-44.4375
18	12	13	15	34	21	-0.625012893625	0.0264261871829	-0.720525556307	-1.23828125	0.52099609375	-0.05224609375	3.625	-18.25	-48.4375
18	12	13	15	34	21	-0.63114463293	0.0319203793659	-0.717628720046	-1.36572265625	0.52783203125	-0.03369140625	3.6875	-24.3125	-54.8125
18	12	13	15	34	21	-0.638635252158	0.0378396269436	-0.713582126169	-1.4365234375	0.5009765625	0.0	3.25	-32.25	-60.25
18	12	13	15	34	21	-0.647011760398	0.0433334921123	-0.708716211842	-1.44287109375	0.4775390625	0.0595703125	6.8125	-36.5625	-62.75
18	12	13	15	34	21	-0.655540826847	0.0483370575238	-0.703511694541	-1.41064453125	0.4423828125	0.1162109375	8.875	-36.625	-61.6875
18	12	13	15	34	21	-0.663544934826	0.052915145189	-0.698272406121	-1.3876953125	0.40185546875	0.15771484375	7.5	-34.125	-56.1875
18	12	13	15	34	21	-0.671300761181	0.057554015619	-0.69254020703	-1.31640625	0.287109375	0.20947265625	1.75	-33.3125	-46.4375
18	12	13	15	34	21	-0.678628298917	0.0604839144011	-0.686745716288	-1.1904296875	0.18115234375	0.24755859375	4.1875	-33.0	-31.5
18	12	13	15	34	21	-0.684895743783	0.0599939864675	-0.682027262232	-1.0751953125	0.12158203125	0.2470703125	16.9375	-30.375	-13.0625
18	12	13	15	34	21	-0.689732110851	0.055173686241	-0.678990331229	-1.0478515625	0.1474609375	0.22021484375	34.75	-26.5	4.375
18	12	13	15	34	21	-0.693441124231	0.0475436222299	-0.677145685033	-1.0400390625	0.20458984375	0.1875	45.75	-24.3125	14.125
18	12	13	15	34	21	-0.696605407302	0.0388766115693	-0.675488754865	-0.9560546875	0.22998046875	0.17578125	46.25	-24.0625	19.75
18	12	13	15	34	21	-0.69937742	0.0292958514355	-0.67368251697	-0.837890625	0.23388671875	0.17236328125	44.625	-24.1875	26.8125
18	12	13	15	34	22	-0.701710405816	0.018615436529	-0.671803638933	-0.7080078125	0.22705078125	0.16943359375	44.4375	-24.625	35.1875
18	12	13	15	34	22	-0.703631592933	0.00689655390766	-0.6697591379	-0.58642578125	0.2177734375	0.17822265625	43.9375	-23.875	43.375
18	12	13	15	34	22	-0.704747090939	-0.0054319296002	-0.667944242075	-0.48388671875	0.22509765625	0.158203125	42.125	-21.625	49.75
18	12	13	15	34	22	-0.705168881345	-0.0176994093466	-0.666230180783	-0.39892578125	0.2158203125	0.134765625	37.4375	-19.625	53.6875
18	12	13	15	34	22	-0.705049495265	-0.0296008487884	-0.66452379713	-0.34814453125	0.20654296875	0.1123046875	32.375	-18.125	57.0
18	12	13	15	34	22	-0.704443496859	-0.0415024759889	-0.663002053923	-0.326171875	0.20849609375	0.0869140625	30.875	-17.0625	58.3125
18	12	13	15	34	22	-0.703579340946	-0.0531590567283	-0.661650211242	-0.34326171875	0.23486328125	0.060546875	30.875	-17.25	56.0625
18	12	13	15	34	22	-0.702811724933	-0.0642692788844	-0.66039278018	-0.39111328125	0.26611328125	0.021484375	31.0	-19.1875	50.125
18	12	13	15	34	22	-0.702221809108	-0.0747018507168	-0.659500162456	-0.4853515625	0.30517578125	-0.01025390625	33.875	-21.125	41.125
18	12	13	15	34	22	-0.702060911652	-0.0844694689843	-0.659154815774	-0.64306640625	0.3623046875	-0.03271484375	41.25	-23.25	28.4375
18	12	13	15	34	22	-0.702592698721	-0.0939272205813	-0.659443546707	-0.8251953125	0.41943359375	-0.0458984375	54.25	-26.5625	13.0625
18	12	13	15	34	22	-0.704368905461	-0.102899746522	-0.65975460255	-0.92578125	0.4599609375	-0.02294921875	67.3125	-32.0625	-5.625
18	12	13	15	34	22	-0.707476181666	-0.111260272531	-0.659627551022	-0.9462890625	0.47314453125	0.0322265625	77.875	-36.25	-23.5
18	12	13	15	34	22	-0.711038031734	-0.119320116055	-0.659464886943	-0.93359375	0.48681640625	0.09423828125	87.0	-35.25	-36.375
18	12	13	15	34	22	-0.714622183792	-0.126641133433	-0.65926627631	-0.90576171875	0.4892578125	0.146484375	89.75	-31.3125	-45.4375
18	12	13	15	34	22	-0.71804333463	-0.131951524817	-0.658964206035	-0.85888671875	0.50244140625	0.19140625	80.1875	-25.1875	-53.375
18	12	13	15	34	22	-0.721158725407	-0.134271258962	-0.658722589989	-0.82421875	0.5	0.22119140625	61.75	-17.25	-58.5
18	12	13	15	34	22	-0.72357300948	-0.133716975689	-0.65900315084	-0.80908203125	0.4609375	0.205078125	42.125	-8.4375	-58.9375
18	12	13	15	34	22	-0.725243043695	-0.130120185909	-0.65987779083	-0.83544921875	0.47216796875	0.13623046875	17.875	-3.0625	-59.5625
18	12	13	15	34	22	-0.726470993725	-0.123591007502	-0.660983017898	-0.8974609375	0.48583984375	0.09228515625	-7.1875	1.5	-58.0625
18	12	13	15	34	22	-0.72749001791	-0.114677327488	-0.662369896341	-0.9384765625	0.4287109375	0.08740234375	-21.375	5.5625	-58.625
18	12	13	15	34	22	-0.728195329925	-0.105893797454	-0.663987678673	-0.974609375	0.40234375	0.0849609375	-19.1875	7.0	-57.8125
18	12	13	15	34	22	-0.728606947327	-0.0992389760724	-0.665743389298	-0.982421875	0.380859375	0.11083984375	-3.75	8.0625	-55.6875
18	12	13	15	34	22	-0.728613161208	-0.09563886946	-0.667702126287	-0.95654296875	0.37158203125	0.13037109375	16.5	9.0	-52.5
18	12	13	15	34	22	-0.728234800298	-0.0953321118056	-0.669644001749	-0.9384765625	0.41845703125	0.14013671875	33.875	8.5625	-47.3125
18	12	13	15	34	22	-0.727325217076	-0.0972248947556	-0.671663507084	-0.935546875	0.48681640625	0.12158203125	40.625	9.6875	-42.125
18	12	13	15	34	22	-0.725770607136	-0.0991740024047	-0.67401703542	-0.982421875	0.53515625	0.10498046875	35.0625	13.0	-37.5
18	12	13	15	34	22	-0.72371423837	-0.100092034991	-0.676719807307	-1.0517578125	0.56396484375	0.07861328125	22.75	16.8125	-34.5
18	12	13	15	34	22	-0.721225066398	-0.0996055943439	-0.679844801101	-1.1416015625	0.5595703125	0.05908203125	11.8125	20.625	-31.9375
18	12	13	15	34	22	-0.718459829556	-0.0984434000232	-0.683183769287	-1.20458984375	0.544921875	0.06201171875	5.25	24.0625	-28.375
18	12	13	15	34	22	-0.715317134042	-0.0976542162515	-0.686692241903	-1.29736328125	0.56005859375	0.03857421875	2.75	25.875	-21.8125
18	12	13	15	34	22	-0.711454930445	-0.0975298086001	-0.690642874918	-1.48583984375	0.61767578125	-0.01318359375	-0.375	28.0625	-13.9375
18	12	13	15	34	22	-0.707529989401	-0.0962455613979	-0.694591461172	-1.5966796875	0.63818359375	-0.03515625	-10.5	28.8125	-11.875
18	12	13	15	34	22	-0.704239637081	-0.0923402869316	-0.697953417944	-1.5107421875	0.5712890625	-0.01123046875	-28.375	29.25	-11.625
18	12	13	15	34	22	-0.701190328383	-0.0872139419671	-0.700824139684	-1.3076171875	0.443359375	0.01953125	-42.6875	30.875	-1.25
18	12	13	15	34	22	-0.697848238451	-0.0828824477712	-0.70346324964	-1.11474609375	0.3427734375	0.0498046875	-46.875	34.25	13.875
18	12	13	15	34	22	-0.693329978854	-0.0806240230692	-0.706574046232	-1.00048828125	0.32470703125	0.01806640625	-45.5	38.6875	30.6875
18	12	13	15	34	22	-0.687908230154	-0.080197978389	-0.709941312497	-0.978515625	0.32373046875	-0.05126953125	-43.75	38.875	43.6875
18	12	13	15	34	22	-0.68247462435	-0.0808081204292	-0.712808186173	-0.9853515625	0.31982421875	-0.09375	-44.0625	34.125	53.5625
18	12	13	15	34	22	-0.677330244434	-0.0822707847808	-0.714925795937	-0.96826171875	0.32666015625	-0.12158203125	-44.0625	28.5	59.625
18	12	13	15	34	22	-0.67252369493	-0.0836763758734	-0.716345458517	-0.90771484375	0.31982421875	-0.12744140625	-47.6875	24.25	62.0625
18	12	13	15	34	22	-0.668246328734	-0.0846522657736	-0.716950372056	-0.857421875	0.2880859375	-0.1064453125	-51.5	21.1875	63.6875
18	12	13	15	34	22	-0.664386826023	-0.0851386755744	-0.717056845393	-0.8154296875	0.2158203125	-0.10205078125	-52.0625	18.0625	64.6875
18	12	13	15	34	22	-0.660161417304	-0.0869677377884	-0.717285489283	-0.76220703125	0.17138671875	-0.08447265625	-43.6875	19.125	70.3125
18	12	13	15	34	22	-0.65579263463	-0.0904499473728	-0.717374278961	-0.68603515625	0.1533203125	-0.06640625	-35.0	18.25	75.125
18	12	13	15	34	22	-0.650705499862	-0.0948411505145	-0.717838875387	-0.6376953125	0.15283203125	-0.07275390625	-29.6875	20.8125	78.3125
18	12	13	15	34	22	-0.644546826278	-0.0997244119059	-0.718760342115	-0.59912109375	0.18505859375	-0.09521484375	-29.4375	25.1875	81.3125
18	12	13	15	34	22	-0.63784110173	-0.103692664036	-0.7196844581	-0.6123046875	0.21533203125	-0.12109375	-37.5	28.125	81.625
18	12	13	15	34	22	-0.631016705346	-0.10570857275	-0.720429557008	-0.6552734375	0.22021484375	-0.15673828125	-48.6875	29.625	78.5
18	12	13	15	34	22	-0.624353745731	-0.106011970316	-0.721149937395	-0.705078125	0.234375	-0.18994140625	-54.5625	29.5625	71.75
18	12	13	15	34	23	-0.618240014484	-0.104850576988	-0.72205307121	-0.7880859375	0.2529296875	-0.22705078125	-53.5	27.875	61.1875
18	12	13	15	34	23	-0.613252114784	-0.102717287936	-0.723049144491	-0.85791015625	0.2646484375	-0.24267578125	-46.8125	23.0625	48.25
18	12	13	15	34	23	-0.609750315071	-0.100211191807	-0.724059427285	-0.87255859375	0.265625	-0.23974609375	-35.9375	15.75	33.4375
18	12	13	15	34	23	-0.607638891137	-0.0982011827882	-0.725248387242	-0.8759765625	0.29443359375	-0.22412109375	-19.5625	9.125	19.5625
18	12	13	15	34	23	-0.606666236509	-0.0969811518926	-0.727206057143	-0.87841796875	0.2919921875	-0.21630859375	2.4375	4.0	5.5625
18	12	13	15	34	23	-0.606794323651	-0.0960666128974	-0.729532543814	-0.87451171875	0.333984375	-0.2119140625	17.5	-1.3125	-10.0625
18	12	13	15	34	23	-0.608083214123	-0.0941146558445	-0.731494260892	-0.8662109375	0.37890625	-0.18701171875	19.5	-4.5	-24.5625
18	12	13	15	34	23	-0.610011329206	-0.0903878717913	-0.733051133076	-0.84033203125	0.39599609375	-0.15283203125	13.8125	-3.875	-35.3125
18	12	13	15	34	23	-0.61251181756	-0.0847116782357	-0.73414753422	-0.82470703125	0.40087890625	-0.13720703125	5.5	-3.625	-45.5
18	12	13	15	34	23	-0.615393393443	-0.0769623196599	-0.734712453661	-0.84375	0.4326171875	-0.12890625	-5.875	-2.6875	-53.9375
18	12	13	15	34	23	-0.618632242337	-0.0671364903878	-0.734900437054	-0.8720703125	0.4306640625	-0.11572265625	-14.8125	-1.3125	-62.125
18	12	13	15	34	23	-0.621854707291	-0.0559052813699	-0.735007973295	-0.912109375	0.4443359375	-0.125	-20.25	-0.375	-68.9375
18	12	13	15	34	23	-0.625156039721	-0.0438823774831	-0.734892499686	-0.94970703125	0.46435546875	-0.130859375	-23.5	-0.25	-74.625
18	12	13	15	34	23	-0.628608578091	-0.0311252791094	-0.734434527063	-1.0009765625	0.47705078125	-0.125	-26.0625	-0.875	-79.0625
18	12	13	15	34	23	-0.632367117239	-0.0180048547037	-0.733499470609	-1.0595703125	0.49169921875	-0.12646484375	-27.375	-3.625	-82.8125
18	12	13	15	34	23	-0.636637800321	-0.00476059327246	-0.73184966577	-1.11767578125	0.48779296875	-0.1181640625	-28.4375	-7.5625	-85.125
18	12	13	15	34	23	-0.641439677563	0.00830026604648	-0.729446910203	-1.1396484375	0.45849609375	-0.0849609375	-27.5	-11.375	-85.25
18	12	13	15	34	23	-0.646693726432	0.0204456774589	-0.726523416331	-1.1328125	0.419921875	-0.0546875	-22.4375	-15.125	-84.0
18	12	13	15	34	23	-0.652045789702	0.0310643304903	-0.723389998628	-1.1171875	0.4140625	-0.01025390625	-14.5	-16.0625	-81.1875
18	12	13	15	34	23	-0.65712013021	0.0395480490736	-0.720470245855	-1.17041015625	0.44287109375	0.0068359375	-5.0	-16.0	-76.1875
18	12	13	15	34	23	-0.662317200081	0.0469944935553	-0.717184797102	-1.2353515625	0.470703125	0.02490234375	-2.6875	-18.5	-73.875
18	12	13	15	34	23	-0.667759209362	0.0545022369034	-0.713106535252	-1.2822265625	0.462890625	0.0537109375	-8.875	-21.375	-70.1875
18	12	13	15	34	23	-0.672941864824	0.0622529205623	-0.70858471346	-1.3203125	0.41748046875	0.083984375	-17.4375	-21.625	-62.5625
18	12	13	15	34	23	-0.677661824494	0.0703113052164	-0.703662359236	-1.30126953125	0.35009765625	0.11474609375	-28.625	-20.1875	-51.625
18	12	13	15	34	23	-0.681600460488	0.0785476175365	-0.698567234128	-1.2529296875	0.27294921875	0.13525390625	-40.375	-18.375	-37.8125
18	12	13	15	34	23	-0.684786507178	0.0860560583886	-0.693636243679	-1.22509765625	0.18701171875	0.13427734375	-44.875	-17.5	-22.4375
18	12	13	15	34	23	-0.687533530314	0.0917321700898	-0.68905934818	-1.20263671875	0.1123046875	0.11865234375	-40.125	-18.5625	-7.8125
18	12	13	15	34	23	-0.689982405548	0.095273112345	-0.68491663468	-1.13623046875	0.052734375	0.107421875	-32.0	-19.6875	5.5625
18	12	13	15	34	23	-0.692550281063	0.0958230317502	-0.681259032099	-1.03271484375	-0.00390625	0.10546875	-16.25	-22.0625	17.125
18	12	13	15	34	23	-0.695507284464	0.0921565461162	-0.678418653396	-0.95361328125	-0.0322265625	0.0947265625	9.75	-25.625	26.5625
18	12	13	15	34	23	-0.698887286588	0.084347413332	-0.676366161031	-0.92431640625	-0.0283203125	0.083984375	36.0625	-29.1875	33.375
18	12	13	15	34	23	-0.70249220682	0.0729346817681	-0.674966230689	-0.916015625	0.013671875	0.07373046875	58.9375	-32.375	37.1875
18	12	13	15	34	23	-0.705954806043	0.0589567167491	-0.674096207551	-0.9208984375	0.07470703125	0.0615234375	74.0	-33.5	39.3125
18	12	13	15	34	23	-0.70909711791	0.0438837001014	-0.673330986812	-0.8935546875	0.1337890625	0.0732421875	78.6875	-32.375	40.3125
18	12	13	15	34	23	-0.711957524075	0.0294792528185	-0.672163584452	-0.84033203125	0.15869140625	0.10205078125	72.125	-30.625	40.1875
18	12	13	15	34	23	-0.71476458338	0.0162959733381	-0.670393150358	-0.74951171875	0.1494140625	0.13623046875	63.3125	-28.75	39.375
18	12	13	15	34	23	-0.717494051893	0.00390605812531	-0.668363164535	-0.66357421875	0.1416015625	0.16796875	59.75	-26.625	36.75
18	12	13	15	34	23	-0.719948869143	-0.00799536299235	-0.666483693713	-0.57861328125	0.13623046875	0.16357421875	59.25	-23.875	33.4375
18	12	13	15	34	23	-0.721818863016	-0.0194690299571	-0.664998590634	-0.52490234375	0.15625	0.1376953125	57.5	-21.0625	30.6875
18	12	13	15	34	23	-0.723337996827	-0.0300271932534	-0.663649795604	-0.51416015625	0.169921875	0.1181640625	52.0625	-19.8125	27.9375
18	12	13	15	34	23	-0.724742381956	-0.039792171203	-0.662307732967	-0.53271484375	0.171875	0.09375	49.0	-19.9375	25.1875
18	12	13	15	34	23	-0.725997180946	-0.0491322177942	-0.661118239934	-0.56640625	0.193359375	0.0810546875	48.4375	-19.8125	22.0625
18	12	13	15	34	23	-0.727124206771	-0.0580405506664	-0.660112088336	-0.61181640625	0.2109375	0.0703125	48.5625	-19.4375	18.1875
18	12	13	15	34	23	-0.728155692196	-0.0667674400522	-0.659313212874	-0.68994140625	0.23876953125	0.06494140625	51.0625	-19.3125	14.1875
18	12	13	15	34	23	-0.729045793154	-0.0754374717738	-0.658796173403	-0.78857421875	0.28369140625	0.05908203125	54.3125	-19.0	9.3125
18	12	13	15	34	23	-0.72981211706	-0.0837959555715	-0.658588606389	-0.87841796875	0.3388671875	0.0556640625	57.5	-18.4375	2.1875
18	12	13	15	34	23	-0.730542478852	-0.0914856454302	-0.658586791085	-0.92724609375	0.38623046875	0.06982421875	58.9375	-16.5625	-6.625
18	12	13	15	34	23	-0.731169939857	-0.0981403391728	-0.658785336462	-0.9580078125	0.4345703125	0.08203125	56.5	-13.75	-15.4375
18	12	13	15	34	23	-0.731791643358	-0.10314661195	-0.659161780506	-0.99267578125	0.4541015625	0.10107421875	51.625	-10.875	-23.5
18	12	13	15	34	23	-0.73245090174	-0.106684790954	-0.65957810975	-1.01318359375	0.4775390625	0.11669921875	45.5625	-8.375	-30.8125
18	12	13	15	34	23	-0.733005693229	-0.108272447942	-0.660193387482	-1.01123046875	0.501953125	0.13330078125	35.4375	-4.125	-37.9375
18	12	13	15	34	24	-0.733465852821	-0.106986656681	-0.661022520545	-0.97265625	0.50146484375	0.1435546875	17.8125	1.4375	-43.75
18	12	13	15	34	24	-0.733713676963	-0.102715032301	-0.662185442942	-0.91845703125	0.45947265625	0.15673828125	-0.8125	8.0625	-47.125
18	12	13	15	34	24	-0.733560333229	-0.0964937920655	-0.663799166669	-0.8720703125	0.4169921875	0.16162109375	-13.1875	14.125	-47.625
18	12	13	15	34	24	-0.733116903973	-0.0893509113733	-0.665615464097	-0.83984375	0.39208984375	0.16259765625	-20.625	17.9375	-46.8125
18	12	13	15	34	24	-0.73220050147	-0.0823321227376	-0.667750744901	-0.83642578125	0.3828125	0.15185546875	-22.1875	20.5625	-43.75
18	12	13	15	34	24	-0.730914249442	-0.0759232904397	-0.670126791823	-0.85107421875	0.36669921875	0.14208984375	-19.3125	22.5625	-40.5
18	12	13	15	34	24	-0.72916880279	-0.0704328114522	-0.672773726723	-0.87353515625	0.3798828125	0.109375	-17.4375	22.625	-36.1875
18	12	13	15	34	24	-0.727246973217	-0.0657915606855	-0.675431541842	-0.931640625	0.3837890625	0.09521484375	-14.75	22.25	-31.875
18	12	13	15	34	24	-0.725234508583	-0.062129826621	-0.678057341611	-1.00244140625	0.38623046875	0.08154296875	-10.5625	21.1875	-27.625
18	12	13	15	34	24	-0.723249426861	-0.0595688979423	-0.680647899439	-1.0556640625	0.365234375	0.07958984375	-2.6875	19.75	-24.875
18	12	13	15	34	24	-0.721092607025	-0.0583465537297	-0.683313823805	-1.1279296875	0.396484375	0.06689453125	4.0	19.1875	-22.3125
18	12	13	15	34	24	-0.718888464797	-0.0582849549096	-0.685992558308	-1.18408203125	0.40869140625	0.068359375	11.25	19.5625	-20.625
18	12	13	15	34	24	-0.716414980715	-0.0588366026077	-0.688888727835	-1.22509765625	0.4267578125	0.0625	14.3125	20.9375	-19.3125
18	12	13	15	34	24	-0.713668278031	-0.0601793314067	-0.691879209763	-1.31396484375	0.47412109375	0.0419921875	15.125	21.3125	-15.5
18	12	13	15	34	24	-0.710598057247	-0.0615204708155	-0.695034842904	-1.4228515625	0.5322265625	-0.00439453125	10.6875	20.875	-13.4375
18	12	13	15	34	24	-0.707299561909	-0.0613981671655	-0.698266829563	-1.50146484375	0.58203125	-0.02001953125	-2.8125	23.6875	-13.25
18	12	13	15	34	24	-0.703859722228	-0.0584057707597	-0.701601609878	-1.47265625	0.54150390625	-0.0166015625	-21.75	27.75	-14.75
18	12	13	15	34	24	-0.700643756905	-0.0529144718847	-0.704488753132	-1.34326171875	0.43017578125	0.001953125	-41.625	29.25	-8.4375
18	12	13	15	34	24	-0.697703241615	-0.0468105656332	-0.706674758106	-1.19189453125	0.3017578125	0.0361328125	-53.4375	29.3125	5.25
18	12	13	15	34	24	-0.693998295714	-0.0421733200544	-0.709012241783	-1.0966796875	0.24267578125	0.0400390625	-56.125	33.3125	23.5625
18	12	13	15	34	24	-0.688442806131	-0.038694391763	-0.712428446451	-1.08251953125	0.27490234375	-0.0302734375	-60.9375	40.875	38.0625
18	12	13	15	34	24	-0.681564042308	-0.0342399415899	-0.716353287774	-1.0927734375	0.27783203125	-0.09228515625	-75.75	46.0625	45.9375
18	12	13	15	34	24	-0.674919206245	-0.0283810301053	-0.719291268366	-1.0771484375	0.173828125	-0.1015625	-89.5	42.875	55.4375
18	12	13	15	34	24	-0.669222044473	-0.0244130248782	-0.72085559209	-0.9892578125	0.09326171875	-0.08056640625	-82.0	33.5625	66.1875
18	12	13	15	34	24	-0.663861891551	-0.0244134188306	-0.721965828367	-0.85107421875	0.08056640625	-0.05859375	-60.75	27.0625	75.8125
18	12	13	15	34	24	-0.65815047099	-0.0280739258768	-0.723391833517	-0.74462890625	0.10888671875	-0.06640625	-39.5625	25.25	81.6875
18	12	13	15	34	24	-0.651480330326	-0.0339961161693	-0.725575994652	-0.67236328125	0.1591796875	-0.095703125	-26.5625	27.1875	85.0625
18	12	13	15	34	24	-0.644368836403	-0.0402196498569	-0.727432483528	-0.625	0.20703125	-0.10302734375	-30.4375	27.375	88.125
18	12	13	15	34	24	-0.637231656984	-0.0452244667968	-0.728535033945	-0.59130859375	0.20068359375	-0.1162109375	-42.6875	25.8125	89.3125
18	12	13	15	34	24	-0.629899153194	-0.0494349689068	-0.729257337614	-0.5634765625	0.20166015625	-0.13671875	-49.25	25.25	88.8125
18	12	13	15	34	24	-0.622413802025	-0.052671417057	-0.729892788627	-0.57177734375	0.193359375	-0.16796875	-52.4375	25.5625	85.8125
18	12	13	15	34	24	-0.615025674491	-0.0548072894406	-0.73062144977	-0.62109375	0.197265625	-0.20166015625	-52.5625	25.1875	79.375
18	12	13	15	34	24	-0.608116110074	-0.0559657238998	-0.731399384095	-0.67578125	0.2138671875	-0.23876953125	-50.3125	22.75	70.1875
18	12	13	15	34	24	-0.60228426335	-0.0562734182011	-0.7321037433	-0.75244140625	0.2353515625	-0.26708984375	-45.0625	17.875	58.6875
18	12	13	15	34	24	-0.598091776328	-0.0554760637431	-0.732601396229	-0.84521484375	0.23388671875	-0.2802734375	-38.75	11.25	45.9375
18	12	13	15	34	24	-0.595404621218	-0.0543773593179	-0.733209421824	-0.90234375	0.23486328125	-0.27783203125	-26.625	5.3125	33.4375
18	12	13	15	34	24	-0.594021386833	-0.0534637557656	-0.734150134822	-0.9267578125	0.25927734375	-0.26123046875	-11.75	0.75	20.375
18	12	13	15	34	24	-0.593763269115	-0.0525470423177	-0.735475501707	-0.91845703125	0.28759765625	-0.25634765625	1.5	-2.875	5.5625
18	12	13	15	34	24	-0.594129622099	-0.051082331145	-0.737428682467	-0.93505859375	0.3173828125	-0.24658203125	12.125	-2.1875	-8.4375
18	12	13	15	34	24	-0.595287386726	-0.0492512734353	-0.739806612866	-0.9296875	0.30859375	-0.1943359375	24.625	-0.8125	-20.75
18	12	13	15	34	24	-0.596721864455	-0.0479110835222	-0.742774377663	-0.89794921875	0.34228515625	-0.15771484375	38.9375	0.9375	-31.6875
18	12	13	15	34	24	-0.598064016225	-0.046568307417	-0.746008416197	-0.873046875	0.42041015625	-0.15087890625	44.25	2.625	-41.125
18	12	13	15	34	24	-0.599705183208	-0.043638225727	-0.748563410548	-0.85205078125	0.48095703125	-0.150390625	34.5625	2.3125	-50.4375
18	12	13	15	34	24	-0.601589478193	-0.0377786230092	-0.749957543678	-0.849609375	0.521484375	-0.15283203125	11.375	2.375	-58.0625
18	12	13	15	34	24	-0.603791341319	-0.0280137699045	-0.750024440864	-0.86181640625	0.52099609375	-0.13623046875	-16.75	4.25	-64.875
18	12	13	15	34	24	-0.606059914385	-0.0152583060016	-0.749365924353	-0.8828125	0.46240234375	-0.10693359375	-34.875	8.125	-69.5625
18	12	13	15	34	24	-0.60838392927	-0.00128170771616	-0.748456272536	-0.91748046875	0.42724609375	-0.08837890625	-39.125	9.9375	-73.3125
18	12	13	15	34	24	-0.610861980385	0.0125114103286	-0.747449962412	-0.98291015625	0.4228515625	-0.0859375	-34.8125	9.375	-75.5
18	12	13	15	34	24	-0.613479509723	0.0256328485957	-0.746282077685	-1.0458984375	0.44775390625	-0.10107421875	-30.1875	6.4375	-77.125
18	12	13	15	34	24	-0.616672536371	0.0383894522345	-0.744474623778	-1.10107421875	0.44921875	-0.1025390625	-28.625	1.3125	-77.6875
18	12	13	15	34	25	-0.620701722836	0.0505960401407	-0.741790436514	-1.16650390625	0.41357421875	-0.099609375	-27.25	-6.125	-75.875
18	12	13	15	34	25	-0.625954018479	0.0611550240363	-0.73825466142	-1.248046875	0.3837890625	-0.07958984375	-18.8125	-15.3125	-72.375
18	12	13	15	34	25	-0.632227668876	0.0692099793905	-0.73439478131	-1.35009765625	0.369140625	-0.0771484375	-2.5625	-23.625	-68.875
18	12	13	15	34	25	-0.639641285417	0.0748892993518	-0.730033341114	-1.49169921875	0.3642578125	-0.06005859375	12.4375	-31.9375	-65.625
18	12	13	15	34	25	-0.648235498485	0.0783058228562	-0.724832386781	-1.55615234375	0.37060546875	-0.01123046875	23.625	-40.375	-62.25
18	12	13	15	34	25	-0.657498247648	0.0797688860741	-0.718774423332	-1.53515625	0.38232421875	0.07666015625	27.875	-45.0	-56.3125
18	12	13	15	34	25	-0.66617923071	0.0800147477289	-0.712564591712	-1.5107421875	0.39990234375	0.12646484375	24.5625	-44.125	-46.3125
18	12	13	15	34	25	-0.673810305759	0.0804422086042	-0.706341183745	-1.482421875	0.42333984375	0.15380859375	11.375	-41.0	-38.4375
18	12	13	15	34	25	-0.680017869997	0.0834306613073	-0.700036346155	-1.40625	0.384765625	0.13134765625	-14.25	-37.1875	-32.5
18	12	13	15	34	25	-0.685273945277	0.089046552027	-0.69339128004	-1.2783203125	0.251953125	0.1142578125	-37.1875	-36.125	-24.1875
18	12	13	15	34	25	-0.690192431518	0.0949022222133	-0.686469579071	-1.0986328125	0.1240234375	0.11279296875	-44.125	-37.0625	-13.3125
18	12	13	15	34	25	-0.694435136765	0.0984464647216	-0.680275446861	-0.921875	0.0546875	0.0830078125	-36.0625	-37.25	1.75
18	12	13	15	34	25	-0.697917603394	0.098019735116	-0.675640390868	-0.8330078125	0.02099609375	0.048828125	-15.4375	-35.1875	16.4375
18	12	13	15	34	25	-0.701458793026	0.0935644592108	-0.672223714121	-0.818359375	0.0205078125	0.015625	10.875	-36.8125	23.375
18	12	13	15	34	25	-0.705458250654	0.0854435116287	-0.66951094469	-0.7822265625	0.02783203125	-0.005859375	35.875	-41.3125	27.0625
18	12	13	15	34	25	-0.709844549758	0.0739078110014	-0.66718430212	-0.72705078125	0.064453125	-0.01513671875	56.5	-45.1875	30.3125
18	12	13	15	34	25	-0.71444591427	0.0598118055684	-0.665070658448	-0.64697265625	0.07763671875	-0.00634765625	72.6875	-46.8125	33.125
18	12	13	15	34	25	-0.718831263636	0.0437597228755	-0.663109329208	-0.556640625	0.091796875	0.0302734375	83.25	-45.0625	36.9375
18	12	13	15	34	25	-0.722663527983	0.0262431650226	-0.661388789186	-0.47314453125	0.10693359375	0.06103515625	90.0	-40.75	40.9375
18	12	13	15	34	25	-0.725716756351	0.00793399868183	-0.65998662881	-0.3955078125	0.13232421875	0.07763671875	93.5	-35.75	43.375
18	12	13	15	34	25	-0.727757087505	-0.0103145712671	-0.65891190177	-0.34130859375	0.17041015625	0.06884765625	90.1875	-30.75	44.1875
18	12	13	15	34	25	-0.728805343027	-0.0275873055061	-0.658128131133	-0.32568359375	0.21875	0.0498046875	81.75	-25.875	43.4375
18	12	13	15	34	25	-0.729105854384	-0.0428454972189	-0.657513591937	-0.38232421875	0.25732421875	0.0380859375	68.4375	-21.375	40.75
18	12	13	15	34	25	-0.729038980754	-0.0554179484742	-0.656836961982	-0.4892578125	0.29248046875	0.03173828125	52.5625	-18.5	36.5
18	12	13	15	34	25	-0.729022646437	-0.0653648601368	-0.655906771139	-0.58349609375	0.296875	0.04443359375	38.4375	-16.5625	32.625
18	12	13	15	34	25	-0.728863963156	-0.0731793578818	-0.655135302338	-0.6953125	0.31494140625	0.06201171875	29.0	-13.0625	28.125
18	12	13	15	34	25	-0.728599532673	-0.0790974195296	-0.654811893621	-0.86083984375	0.3369140625	0.07958984375	24.3125	-9.75	21.125
18	12	13	15	34	25	-0.728540207658	-0.0836139804383	-0.654813427826	-1.0029296875	0.34716796875	0.1025390625	25.0	-7.4375	12.4375
18	12	13	15	34	25	-0.728591367861	-0.0875188491801	-0.65529280589	-1.046875	0.35693359375	0.1376953125	31.3125	-4.75	2.125
18	12	13	15	34	25	-0.728622086732	-0.0919169762622	-0.656358009777	-1.04931640625	0.373046875	0.17236328125	44.25	-0.875	-8.3125
18	12	13	15	34	25	-0.728370748981	-0.0970428599698	-0.658121483682	-1.0419921875	0.41357421875	0.1884765625	57.3125	2.375	-18.375
18	12	13	15	34	25	-0.72792749512	-0.101984308237	-0.660182083903	-1.01953125	0.47705078125	0.19189453125	60.0625	5.3125	-27.875
18	12	13	15	34	25	-0.727459260857	-0.104611559116	-0.662214361968	-0.95263671875	0.49853515625	0.19775390625	46.375	9.25	-35.9375
18	12	13	15	34	25	-0.726888291687	-0.103998123345	-0.664330735098	-0.87158203125	0.47509765625	0.21044921875	26.0	15.375	-40.8125
18	12	13	15	34	25	-0.72595331229	-0.100943823332	-0.666754093045	-0.8271484375	0.46240234375	0.19677734375	8.5	21.4375	-42.9375
18	12	13	15	34	25	-0.724684860102	-0.0956969732726	-0.669512625511	-0.82080078125	0.4443359375	0.17333984375	-6.375	25.25	-44.6875
18	12	13	15	34	25	-0.723034613164	-0.0891663349229	-0.672561951301	-0.8427734375	0.43896484375	0.14697265625	-15.6875	27.8125	-44.6875
18	12	13	15	34	25	-0.721029552688	-0.0828201373792	-0.675927060777	-0.9130859375	0.4423828125	0.1171875	-14.625	28.5625	-44.6875
18	12	13	15	34	25	-0.719021749409	-0.0767786572241	-0.679228677462	-1.0390625	0.416015625	0.1044921875	-12.0625	27.0625	-41.0625
18	12	13	15	34	25	-0.717186323828	-0.0718956250081	-0.6822760543	-1.10791015625	0.38916015625	0.10986328125	-4.125	24.3125	-37.5625
18	12	13	15	34	25	-0.715304445302	-0.0698215260602	-0.685276306472	-1.20263671875	0.40673828125	0.115234375	12.9375	23.0625	-32.6875
18	12	13	15	34	25	-0.713120944888	-0.0704332052723	-0.688463219646	-1.3115234375	0.44873046875	0.0869140625	28.75	20.75	-28.625
18	12	13	15	34	25	-0.71063831549	-0.0722600279578	-0.691779912924	-1.43115234375	0.48828125	0.07275390625	34.4375	21.5625	-25.0
18	12	13	15	34	25	-0.70753747004	-0.0748855754109	-0.695514276595	-1.54248046875	0.541015625	0.0234375	36.3125	22.6875	-23.1875
18	12	13	15	34	25	-0.704255628419	-0.0769011259041	-0.699250951971	-1.5361328125	0.59912109375	-0.0078125	28.9375	23.6875	-24.8125
18	12	13	15	34	25	-0.701322902008	-0.0766566499801	-0.702482516936	-1.39404296875	0.55419921875	0.00634765625	9.9375	24.0625	-23.375
18	12	13	15	34	25	-0.698637714781	-0.0747646720195	-0.705168180011	-1.21435546875	0.48291015625	0.03271484375	-10.0625	26.375	-14.5
18	12	13	15	34	25	-0.695278289328	-0.0720789729368	-0.708095041501	-1.0498046875	0.42138671875	0.03759765625	-26.1875	32.25	-2.375
18	12	13	15	34	25	-0.6908265486	-0.0681732710298	-0.711516556549	-0.95458984375	0.3828125	0.025390625	-47.0625	40.625	11.4375
18	12	13	15	34	25	-0.684864663117	-0.0628652172722	-0.715564861455	-0.962890625	0.36669921875	-0.03662109375	-71.0625	48.4375	26.8125
18	12	13	15	34	26	-0.677873270663	-0.0559655882955	-0.719740657327	-1.00048828125	0.322265625	-0.10986328125	-91.25	51.4375	38.1875
18	12	13	15	34	26	-0.671174955207	-0.048154682155	-0.722686427627	-1.00634765625	0.26904296875	-0.1552734375	-103.9375	49.625	46.0625
18	12	13	15	34	26	-0.664563132496	-0.0411957125939	-0.724739388226	-0.9697265625	0.2138671875	-0.17333984375	-104.1875	44.9375	52.8125
18	12	13	15	34	26	-0.657639288213	-0.0353385752088	-0.726912661032	-0.91552734375	0.15966796875	-0.17626953125	-93.6875	39.3125	59.0
18	12	13	15	34	26	-0.651273495528	-0.0321028824523	-0.728479096863	-0.841796875	0.12451171875	-0.15771484375	-76.875	32.8125	64.0625
18	12	13	15	34	26	-0.64492411441	-0.0314924617238	-0.730063618489	-0.76806640625	0.12060546875	-0.158203125	-59.875	29.0	67.625
18	12	13	15	34	26	-0.638397230929	-0.0332625708276	-0.731776558206	-0.69873046875	0.138671875	-0.15771484375	-45.9375	27.0	72.1875
18	12	13	15	34	26	-0.63211092904	-0.0364972806378	-0.733241353818	-0.65966796875	0.1376953125	-0.16455078125	-37.5625	22.8125	74.1875
18	12	13	15	34	26	-0.62581505527	-0.0406468526243	-0.734755944061	-0.625	0.15673828125	-0.18212890625	-30.5	20.3125	73.6875
18	12	13	15	34	26	-0.619393625266	-0.0449791212751	-0.736266104563	-0.61572265625	0.1806640625	-0.2001953125	-28.8125	19.75	72.125
18	12	13	15	34	26	-0.613131148815	-0.0483376338703	-0.737637175451	-0.63720703125	0.181640625	-0.21142578125	-31.5	20.0	68.0625
18	12	13	15	34	26	-0.607271289546	-0.0507178333279	-0.738856907663	-0.6669921875	0.18212890625	-0.2158203125	-32.375	18.8125	62.625
18	12	13	15	34	26	-0.602210737418	-0.0524882167	-0.73983972423	-0.7158203125	0.208984375	-0.22412109375	-29.625	15.75	54.75
18	12	13	15	34	26	-0.598225426928	-0.0535851790291	-0.740610646376	-0.7724609375	0.24072265625	-0.220703125	-24.75	12.0625	44.75
18	12	13	15	34	26	-0.595064650814	-0.0537083992529	-0.741420038778	-0.81884765625	0.26318359375	-0.22607421875	-21.4375	9.625	34.0
18	12	13	15	34	26	-0.592982556059	-0.0527312606458	-0.742326763004	-0.87158203125	0.2685546875	-0.2099609375	-15.25	8.625	21.75
18	12	13	15	34	26	-0.591720492391	-0.0512682015068	-0.743633056141	-0.9169921875	0.27197265625	-0.20166015625	-5.5625	7.125	11.1875
18	12	13	15	34	26	-0.591518114995	-0.0496186780325	-0.745012549498	-0.92919921875	0.30712890625	-0.2021484375	3.8125	3.0625	-1.25
18	12	13	15	34	26	-0.592009485758	-0.0470555993319	-0.74629814349	-0.98583984375	0.38720703125	-0.22021484375	4.5	0.5625	-13.0
18	12	13	15	34	26	-0.593404747304	-0.0424165688961	-0.74708089188	-1.01123046875	0.41162109375	-0.201171875	-1.1875	-0.1875	-25.9375
18	12	13	15	34	26	-0.595802360046	-0.0357652307915	-0.747224779148	-0.99658203125	0.396484375	-0.17333984375	-6.8125	-1.8125	-38.125
18	12	13	15	34	26	-0.599162372208	-0.0279531798382	-0.746740513799	-0.96484375	0.39208984375	-0.13720703125	-9.0625	-4.1875	-48.4375
18	12	13	15	34	26	-0.602869913323	-0.0198962939607	-0.746111023525	-0.943359375	0.388671875	-0.10302734375	-5.875	-4.75	-54.3125
18	12	13	15	34	26	-0.606832860994	-0.0118400457641	-0.745373602667	-0.939453125	0.4052734375	-0.09423828125	-2.5625	-5.75	-59.5625
18	12	13	15	34	26	-0.610820254433	-0.00323475954086	-0.744299860393	-0.93212890625	0.443359375	-0.0966796875	-6.875	-6.5625	-64.625
18	12	13	15	34	26	-0.614821550692	0.00653026661942	-0.742741539798	-0.958984375	0.45703125	-0.0947265625	-15.0625	-6.875	-68.3125
18	12	13	15	34	26	-0.618860459546	0.0169667857745	-0.740923666557	-1.02978515625	0.4482421875	-0.103515625	-18.5	-7.3125	-70.5625
18	12	13	15	34	26	-0.623380406608	0.0276474764239	-0.738486677105	-1.14892578125	0.46630859375	-0.11865234375	-20.3125	-11.4375	-72.625
18	12	13	15	34	26	-0.628528297969	0.038207294089	-0.73539886019	-1.24853515625	0.47998046875	-0.1328125	-19.9375	-18.125	-74.75
18	12	13	15	34	26	-0.634487077676	0.0486423817726	-0.731405650141	-1.31591796875	0.4716796875	-0.1279296875	-20.1875	-25.0	-76.25
18	12	13	15	34	26	-0.641080796418	0.0581025245802	-0.726891877889	-1.38720703125	0.48583984375	-0.123046875	-14.625	-31.375	-77.625
18	12	13	15	34	26	-0.648228989693	0.0670139752078	-0.721651405153	-1.4345703125	0.5263671875	-0.10205078125	-13.4375	-36.875	-81.125
18	12	13	15	34	26	-0.655858816932	0.0765351718251	-0.715365828518	-1.47900390625	0.51953125	-0.07421875	-20.1875	-41.9375	-82.5625
18	12	13	15	34	26	-0.664348503077	0.0865453539149	-0.707682213429	-1.48779296875	0.43798828125	-0.0166015625	-26.5	-48.125	-80.4375
18	12	13	15	34	26	-0.673929972855	0.0960054199694	-0.698648469415	-1.4013671875	0.28271484375	0.083984375	-24.75	-53.6875	-73.0625
18	12	13	15	34	26	-0.684063999455	0.102658426756	-0.689312884533	-1.18359375	0.11083984375	0.19287109375	-10.625	-54.5	-58.3125
18	12	13	15	34	26	-0.693200819281	0.104913911635	-0.681421654101	-0.93115234375	0.0205078125	0.25390625	10.125	-46.875	-37.5625
18	12	13	15	34	26	-0.69999669405	0.101926452094	-0.676376612038	-0.7880859375	0.05810546875	0.20556640625	30.0	-36.3125	-15.125
18	12	13	15	34	26	-0.704569212402	0.0956392893135	-0.673442194183	-0.818359375	0.14208984375	0.12890625	36.8125	-30.5625	3.125
18	12	13	15	34	26	-0.708209460849	0.0894721707691	-0.670797154791	-0.8720703125	0.1689453125	0.08056640625	27.625	-30.875	10.6875
18	12	13	15	34	26	-0.711628490247	0.0840405172445	-0.667929862544	-0.8447265625	0.1279296875	0.05419921875	20.875	-32.6875	14.8125
18	12	13	15	34	26	-0.71491297523	0.0770817046026	-0.665478152801	-0.80029296875	0.076171875	0.06787109375	30.25	-31.375	22.0625
18	12	13	15	34	26	-0.717919442504	0.0666469464605	-0.664150248519	-0.75634765625	0.07861328125	0.08203125	52.9375	-28.0	28.5
18	12	13	15	34	26	-0.72061542384	0.0527934565615	-0.663732763129	-0.70263671875	0.119140625	0.09619140625	74.0625	-24.875	32.375
18	12	13	15	34	26	-0.723061798003	0.0369861947826	-0.663493273072	-0.62841796875	0.181640625	0.119140625	83.8125	-23.4375	34.375
18	12	13	15	34	26	-0.725063221114	0.0207509676076	-0.663115479579	-0.548828125	0.23046875	0.12646484375	82.0625	-22.125	35.8125
18	12	13	15	34	26	-0.726520477395	0.00549284635127	-0.662498301589	-0.4951171875	0.26806640625	0.1181640625	71.5625	-19.875	36.1875
18	12	13	15	34	26	-0.727308295575	-0.00744580112949	-0.661882895487	-0.48193359375	0.26513671875	0.1025390625	56.5	-16.25	35.125
18	12	13	15	34	26	-0.727693575631	-0.0179436309012	-0.661289934745	-0.51171875	0.24365234375	0.10107421875	43.25	-12.6875	32.125
18	12	13	15	34	26	-0.727880633848	-0.0270986920534	-0.660805267707	-0.56689453125	0.2275390625	0.10693359375	38.3125	-10.125	29.6875
18	12	13	15	34	27	-0.727686605277	-0.0355817571816	-0.660734310889	-0.6455078125	0.23291015625	0.09619140625	36.8125	-7.4375	28.0625
18	12	13	15	34	27	-0.727249934007	-0.0435764059148	-0.660969854422	-0.72509765625	0.23388671875	0.1005859375	37.0	-5.625	27.0625
18	12	13	15	34	27	-0.726782644658	-0.051695070543	-0.661294084218	-0.79736328125	0.24560546875	0.107421875	39.875	-5.1875	26.125
18	12	13	15	34	27	-0.726329578614	-0.0599934438936	-0.661697780971	-0.84765625	0.26171875	0.12353515625	44.1875	-4.625	23.9375
18	12	13	15	34	27	-0.725809222277	-0.0685405109836	-0.662273450297	-0.87890625	0.28271484375	0.13232421875	49.4375	-3.5	21.0625
18	12	13	15	34	27	-0.725177019887	-0.0772659575136	-0.663107921316	-0.9267578125	0.3115234375	0.1455078125	54.625	-1.9375	17.1875
18	12	13	15	34	27	-0.724252925897	-0.0859314165048	-0.664259614516	-0.97607421875	0.35400390625	0.14306640625	56.375	-0.0625	13.25
18	12	13	15	34	27	-0.723239155496	-0.0935633439135	-0.665502088736	-0.99560546875	0.38623046875	0.146484375	52.625	2.375	8.25
18	12	13	15	34	27	-0.722186445103	-0.0994204106374	-0.666830820518	-0.98779296875	0.3955078125	0.158203125	44.125	5.8125	2.875
18	12	13	15	34	27	-0.721100293131	-0.103511307419	-0.668123987212	-0.95166015625	0.40771484375	0.1767578125	32.9375	9.875	-0.875
18	12	13	15	34	27	-0.719708880701	-0.105893394506	-0.669783349458	-0.91357421875	0.408203125	0.173828125	23.25	14.9375	-4.6875
18	12	13	15	34	27	-0.717787878935	-0.106682528049	-0.672014483033	-0.89892578125	0.41455078125	0.15478515625	13.125	20.625	-7.375
18	12	13	15	34	27	-0.715545378029	-0.105586276355	-0.67465358314	-0.9111328125	0.4228515625	0.13427734375	1.75	24.5625	-10.8125
18	12	13	15	34	27	-0.713422545603	-0.103085865303	-0.677229580461	-0.93408203125	0.43212890625	0.11865234375	-6.75	25.0	-14.0625
18	12	13	15	34	27	-0.711346643035	-0.0996678737088	-0.679853303884	-0.9873046875	0.42919921875	0.11376953125	-10.75	25.375	-16.5
18	12	13	15	34	27	-0.709230561976	-0.0967326771131	-0.68268247709	-1.072265625	0.39697265625	0.109375	-3.6875	25.25	-15.875
18	12	13	15	34	27	-0.707116658261	-0.0954540353461	-0.685633397109	-1.1181640625	0.37744140625	0.1044921875	10.6875	23.3125	-15.125
18	12	13	15	34	27	-0.704853259003	-0.0960636444428	-0.688557837741	-1.15625	0.44482421875	0.07373046875	19.625	20.625	-13.3125
18	12	13	15	34	27	-0.702056722166	-0.0972857876322	-0.691925328975	-1.228515625	0.5009765625	0.037109375	22.8125	22.3125	-13.6875
18	12	13	15	34	27	-0.699021357516	-0.0977763219017	-0.695542424714	-1.29541015625	0.5419921875	0.01123046875	18.6875	23.875	-17.375
18	12	13	15	34	27	-0.69595913902	-0.0969814147069	-0.699193887276	-1.36181640625	0.5966796875	-0.0146484375	10.9375	24.8125	-22.125
18	12	13	15	34	27	-0.692947565878	-0.094476205036	-0.702895641731	-1.38134765625	0.62255859375	-0.03955078125	1.5	25.4375	-29.25
18	12	13	15	34	27	-0.690275430768	-0.0896564639963	-0.706326928407	-1.33154296875	0.5986328125	-0.0390625	-11.375	25.9375	-34.6875
18	12	13	15	34	27	-0.687809093492	-0.0829398898008	-0.709413744698	-1.21240234375	0.50830078125	-0.01025390625	-25.5	28.625	-33.1875
18	12	13	15	34	27	-0.684912185143	-0.0759860693729	-0.712560128457	-1.07958984375	0.42333984375	0.01806640625	-32.0	33.5	-24.8125
18	12	13	15	34	27	-0.681085460278	-0.0695184460307	-0.715936235242	-0.96826171875	0.419921875	0.0029296875	-40.625	38.5	-13.6875
18	12	13	15	34	27	-0.676010435657	-0.0624986173811	-0.719588573167	-0.90234375	0.466796875	-0.05712890625	-59.8125	43.0625	-3.6875
18	12	13	15	34	27	-0.670015474021	-0.0534645249811	-0.723174836188	-0.8935546875	0.48046875	-0.13037109375	-84.3125	45.25	3.375
18	12	13	15	34	27	-0.664700960211	-0.0414408182888	-0.725366900386	-0.90625	0.4365234375	-0.1630859375	-106.0625	43.9375	10.125
18	12	13	15	34	27	-0.659808767608	-0.0288067466757	-0.726271791188	-0.8916015625	0.369140625	-0.177734375	-115.6875	38.1875	14.25
18	12	13	15	34	27	-0.655259077076	-0.0172725706793	-0.726241408172	-0.8798828125	0.31396484375	-0.18408203125	-112.3125	31.9375	19.1875
18	12	13	15	34	27	-0.650158283981	-0.00854427482938	-0.726751604773	-0.83544921875	0.26318359375	-0.18603515625	-94.6875	26.0625	25.75
18	12	13	15	34	27	-0.64474259175	-0.00268541026477	-0.727502053546	-0.79931640625	0.2587890625	-0.19580078125	-78.625	23.875	33.6875
18	12	13	15	34	27	-0.63956174157	0.000976523319507	-0.727998134693	-0.7548828125	0.24365234375	-0.18310546875	-67.8125	19.8125	40.1875
18	12	13	15	34	27	-0.634734946603	0.00274644928819	-0.728236286814	-0.70556640625	0.2119140625	-0.1708984375	-57.5625	15.0	46.4375
18	12	13	15	34	27	-0.629729833019	0.00231922210261	-0.728601933183	-0.6494140625	0.2197265625	-0.1708984375	-47.6875	13.3125	52.6875
18	12	13	15	34	27	-0.624344814335	0.000793400057317	-0.7290736219	-0.6171875	0.2412109375	-0.166015625	-43.4375	13.875	56.875
18	12	13	15	34	27	-0.618318521048	-0.000671355614601	-0.7298245854	-0.619140625	0.25732421875	-0.18505859375	-44.4375	16.3125	57.9375
18	12	13	15	34	27	-0.611865867974	-0.00146481604303	-0.730760103467	-0.6552734375	0.2783203125	-0.212890625	-47.1875	19.0625	56.0625
18	12	13	15	34	27	-0.605441566852	-0.000854453824187	-0.731534538336	-0.71142578125	0.28662109375	-0.23291015625	-52.125	19.8125	51.8125
18	12	13	15	34	27	-0.599465553878	0.00109859295152	-0.731907037477	-0.755859375	0.28125	-0.244140625	-56.3125	18.625	46.8125
18	12	13	15	34	27	-0.594088096844	0.00347883927677	-0.732204119358	-0.8291015625	0.291015625	-0.25732421875	-53.0625	16.3125	41.625
18	12	13	15	34	27	-0.589690290912	0.00592009503399	-0.732688050341	-0.92431640625	0.29931640625	-0.27490234375	-43.125	12.5625	34.375
18	12	13	15	34	27	-0.586692706988	0.00848333363897	-0.733106501232	-0.9873046875	0.31396484375	-0.263671875	-33.125	8.25	24.5
18	12	13	15	34	27	-0.585213973255	0.0112294682531	-0.733394130421	-1.00244140625	0.30126953125	-0.2294921875	-22.6875	3.75	13.9375
18	12	13	15	34	27	-0.584821179169	0.0134883615734	-0.733803489579	-0.99560546875	0.3154296875	-0.19384765625	-10.5	1.0625	5.4375
18	12	13	15	34	27	-0.58528894304	0.015623980127	-0.734510159487	-1.0009765625	0.33349609375	-0.17529296875	-0.1875	-0.3125	-4.0625
18	12	13	15	34	27	-0.586456748853	0.0184927042255	-0.735069734955	-1.00537109375	0.35595703125	-0.15234375	2.625	-0.75	-13.8125
18	12	13	15	34	27	-0.58824692217	0.0224605589706	-0.735095033266	-0.99169921875	0.3779296875	-0.11962890625	-0.5625	-1.0	-22.375
18	12	13	15	34	28	-0.590546885653	0.0277085868216	-0.734521679292	-0.98291015625	0.38330078125	-0.09326171875	-5.9375	-1.5625	-29.625
18	12	13	15	34	28	-0.593349097886	0.0338725313029	-0.733355560604	-0.99658203125	0.38720703125	-0.0732421875	-10.0625	-2.375	-35.0625
18	12	13	15	34	28	-0.596464427179	0.0405861909418	-0.732016201739	-1.033203125	0.38671875	-0.05908203125	-10.3125	-2.875	-39.125
18	12	13	15	34	28	-0.600052264331	0.0475427902679	-0.730291435617	-1.083984375	0.41259765625	-0.068359375	-10.6875	-5.9375	-43.4375
18	12	13	15	34	28	-0.604345780438	0.0549294286401	-0.727753896783	-1.1728515625	0.43603515625	-0.0869140625	-14.8125	-12.25	-46.8125
18	12	13	15	34	28	-0.60940657073	0.0624359461048	-0.724574342284	-1.30419921875	0.4599609375	-0.103515625	-15.5	-18.625	-49.6875
18	12	13	15	34	28	-0.615221774374	0.0703110599285	-0.720932499892	-1.40673828125	0.46923828125	-0.0927734375	-13.5625	-22.125	-55.5625
18	12	13	15	34	28	-0.621473639944	0.0784852303808	-0.717047411932	-1.52978515625	0.50927734375	-0.09716796875	-11.6875	-24.75	-62.625
18	12	13	15	34	28	-0.628743438708	0.0872135870621	-0.712234122473	-1.58984375	0.498046875	-0.05810546875	-11.5625	-29.625	-70.125
18	12	13	15	34	28	-0.637476558939	0.0960029322366	-0.70595417494	-1.5322265625	0.40380859375	0.03857421875	-11.25	-35.8125	-72.5
18	12	13	15	34	28	-0.646885213454	0.103389334049	-0.698824011137	-1.37646484375	0.318359375	0.1279296875	-6.375	-39.5625	-67.6875
18	12	13	15	34	28	-0.655973531351	0.108698256358	-0.691921466777	-1.16455078125	0.2255859375	0.1982421875	1.25	-38.0	-57.375
18	12	13	15	34	28	-0.663971052806	0.111750252568	-0.685820637962	-0.96533203125	0.16357421875	0.22216796875	6.6875	-33.5625	-43.5
18	12	13	15	34	28	-0.670011876369	0.11254344143	-0.681241807618	-0.833984375	0.1630859375	0.189453125	10.25	-27.625	-27.4375
18	12	13	15	34	28	-0.674173849998	0.110958542395	-0.678263081208	-0.8291015625	0.19921875	0.12353515625	14.0625	-23.375	-11.875
18	12	13	15	34	28	-0.677825057844	0.108027224238	-0.675627893962	-0.849609375	0.20849609375	0.07568359375	15.0	-26.8125	-2.5
18	12	13	15	34	28	-0.681991687677	0.103757460985	-0.672409380986	-0.814453125	0.18359375	0.05224609375	17.0	-35.25	4.9375
18	12	13	15	34	28	-0.686998362058	0.0967388418499	-0.66905437499	-0.755859375	0.13720703125	0.0615234375	32.0625	-42.5625	12.875
18	12	13	15	34	28	-0.692763850579	0.0856266128414	-0.666215328422	-0.681640625	0.10888671875	0.076171875	58.5	-47.625	19.9375
18	12	13	15	34	28	-0.698772954233	0.070005465849	-0.664227972829	-0.607421875	0.1357421875	0.08349609375	86.5	-50.25	25.625
18	12	13	15	34	28	-0.704309468658	0.0517551498632	-0.662929761574	-0.54248046875	0.1865234375	0.08740234375	102.1875	-49.625	29.75
18	12	13	15	34	28	-0.709217021526	0.0325312110562	-0.661732439534	-0.50146484375	0.2509765625	0.095703125	106.375	-47.9375	33.125
18	12	13	15	34	28	-0.713323019363	0.0136708039303	-0.660348654133	-0.48291015625	0.2890625	0.09423828125	100.25	-45.5	36.1875
18	12	13	15	34	28	-0.716096109879	-0.00476054688235	-0.658969547291	-0.48291015625	0.318359375	0.0703125	88.375	-40.375	38.0625
18	12	13	15	34	28	-0.718093583234	-0.0212388719161	-0.657550592025	-0.50927734375	0.33203125	0.0595703125	75.9375	-35.6875	36.8125
18	12	13	15	34	28	-0.719448646014	-0.0357038902204	-0.656341257145	-0.55126953125	0.33642578125	0.04638671875	65.5625	-31.5625	33.5
18	12	13	15	34	28	-0.720470655103	-0.0485196248036	-0.65522854326	-0.61767578125	0.3515625	0.04638671875	58.1875	-28.125	29.875
18	12	13	15	34	28	-0.721278846341	-0.0600557103401	-0.654387526694	-0.693359375	0.359375	0.048828125	55.5625	-25.75	24.9375
18	12	13	15	34	28	-0.722192628232	-0.070492054898	-0.653653599964	-0.75146484375	0.37109375	0.05810546875	54.875	-24.25	18.1875
18	12	13	15	34	28	-0.723175972978	-0.0801969135364	-0.653171513445	-0.7880859375	0.36474609375	0.0712890625	57.4375	-22.3125	11.5
18	12	13	15	34	28	-0.724081620866	-0.0895947251712	-0.65316263541	-0.80517578125	0.3505859375	0.1015625	64.5625	-18.875	4.875
18	12	13	15	34	28	-0.724513513835	-0.0992994260812	-0.653838200128	-0.8291015625	0.3759765625	0.10888671875	71.8125	-15.125	-0.4375
18	12	13	15	34	28	-0.724763852053	-0.108516221385	-0.654698260293	-0.83544921875	0.408203125	0.12939453125	73.0	-11.25	-6.25
18	12	13	15	34	28	-0.724639034654	-0.116450036058	-0.655916424276	-0.845703125	0.4296875	0.1494140625	68.125	-5.625	-11.25
18	12	13	15	34	28	-0.724147846494	-0.122674856422	-0.657439578797	-0.85009765625	0.46240234375	0.16357421875	59.375	0.75	-16.375
18	12	13	15	34	28	-0.723194512559	-0.126646013466	-0.659535817598	-0.8798828125	0.48779296875	0.15625	47.0625	7.5625	-22.25
18	12	13	15	34	28	-0.722075179554	-0.127863029428	-0.661958194358	-0.91552734375	0.5009765625	0.15283203125	31.625	12.8125	-28.1875
18	12	13	15	34	28	-0.720957553483	-0.126516973535	-0.664626069367	-0.935546875	0.4873046875	0.14794921875	18.3125	16.625	-34.0625
18	12	13	15	34	28	-0.719923584597	-0.123588102646	-0.667375754287	-0.95654296875	0.47412109375	0.1533203125	11.3125	18.875	-38.375
18	12	13	15	34	28	-0.71893356683	-0.120107067871	-0.670231615528	-0.958984375	0.45068359375	0.14453125	10.9375	19.25	-42.25
