18	12	13	20	05	27	-0.149285377151	-0.613437173242	-0.0717131308884	0.763671875	0.2333984375	0.24365234375	-22.75	-5.125	-11.0
18	12	13	20	05	27	-0.153186897489	-0.61335789632	-0.0696359561892	0.814453125	0.244140625	0.23583984375	-22.125	-6.625	-11.375
18	12	13	20	05	27	-0.15649214073	-0.613456515785	-0.0676260888956	0.8505859375	0.267578125	0.27197265625	-19.0	-8.9375	-8.4375
18	12	13	20	05	27	-0.158927704454	-0.614105438639	-0.0660978125666	0.873046875	0.29248046875	0.2880859375	-13.1875	-12.5	-5.1875
18	12	13	20	05	27	-0.160025162427	-0.615504867688	-0.0646936202032	0.908203125	0.330078125	0.3154296875	-7.4375	-17.75	2.0
18	12	13	20	05	27	-0.158321602034	-0.61808899915	-0.0656723376208	0.9072265625	0.35107421875	0.27978515625	13.5625	-20.1875	7.375
18	12	13	20	05	27	-0.156370246147	-0.62102547016	-0.0674430608872	0.9150390625	0.3935546875	0.30078125	18.25	-23.6875	8.1875
18	12	13	20	05	27	-0.154717487822	-0.624484944928	-0.0686005744819	0.94384765625	0.43408203125	0.30810546875	14.875	-28.8125	10.75
18	12	13	20	05	27	-0.153920375925	-0.628436998769	-0.0683548061203	0.98486328125	0.443359375	0.27978515625	6.25	-32.9375	11.8125
18	12	13	20	05	27	-0.154349641055	-0.632534472082	-0.0659754693478	1.00830078125	0.4267578125	0.2763671875	-7.1875	-36.4375	12.5
18	12	13	20	05	27	-0.155632738517	-0.63723977367	-0.0613986411562	1.06201171875	0.41455078125	0.27490234375	-18.3125	-43.4375	15.1875
18	12	13	20	05	27	-0.156120974827	-0.642671565649	-0.0562719072677	1.14208984375	0.361328125	0.2197265625	-17.5	-45.25	15.9375
18	12	13	20	05	27	-0.156849645899	-0.647111593569	-0.0528528378789	1.20556640625	0.2900390625	0.1875	-11.8125	-35.25	2.875
18	12	13	20	05	27	-0.158810010042	-0.651291935878	-0.05084117539	1.2548828125	0.3251953125	0.19091796875	-10.375	-34.6875	-6.25
18	12	13	20	05	27	-0.158745317894	-0.655549196271	-0.0479104477305	1.203125	0.40625	0.13916015625	-8.4375	-31.75	12.625
18	12	13	20	05	27	-0.155628202942	-0.658276783111	-0.0443692955054	0.95947265625	0.4072265625	0.0771484375	-2.5625	-16.1875	34.875
18	12	13	20	05	27	-0.150017963275	-0.659395474053	-0.0415631541864	0.7734375	0.322265625	0.1044921875	9.125	-4.9375	42.25
18	12	13	20	05	27	-0.142147857636	-0.659959117484	-0.0405264823832	0.75830078125	0.22021484375	0.10595703125	25.625	2.375	40.0
18	12	13	20	05	27	-0.13378428332	-0.659827503179	-0.042417918297	0.83203125	0.11669921875	0.0908203125	39.5625	11.3125	23.3125
18	12	13	20	05	27	-0.125421148421	-0.659025576958	-0.0463844636495	0.93798828125	0.078125	0.107421875	47.9375	16.9375	11.5
18	12	13	20	05	27	-0.116995182304	-0.657968210967	-0.0513265249442	1.015625	0.08349609375	0.07421875	52.25	22.0	7.375
18	12	13	20	05	27	-0.109553548305	-0.656222702718	-0.0559058775753	1.03515625	0.12353515625	0.0419921875	44.875	28.375	7.25
18	12	13	20	05	27	-0.104730816778	-0.653530061806	-0.0584686028399	1.009765625	0.18798828125	0.0341796875	25.0625	33.0	8.875
18	12	13	20	05	27	-0.103205856998	-0.649995492032	-0.0574925590135	0.9755859375	0.22802734375	0.0478515625	-3.3125	34.625	11.125
18	12	13	20	05	27	-0.104979059316	-0.645987420816	-0.0526115983318	0.9912109375	0.1865234375	0.06103515625	-32.3125	33.875	9.1875
18	12	13	20	05	27	-0.108452091746	-0.641802024085	-0.0451019109736	1.01953125	0.12353515625	0.064453125	-49.6875	33.5	7.1875
18	12	13	20	05	27	-0.111443947936	-0.637354407612	-0.0373514217618	1.03857421875	0.078125	0.0859375	-48.25	35.125	7.375
18	12	13	20	05	27	-0.112482581401	-0.632722149419	-0.0312485521851	1.00927734375	0.0791015625	0.095703125	-34.125	38.3125	10.9375
18	12	13	20	05	27	-0.111508607444	-0.627792849573	-0.0269769044829	0.95556640625	0.11279296875	0.1142578125	-19.4375	40.9375	17.0625
18	12	13	20	05	27	-0.109675362289	-0.622775401669	-0.023497503885	0.87890625	0.15576171875	0.12353515625	-13.75	41.5625	22.375
18	12	13	20	05	27	-0.107602238893	-0.617599010413	-0.0196528195823	0.80419921875	0.17236328125	0.14794921875	-14.75	40.4375	27.75
18	12	13	20	05	28	-0.104549145312	-0.612524940079	-0.0153802595556	0.74267578125	0.138671875	0.177734375	-12.375	37.25	32.3125
18	12	13	20	05	28	-0.100278047807	-0.607893704295	-0.0115353323405	0.70556640625	0.0751953125	0.2041015625	-4.875	33.0625	33.0
18	12	13	20	05	28	-0.0948442322854	-0.603975883331	-0.00933794564972	0.6875	0.03076171875	0.2080078125	8.0	28.875	29.75
18	12	13	20	05	28	-0.0882512941757	-0.600731319897	-0.0097039804799	0.69384765625	0.01123046875	0.21826171875	23.8125	25.25	24.9375
18	12	13	20	05	28	-0.0806220803537	-0.598348884018	-0.0128165305634	0.70654296875	0.0068359375	0.22705078125	40.9375	20.625	20.0
18	12	13	20	05	28	-0.0729343151312	-0.597206923481	-0.0183098699074	0.7509765625	0.01220703125	0.228515625	52.1875	13.1875	11.625
18	12	13	20	05	28	-0.0668306959327	-0.597448111859	-0.0247792352043	0.8349609375	0.037109375	0.2236328125	51.9375	4.5	1.375
18	12	13	20	05	28	-0.0626199898604	-0.598979123285	-0.0311879286732	0.91357421875	0.07568359375	0.21484375	44.625	-3.6875	-5.875
18	12	13	20	05	28	-0.0601788959504	-0.601605859415	-0.0363758843676	0.97998046875	0.1005859375	0.2099609375	33.25	-11.9375	-9.0625
18	12	13	20	05	28	-0.0595688366978	-0.605209615466	-0.0399770369232	1.0419921875	0.11474609375	0.21337890625	20.3125	-19.875	-11.875
18	12	13	20	05	28	-0.0602991106131	-0.60946044391	-0.04241688449	1.0869140625	0.12744140625	0.22021484375	10.75	-26.1875	-14.5
18	12	13	20	05	28	-0.0620081599753	-0.614222561015	-0.044797233683	1.1279296875	0.12939453125	0.2197265625	7.4375	-30.6875	-18.875
18	12	13	20	05	28	-0.064266429662	-0.61935016924	-0.0477268262067	1.1708984375	0.1328125	0.21484375	8.3125	-33.5625	-24.5
18	12	13	20	05	28	-0.0665853443773	-0.624474100521	-0.0513885059264	1.20458984375	0.15673828125	0.21728515625	11.5625	-34.9375	-26.9375
18	12	13	20	05	28	-0.0687210913869	-0.629658525611	-0.0559655779767	1.23095703125	0.18798828125	0.20849609375	15.8125	-35.5	-28.375
18	12	13	20	05	28	-0.0711626988622	-0.634788362664	-0.0609704426787	1.2890625	0.21337890625	0.201171875	16.875	-35.5625	-31.375
18	12	13	20	05	28	-0.0745822000891	-0.639807858866	-0.0659765616173	1.35546875	0.244140625	0.177734375	12.8125	-34.5625	-35.5
18	12	13	20	05	28	-0.078424011904	-0.644358535161	-0.0695135794231	1.373046875	0.27880859375	0.166015625	4.25	-32.375	-31.0
18	12	13	20	05	28	-0.0810523320732	-0.648662790116	-0.0730569589546	1.3935546875	0.248046875	0.166015625	9.25	-30.6875	-28.9375
18	12	13	20	05	28	-0.0826391663123	-0.65262969378	-0.0766578972587	1.32275390625	0.28125	0.064453125	11.4375	-22.4375	-22.0625
18	12	13	20	05	28	-0.0830627132244	-0.654797832612	-0.0788515984467	1.07470703125	0.40576171875	-0.05712890625	5.1875	-2.875	0.25
18	12	13	20	05	28	-0.081111625109	-0.654141759156	-0.0792196308439	0.81689453125	0.46875	-0.060546875	2.625	17.9375	25.9375
18	12	13	20	05	28	-0.0772644431323	-0.651255033701	-0.0793394755703	0.67138671875	0.41748046875	-0.0361328125	7.875	34.1875	34.1875
18	12	13	20	05	28	-0.0747670754064	-0.647513390193	-0.0806263727444	0.6748046875	0.2998046875	0.0009765625	8.625	37.125	15.625
18	12	13	20	05	28	-0.0771449689557	-0.644319175052	-0.0824547888126	0.7822265625	0.24267578125	0.0087890625	-6.125	30.0625	-13.5625
18	12	13	20	05	28	-0.0856258279373	-0.641308766903	-0.0826353321647	0.88916015625	0.2841796875	-0.00537109375	-35.75	25.5625	-33.625
18	12	13	20	05	28	-0.0990529609286	-0.637832713903	-0.0798892950435	0.896484375	0.3369140625	0.0	-67.75	24.3125	-42.3125
18	12	13	20	05	28	-0.115046797786	-0.633947527111	-0.0731783079817	0.86572265625	0.314453125	0.06298828125	-93.625	18.9375	-40.875
18	12	13	20	05	28	-0.13072881967	-0.629780901106	-0.0632893492051	0.833984375	0.30322265625	0.13720703125	-104.125	12.3125	-31.8125
18	12	13	20	05	28	-0.144885807034	-0.626048276559	-0.0534014663667	0.79833984375	0.296875	0.18896484375	-98.1875	7.8125	-21.6875
18	12	13	20	05	28	-0.156305255819	-0.622596608593	-0.0456526088842	0.77197265625	0.26318359375	0.25732421875	-77.625	4.0625	-19.25
18	12	13	20	05	28	-0.165332886471	-0.619891520074	-0.0416841496712	0.7626953125	0.2294921875	0.28466796875	-50.5	1.25	-25.0625
18	12	13	20	05	28	-0.173149969428	-0.618078865138	-0.0420515787578	0.75390625	0.2421875	0.27197265625	-26.5625	-0.125	-35.125
18	12	13	20	05	28	-0.180778247878	-0.617038516559	-0.0451640457224	0.75244140625	0.287109375	0.24755859375	-13.875	-1.875	-42.4375
18	12	13	20	05	28	-0.18913948118	-0.616549544652	-0.047483225672	0.75048828125	0.32421875	0.2216796875	-20.125	-5.625	-41.9375
18	12	13	20	05	28	-0.198841652662	-0.616055138728	-0.0466893383323	0.73291015625	0.3193359375	0.2158203125	-38.0	-10.5	-37.625
18	12	13	20	05	28	-0.209397367433	-0.615558684911	-0.0428437633163	0.70458984375	0.25830078125	0.20703125	-54.0	-14.3125	-34.5
18	12	13	20	05	28	-0.22038046999	-0.615002491302	-0.0376557047865	0.685546875	0.19384765625	0.20556640625	-59.75	-16.4375	-35.625
18	12	13	20	05	28	-0.230942515393	-0.614524362446	-0.0330179441934	0.67822265625	0.15625	0.21044921875	-55.0	-17.3125	-38.625
18	12	13	20	05	28	-0.240597194383	-0.614371222391	-0.0299068049842	0.68701171875	0.154296875	0.23974609375	-44.25	-18.5625	-41.1875
18	12	13	20	05	28	-0.249378866596	-0.614841581519	-0.0283190881303	0.708984375	0.171875	0.25830078125	-33.25	-21.3125	-42.5
18	12	13	20	05	28	-0.25749180144	-0.615929665829	-0.0272200387396	0.74609375	0.2021484375	0.26513671875	-27.875	-24.6875	-42.0
18	12	13	20	05	28	-0.265374891273	-0.617173620182	-0.025695222913	0.7744140625	0.24365234375	0.283203125	-28.625	-27.0625	-37.9375
18	12	13	20	05	28	-0.272812771124	-0.618436646489	-0.0231921371426	0.79345703125	0.26708984375	0.29736328125	-31.1875	-29.0625	-31.9375
18	12	13	20	05	28	-0.279949478802	-0.619587335687	-0.019652001782	0.80419921875	0.27880859375	0.30810546875	-34.375	-30.5	-26.5625
18	12	13	20	05	28	-0.286604883526	-0.620753464724	-0.0156851480124	0.82470703125	0.2802734375	0.3193359375	-34.1875	-31.4375	-23.4375
18	12	13	20	05	28	-0.292220692882	-0.622220126135	-0.0120232824766	0.85693359375	0.28076171875	0.3349609375	-28.125	-32.25	-21.25
18	12	13	20	05	28	-0.296058959633	-0.624158932213	-0.00964281913461	0.88671875	0.29443359375	0.36083984375	-14.9375	-32.625	-18.0
18	12	13	20	05	28	-0.298016315862	-0.626609362064	-0.00878852129514	0.9169921875	0.33642578125	0.380859375	-0.8125	-32.1875	-13.5
18	12	13	20	05	28	-0.298092311182	-0.629387369555	-0.00939930710934	0.94677734375	0.39453125	0.40283203125	12.1875	-31.25	-7.6875
18	12	13	20	05	29	-0.296303156132	-0.632337178308	-0.0109854929153	0.947265625	0.44775390625	0.43798828125	23.9375	-30.5625	0.875
18	12	13	20	05	29	-0.292708479722	-0.635463029787	-0.0131828673102	0.93212890625	0.46728515625	0.46337890625	33.9375	-30.3125	8.6875
18	12	13	20	05	29	-0.288314190618	-0.638636683029	-0.0158682662068	0.9482421875	0.48828125	0.46240234375	38.4375	-29.75	11.375
18	12	13	20	05	29	-0.284349540568	-0.64163269371	-0.0181876289095	0.98095703125	0.5	0.4541015625	35.5	-29.0	11.125
18	12	13	20	05	29	-0.280691991164	-0.644267157801	-0.0195916784439	1.0224609375	0.48583984375	0.44189453125	29.75	-27.6875	11.0625
18	12	13	20	05	29	-0.2768407683	-0.646938303347	-0.0201405320853	1.1005859375	0.4609375	0.38623046875	26.3125	-25.0	12.0
18	12	13	20	05	29	-0.273176555748	-0.649374118222	-0.019957268483	1.17919921875	0.48681640625	0.2568359375	18.375	-16.75	14.0
18	12	13	20	05	29	-0.268902722968	-0.650346667259	-0.0181872472638	1.07763671875	0.501953125	0.16796875	9.0625	-2.5	29.125
18	12	13	20	05	29	-0.262618598109	-0.649314261045	-0.0150137520648	0.830078125	0.47705078125	0.126953125	6.4375	13.375	51.9375
18	12	13	20	05	29	-0.254934573478	-0.64615569294	-0.0117183237031	0.63427734375	0.42822265625	0.07470703125	6.875	32.3125	64.4375
18	12	13	20	05	29	-0.246929838727	-0.641248595034	-0.0100090196617	0.57275390625	0.31982421875	0.0791015625	12.75	46.6875	56.875
18	12	13	20	05	29	-0.239426012921	-0.636557051942	-0.010558424735	0.70068359375	0.18505859375	0.1005859375	22.6875	47.75	34.75
18	12	13	20	05	29	-0.233145513983	-0.632971760607	-0.0123286371269	0.9189453125	0.14794921875	0.06201171875	24.25	45.1875	16.0625
18	12	13	20	05	29	-0.228380907265	-0.629115551066	-0.0136711179122	1.01171875	0.1943359375	0.0478515625	15.4375	47.5625	12.25
18	12	13	20	05	29	-0.224107573507	-0.625023327964	-0.0127555781217	1.029296875	0.2333984375	0.0732421875	3.6875	44.5625	20.875
18	12	13	20	05	29	-0.221242990571	-0.620517926935	-0.00854455687724	1.029296875	0.24755859375	0.10107421875	-15.9375	40.875	28.375
18	12	13	20	05	29	-0.220570940728	-0.614778939111	-0.000610323576999	1.0078125	0.26416015625	0.13671875	-41.5625	40.375	35.0
18	12	13	20	05	29	-0.221911711726	-0.608060061585	0.0110467601272	0.96337890625	0.26025390625	0.1728515625	-65.375	38.3125	41.375
18	12	13	20	05	29	-0.223868694414	-0.600991012513	0.0242910960678	0.9306640625	0.21826171875	0.1904296875	-74.6875	35.9375	43.1875
18	12	13	20	05	29	-0.224291093591	-0.594447687504	0.0360696697448	0.91162109375	0.15185546875	0.193359375	-61.3125	35.125	41.4375
18	12	13	20	05	29	-0.221546053884	-0.589141613812	0.0436378590983	0.90283203125	0.1357421875	0.18115234375	-30.5625	35.4375	41.5
18	12	13	20	05	29	-0.215143300328	-0.585189776892	0.0467517072486	0.89599609375	0.1728515625	0.1728515625	2.3125	36.0625	45.875
18	12	13	20	05	29	-0.205982243027	-0.582121076738	0.046994467298	0.87939453125	0.20947265625	0.16552734375	24.1875	35.375	52.0
18	12	13	20	05	29	-0.19530678244	-0.57963391026	0.0462632940904	0.8564453125	0.21435546875	0.173828125	34.0625	32.6875	56.625
18	12	13	20	05	29	-0.184075832302	-0.577373134474	0.0454086270665	0.83056640625	0.19287109375	0.18603515625	37.125	29.5625	58.125
18	12	13	20	05	29	-0.172902423889	-0.575283532501	0.0444920109478	0.80712890625	0.16552734375	0.19677734375	37.875	26.875	56.375
18	12	13	20	05	29	-0.161618259808	-0.573354204168	0.0431510988234	0.77783203125	0.13720703125	0.23291015625	41.1875	23.1875	54.0625
18	12	13	20	05	29	-0.150382268746	-0.571989700767	0.0410133460217	0.75830078125	0.10693359375	0.25244140625	45.3125	17.9375	49.1875
18	12	13	20	05	29	-0.13982161386	-0.571187465787	0.0380832331073	0.74609375	0.0859375	0.28466796875	47.9375	11.5	42.25
18	12	13	20	05	29	-0.130184060541	-0.57157699342	0.0344227895663	0.751953125	0.064453125	0.2978515625	49.3125	2.625	32.9375
18	12	13	20	05	29	-0.122614943842	-0.573220284998	0.0305164121059	0.77294921875	0.06640625	0.30126953125	44.6875	-6.9375	21.5
18	12	13	20	05	29	-0.117486442197	-0.575958210397	0.0267319800947	0.80615234375	0.0732421875	0.310546875	36.375	-16.0625	9.625
18	12	13	20	05	29	-0.114922113438	-0.579859267008	0.0236191491772	0.83154296875	0.087890625	0.30224609375	25.1875	-24.75	-0.125
18	12	13	20	05	29	-0.114740762595	-0.584506533711	0.0217275061085	0.8515625	0.09912109375	0.298828125	11.625	-32.375	-7.625
18	12	13	20	05	29	-0.116940522974	-0.589890477321	0.02130075288	0.87353515625	0.10205078125	0.2841796875	-2.5	-38.5625	-14.625
18	12	13	20	05	29	-0.12102710288	-0.595553439187	0.021788540458	0.884765625	0.11376953125	0.2890625	-12.9375	-43.625	-20.4375
18	12	13	20	05	29	-0.126644253296	-0.601605978189	0.0225213154055	0.90234375	0.12646484375	0.2783203125	-19.3125	-47.0625	-26.3125
18	12	13	20	05	29	-0.133294928399	-0.607700367246	0.0231313085454	0.935546875	0.1396484375	0.263671875	-22.1875	-48.125	-31.8125
18	12	13	20	05	29	-0.14025158689	-0.613554918627	0.0230701043709	0.9599609375	0.14111328125	0.27783203125	-20.1875	-47.625	-36.125
18	12	13	20	05	29	-0.14721130909	-0.619300644003	0.0223380344639	1.00390625	0.146484375	0.27734375	-17.0	-47.0	-39.6875
18	12	13	20	05	29	-0.154412403349	-0.624912489283	0.0210562368203	1.0546875	0.16455078125	0.283203125	-15.1875	-46.9375	-43.0
18	12	13	20	05	29	-0.161615291765	-0.630409497219	0.0193474499582	1.126953125	0.1650390625	0.3134765625	-12.8125	-48.25	-46.1875
18	12	13	20	05	29	-0.168635395327	-0.635846380207	0.0172724635821	1.19482421875	0.16455078125	0.33349609375	-9.75	-49.1875	-48.625
18	12	13	20	05	29	-0.175225306521	-0.641089035074	0.0151361462965	1.24072265625	0.1767578125	0.3271484375	-7.875	-48.5	-48.375
18	12	13	20	05	29	-0.181504627731	-0.646068590841	0.012694338456	1.279296875	0.21435546875	0.29833984375	-6.0625	-44.8125	-46.875
18	12	13	20	05	29	-0.187367019621	-0.650413787656	0.00994815120464	1.3310546875	0.24609375	0.2685546875	-4.1875	-38.4375	-45.8125
18	12	13	20	05	29	-0.19206207193	-0.654121794391	0.00659126271639	1.42431640625	0.255859375	0.265625	2.4375	-31.9375	-44.375
18	12	13	20	05	29	-0.194928987448	-0.657656471113	0.00225810035553	1.56982421875	0.25439453125	0.23828125	12.75	-25.875	-43.5
18	12	13	20	05	29	-0.195368573775	-0.661238090683	-0.0023192770395	1.64111328125	0.2998046875	0.1259765625	21.25	-16.375	-33.375
18	12	13	20	05	29	-0.191758483643	-0.663769977116	-0.00640822431015	1.42041015625	0.365234375	0.017578125	30.625	-0.25	-3.625
18	12	13	20	05	30	-0.183468295846	-0.664294388551	-0.0100706150414	1.0869140625	0.40869140625	-0.0771484375	42.3125	22.4375	30.125
18	12	13	20	05	30	-0.173204716574	-0.661632252423	-0.0128164166598	0.81103515625	0.4453125	-0.17041015625	40.625	51.5625	53.5
18	12	13	20	05	30	-0.164909033068	-0.654753555423	-0.013305021913	0.63330078125	0.435546875	-0.16015625	19.125	77.4375	59.375
18	12	13	20	05	30	-0.162042001002	-0.644994300035	-0.0104976362231	0.5419921875	0.3154296875	-0.05517578125	-15.5	83.1875	43.0
18	12	13	20	05	30	-0.165892406143	-0.636409168086	-0.00402829242291	0.56787109375	0.15576171875	-0.01416015625	-52.5625	63.1875	14.875
18	12	13	20	05	30	-0.177722257601	-0.629229559019	0.00628619249069	0.66796875	0.12255859375	-0.00537109375	-96.625	42.9375	-12.375
18	12	13	20	05	30	-0.194754942601	-0.62155573032	0.0174553160714	0.7587890625	0.154296875	0.06005859375	-117.9375	31.6875	-31.5
18	12	13	20	05	30	-0.213129286916	-0.614486157122	0.0280754501665	0.84912109375	0.1630859375	0.1455078125	-119.5	23.75	-41.625
18	12	13	20	05	30	-0.229054158167	-0.60788153886	0.0383893060184	0.8720703125	0.158203125	0.23291015625	-108.75	19.375	-32.4375
18	12	13	20	05	30	-0.241131825464	-0.601761528492	0.0489465259483	0.8232421875	0.1982421875	0.296875	-95.375	13.4375	-13.125
18	12	13	20	05	30	-0.250653751452	-0.596698740674	0.0583455043555	0.77880859375	0.23486328125	0.34521484375	-80.3125	5.25	-3.3125
18	12	13	20	05	30	-0.257369494507	-0.593408488283	0.063899895838	0.73876953125	0.20556640625	0.38330078125	-50.5	-2.1875	-6.25
18	12	13	20	05	30	-0.260552656997	-0.593063988765	0.0640243001147	0.7158203125	0.14599609375	0.35888671875	-9.6875	-9.3125	-15.75
18	12	13	20	05	30	-0.260912971513	-0.595369833242	0.0584689185285	0.7216796875	0.130859375	0.31396484375	27.6875	-12.6875	-26.1875
18	12	13	20	05	30	-0.260117337006	-0.599087700622	0.0494967527715	0.72265625	0.1884765625	0.27490234375	47.5	-13.875	-31.25
18	12	13	20	05	30	-0.259691729187	-0.603302642305	0.0405863689563	0.7216796875	0.2705078125	0.24560546875	44.8125	-16.6875	-29.0625
18	12	13	20	05	30	-0.260368412049	-0.607160094482	0.0344838614176	0.71337890625	0.27685546875	0.2255859375	28.1875	-19.5625	-24.75
18	12	13	20	05	30	-0.262009126201	-0.610317088751	0.0315533934884	0.70458984375	0.208984375	0.2216796875	11.375	-21.375	-22.1875
18	12	13	20	05	30	-0.264017063603	-0.613171391127	0.0305151483591	0.71337890625	0.14013671875	0.20068359375	2.875	-21.625	-22.0
18	12	13	20	05	30	-0.265851782888	-0.61580452005	0.029600118159	0.7294921875	0.10888671875	0.20751953125	3.25	-20.8125	-23.0625
18	12	13	20	05	30	-0.267014108252	-0.618740349591	0.0278304990544	0.7626953125	0.11181640625	0.22265625	9.9375	-21.1875	-24.0625
18	12	13	20	05	30	-0.267807344537	-0.621913591804	0.0253281786652	0.80224609375	0.1337890625	0.2490234375	15.1875	-23.3125	-25.375
18	12	13	20	05	30	-0.268486945641	-0.625289556284	0.0226434773432	0.84814453125	0.162109375	0.2822265625	17.375	-26.4375	-24.75
18	12	13	20	05	30	-0.268898904429	-0.628793784006	0.0204451050803	0.8837890625	0.20263671875	0.30029296875	15.9375	-29.0625	-20.75
18	12	13	20	05	30	-0.26927833104	-0.631937406979	0.0193475138123	0.8935546875	0.24658203125	0.33056640625	11.75	-30.6875	-13.875
18	12	13	20	05	30	-0.269576559547	-0.634911693224	0.0191639211451	0.90283203125	0.283203125	0.33642578125	7.5	-31.8125	-7.875
18	12	13	20	05	30	-0.269882789655	-0.637599616355	0.0198353474984	0.90087890625	0.31298828125	0.34619140625	3.3125	-31.9375	-2.5
18	12	13	20	05	30	-0.269454183208	-0.640159666516	0.0208727815758	0.90673828125	0.31396484375	0.34619140625	4.75	-31.625	2.5
18	12	13	20	05	30	-0.267689819914	-0.642919417003	0.021239411156	0.9365234375	0.31103515625	0.34423828125	12.625	-30.0625	5.125
18	12	13	20	05	30	-0.264330091107	-0.645841843477	0.0202016301447	0.95654296875	0.3310546875	0.33984375	24.5625	-26.8125	8.25
18	12	13	20	05	30	-0.259685610549	-0.648756296154	0.0177599324723	0.984375	0.36962890625	0.337890625	34.9375	-23.6875	11.1875
18	12	13	20	05	30	-0.254806790404	-0.651756099334	0.0147696391084	1.03271484375	0.39697265625	0.3408203125	38.0625	-23.375	10.75
18	12	13	20	05	30	-0.250594393258	-0.655170679889	0.0123893477427	1.15185546875	0.40087890625	0.3046875	32.8125	-25.6875	7.0625
18	12	13	20	05	30	-0.249857496853	-0.658576514054	0.0120839727349	1.3544921875	0.4541015625	0.21923828125	9.3125	-26.25	-2.125
18	12	13	20	05	30	-0.251208841812	-0.660796435933	0.0149529072507	1.41552734375	0.48828125	0.18701171875	-14.125	-22.6875	2.625
18	12	13	20	05	30	-0.250897068401	-0.662121696686	0.0215438251388	1.2490234375	0.45556640625	0.15234375	-24.5625	-19.1875	28.125
18	12	13	20	05	30	-0.248094171502	-0.662377870435	0.0285628714054	0.97900390625	0.42822265625	0.11328125	-18.3125	-9.0	47.5
18	12	13	20	05	30	-0.242297508787	-0.661527127896	0.0339338576538	0.728515625	0.3828125	0.1064453125	-2.0	3.875	59.4375
18	12	13	20	05	30	-0.234002649564	-0.659833762243	0.0364370322874	0.61083984375	0.29736328125	0.0986328125	18.8125	16.625	58.125
18	12	13	20	05	30	-0.224784416993	-0.658179514758	0.034605692217	0.64208984375	0.1845703125	0.0966796875	41.125	23.8125	38.625
18	12	13	20	05	30	-0.215078251256	-0.657502270369	0.0288683350863	0.80615234375	0.12841796875	0.07666015625	60.125	25.25	18.375
18	12	13	20	05	30	-0.204581074178	-0.657320456116	0.0210562263101	0.9501953125	0.1142578125	0.04345703125	71.875	27.6875	10.25
18	12	13	20	05	30	-0.194814238272	-0.65719289402	0.0132439504088	1.0341796875	0.13818359375	-0.001953125	67.9375	30.125	7.0
18	12	13	20	05	30	-0.187245544378	-0.656091786854	0.00805619682462	1.0234375	0.18603515625	0.00244140625	47.25	30.8125	11.25
18	12	13	20	05	30	-0.182859085618	-0.654166782261	0.00720206011446	0.95947265625	0.212890625	0.03466796875	16.4375	27.0	17.1875
18	12	13	20	05	30	-0.182059756307	-0.651826415475	0.0107417087194	0.93994140625	0.19677734375	0.0498046875	-15.375	20.875	17.8125
18	12	13	20	05	30	-0.182972019081	-0.64937367679	0.0171498123288	0.95947265625	0.12939453125	0.06591796875	-33.5	16.5625	16.5
18	12	13	20	05	30	-0.183212413009	-0.64710233682	0.0236186555078	0.96484375	0.0478515625	0.08056640625	-29.8125	14.875	14.75
18	12	13	20	05	30	-0.181148261413	-0.645310164393	0.0275262351406	0.96826171875	0.00634765625	0.0927734375	-9.625	15.3125	12.875
18	12	13	20	05	30	-0.17656370583	-0.644063874048	0.028013391281	0.9482421875	0.03466796875	0.087890625	14.75	17.125	13.6875
18	12	13	20	05	31	-0.169977096401	-0.643349577438	0.0261221534146	0.88916015625	0.1005859375	0.08154296875	31.6875	17.375	19.0
18	12	13	20	05	31	-0.162650175436	-0.642788610766	0.024046592541	0.80712890625	0.14892578125	0.0966796875	34.875	14.6875	26.125
18	12	13	20	05	31	-0.155569372484	-0.642295832097	0.0233750763677	0.74462890625	0.15771484375	0.1025390625	28.25	10.6875	32.0
18	12	13	20	05	31	-0.148372146432	-0.641949089336	0.0240471516637	0.716796875	0.10888671875	0.12451171875	23.375	6.8125	34.6875
18	12	13	20	05	31	-0.140493797524	-0.641865016748	0.0247786628126	0.73095703125	0.0400390625	0.13525390625	26.9375	4.125	33.3125
18	12	13	20	05	31	-0.131159987741	-0.642189572364	0.0241080480026	0.76513671875	-0.01416015625	0.13037109375	39.0	3.5625	30.9375
18	12	13	20	05	31	-0.120355084234	-0.642849950427	0.0209950045521	0.8076171875	-0.0205078125	0.1171875	54.875	4.625	27.875
18	12	13	20	05	31	-0.109003399438	-0.643583900936	0.0158073238826	0.8466796875	-0.00634765625	0.10205078125	66.125	6.6875	23.4375
18	12	13	20	05	31	-0.0979570924686	-0.644258609407	0.00939899828048	0.88720703125	0.01708984375	0.11083984375	69.5	7.0625	19.0
18	12	13	20	05	31	-0.0886781010508	-0.645037061257	0.00311258303757	0.93701171875	0.06201171875	0.08984375	61.875	6.4375	14.5625
18	12	13	20	05	31	-0.0815991859551	-0.645896922186	-0.0016478519228	0.97314453125	0.10302734375	0.07275390625	46.6875	5.125	12.9375
18	12	13	20	05	31	-0.076842466205	-0.646782854944	-0.00427241670719	1.013671875	0.1298828125	0.07373046875	28.375	2.75	12.5
18	12	13	20	05	31	-0.0741558431217	-0.647749763827	-0.00476062202756	1.037109375	0.1201171875	0.087890625	11.75	-0.375	10.5625
18	12	13	20	05	31	-0.0731183740666	-0.648727210312	-0.00408925798202	1.06298828125	0.1044921875	0.09814453125	0.875	-2.125	6.1875
18	12	13	20	05	31	-0.072994250632	-0.649624417832	-0.00335675901736	1.07568359375	0.10302734375	0.11376953125	-2.75	-3.0625	2.5
18	12	13	20	05	31	-0.0734831138706	-0.65048424222	-0.003539884223	1.103515625	0.1171875	0.1328125	-1.125	-4.0	-2.875
18	12	13	20	05	31	-0.0740937383315	-0.65146339617	-0.00512674960448	1.14208984375	0.12109375	0.16796875	5.0625	-6.1875	-9.0
18	12	13	20	05	31	-0.0750705464574	-0.652869622321	-0.00823945022093	1.2158203125	0.13427734375	0.181640625	10.4375	-9.8125	-16.375
18	12	13	20	05	31	-0.0767766142918	-0.65467626511	-0.0123892310821	1.27587890625	0.16064453125	0.1767578125	12.0625	-12.5	-23.25
18	12	13	20	05	31	-0.0794658008449	-0.656783012974	-0.017516655025	1.34814453125	0.208984375	0.18115234375	12.8125	-14.9375	-29.625
18	12	13	20	05	31	-0.0824543786297	-0.659085740061	-0.0238025223283	1.44091796875	0.21435546875	0.2236328125	17.4375	-19.1875	-37.1875
18	12	13	20	05	31	-0.0849548758282	-0.662184197368	-0.031491893626	1.55712890625	0.21240234375	0.24072265625	26.125	-25.875	-43.75
18	12	13	20	05	31	-0.0870319991125	-0.666228122239	-0.0396709673374	1.583984375	0.2607421875	0.154296875	29.8125	-27.9375	-42.625
18	12	13	20	05	31	-0.0883135714154	-0.669828228254	-0.0460792995291	1.373046875	0.38037109375	0.02001953125	22.25	-18.9375	-22.8125
18	12	13	20	05	31	-0.0880690058778	-0.671167607511	-0.0502902708547	1.03857421875	0.46435546875	-0.0458984375	16.125	1.0625	2.625
18	12	13	20	05	31	-0.085324163492	-0.669837406527	-0.0537090585644	0.78515625	0.45068359375	-0.0703125	19.8125	23.0625	18.75
18	12	13	20	05	31	-0.0818415558055	-0.666389222849	-0.0579177005663	0.67333984375	0.35302734375	-0.05908203125	25.1875	38.8125	13.9375
18	12	13	20	05	31	-0.0812948892401	-0.662260392751	-0.0633514226961	0.7490234375	0.22802734375	-0.0322265625	19.5625	40.875	-13.0
18	12	13	20	05	31	-0.0854438322768	-0.658344727693	-0.0685381597477	0.88232421875	0.1630859375	-0.03564453125	1.75	37.625	-39.6875
18	12	13	20	05	31	-0.0930105297211	-0.654186265145	-0.0719549964181	0.94775390625	0.185546875	-0.04443359375	-19.5	37.4375	-48.5625
18	12	13	20	05	31	-0.103696146166	-0.649703046459	-0.0728131267661	0.93798828125	0.24658203125	-0.03369140625	-42.5625	36.125	-48.9375
18	12	13	20	05	31	-0.11596180381	-0.644747629184	-0.0701263750409	0.8720703125	0.2861328125	0.0107421875	-64.5	33.75	-39.5625
18	12	13	20	05	31	-0.127803686994	-0.639445667927	-0.0650004425257	0.79052734375	0.30615234375	0.09033203125	-72.4375	29.625	-26.5
18	12	13	20	05	31	-0.138601850018	-0.634297237887	-0.0584678874142	0.75244140625	0.28515625	0.15576171875	-73.5625	24.125	-17.5625
18	12	13	20	05	31	-0.148427681007	-0.629352897429	-0.052608824436	0.72705078125	0.2578125	0.2197265625	-65.875	19.0	-17.4375
18	12	13	20	05	31	-0.157285950306	-0.62517655762	-0.0494379587692	0.72119140625	0.2275390625	0.25146484375	-48.25	13.875	-25.6875
18	12	13	20	05	31	-0.164174661191	-0.622154831292	-0.0506561222261	0.72509765625	0.20654296875	0.26953125	-20.5	9.375	-35.4375
18	12	13	20	05	31	-0.169182343702	-0.620457325422	-0.0554786256943	0.7392578125	0.2314453125	0.25927734375	3.3125	5.0	-39.8125
18	12	13	20	05	31	-0.17339609829	-0.619978024087	-0.0608503731064	0.7255859375	0.2763671875	0.2255859375	8.875	-0.8125	-36.3125
18	12	13	20	05	31	-0.178578737264	-0.620265108276	-0.0637781204515	0.70458984375	0.30859375	0.1875	-5.3125	-7.125	-30.5
18	12	13	20	05	31	-0.184923358813	-0.620744383658	-0.0637161671949	0.68505859375	0.2802734375	0.1767578125	-22.125	-12.1875	-26.8125
18	12	13	20	05	31	-0.191763719323	-0.621370600392	-0.0618257949315	0.66455078125	0.20849609375	0.17919921875	-30.0625	-15.8125	-27.0
18	12	13	20	05	31	-0.198599795372	-0.622165431477	-0.0598118621589	0.6494140625	0.1689453125	0.173828125	-30.0	-17.375	-29.1875
18	12	13	20	05	31	-0.204949051652	-0.623147652581	-0.0588358802241	0.63916015625	0.17041015625	0.185546875	-23.125	-18.375	-30.75
18	12	13	20	05	31	-0.210993610453	-0.624497142653	-0.058897551081	0.64599609375	0.19287109375	0.1923828125	-17.0625	-20.625	-32.5625
18	12	13	20	05	31	-0.217400193284	-0.625956311711	-0.0589580535407	0.67236328125	0.22607421875	0.21240234375	-17.6875	-23.0625	-33.5625
18	12	13	20	05	31	-0.223871843341	-0.627488119245	-0.0584703451257	0.70703125	0.2587890625	0.23583984375	-20.125	-25.5625	-31.3125
18	12	13	20	05	31	-0.230454804339	-0.628929226355	-0.0572475123067	0.748046875	0.2880859375	0.25830078125	-23.125	-27.0625	-28.5
18	12	13	20	05	31	-0.236556521003	-0.6302070784	-0.0553552024123	0.771484375	0.3037109375	0.283203125	-24.375	-27.4375	-23.6875
18	12	13	20	05	31	-0.241869651949	-0.63143664372	-0.0530978039857	0.783203125	0.31787109375	0.30810546875	-22.375	-27.875	-18.1875
18	12	13	20	05	32	-0.246143865812	-0.63266236375	-0.0507789973606	0.80712890625	0.32958984375	0.3359375	-18.25	-28.6875	-13.5625
18	12	13	20	05	32	-0.249260818235	-0.634260142776	-0.0488268008296	0.84423828125	0.34228515625	0.35595703125	-11.3125	-29.9375	-10.0625
18	12	13	20	05	32	-0.250598463526	-0.636383385092	-0.0473610345096	0.873046875	0.33837890625	0.38037109375	-1.5	-31.9375	-5.0625
18	12	13	20	05	32	-0.25011268365	-0.639258235372	-0.0466901422627	0.92138671875	0.34423828125	0.38427734375	9.6875	-34.5625	-1.4375
18	12	13	20	05	32	-0.248452555605	-0.642827503854	-0.0468709316396	0.97607421875	0.369140625	0.373046875	18.6875	-35.8125	0.4375
18	12	13	20	05	32	-0.246264511611	-0.646757132476	-0.0471778110224	1.0419921875	0.4228515625	0.34716796875	20.25	-36.125	3.75
18	12	13	20	05	32	-0.244179677871	-0.650454138154	-0.04668769147	1.10546875	0.4677734375	0.3486328125	16.0625	-35.8125	7.75
18	12	13	20	05	32	-0.242663080065	-0.6537133427	-0.0441871403338	1.1728515625	0.5	0.3115234375	3.8125	-33.6875	13.9375
18	12	13	20	05	32	-0.242973338535	-0.656473556715	-0.0395495411632	1.3564453125	0.56201171875	0.20703125	-15.5	-27.125	14.0
18	12	13	20	05	32	-0.244256712615	-0.657454599771	-0.0321647395172	1.39453125	0.60302734375	0.13818359375	-35.5625	-13.875	24.4375
18	12	13	20	05	32	-0.242420084119	-0.65664594286	-0.0221547055728	1.15966796875	0.53564453125	0.1171875	-37.625	-0.0625	53.9375
18	12	13	20	05	32	-0.235527024566	-0.654458741751	-0.0130000663987	0.87939453125	0.44921875	0.11083984375	-17.25	15.4375	77.8125
18	12	13	20	05	32	-0.224355652666	-0.65079007736	-0.00781216636051	0.6767578125	0.34326171875	0.109375	13.8125	34.9375	83.0
18	12	13	20	05	32	-0.211234291038	-0.646275616239	-0.00750702623453	0.62890625	0.23095703125	0.12841796875	41.4375	47.3125	68.375
18	12	13	20	05	32	-0.198783376802	-0.642368756782	-0.0112300096198	0.75390625	0.171875	0.12255859375	56.9375	47.6875	43.4375
18	12	13	20	05	32	-0.18865227974	-0.639013060135	-0.016722977887	0.92138671875	0.189453125	0.08935546875	55.5625	47.1875	24.3125
18	12	13	20	05	32	-0.180899885312	-0.635102633791	-0.0215444195395	1.00146484375	0.21826171875	0.0986328125	43.0	48.4375	16.625
18	12	13	20	05	32	-0.175280548051	-0.630692612659	-0.0231917159677	0.9970703125	0.2294921875	0.12255859375	21.1875	45.6875	20.3125
18	12	13	20	05	32	-0.171864516624	-0.625755287269	-0.0205065616427	0.93701171875	0.240234375	0.1318359375	-6.4375	42.5	28.625
18	12	13	20	05	32	-0.170645639752	-0.620207793692	-0.0139153096794	0.88232421875	0.2255859375	0.14794921875	-31.5	40.0	33.5625
18	12	13	20	05	32	-0.170762131637	-0.614267639359	-0.00512652575322	0.8681640625	0.173828125	0.17138671875	-45.625	38.1875	33.25
18	12	13	20	05	32	-0.170588700533	-0.608565271203	0.00341787736309	0.8994140625	0.0830078125	0.18359375	-42.0	37.0625	27.75
18	12	13	20	05	32	-0.168815310234	-0.603548301846	0.00891071413384	0.9375	0.0234375	0.1875	-21.0625	36.8125	20.375
18	12	13	20	05	32	-0.164181071871	-0.599474530824	0.0101316200485	0.94091796875	0.03125	0.185546875	8.5	37.375	19.375
18	12	13	20	05	32	-0.157095108679	-0.59615579704	0.00823925395171	0.90185546875	0.1025390625	0.18896484375	29.875	35.875	24.8125
18	12	13	20	05	32	-0.149714267324	-0.593364087618	0.00579814732809	0.85400390625	0.17724609375	0.1865234375	32.625	31.9375	29.9375
18	12	13	20	05	32	-0.143180167157	-0.590847058076	0.00512665560152	0.810546875	0.197265625	0.185546875	21.0	27.25	33.875
18	12	13	20	05	32	-0.13732312913	-0.588414350196	0.00732390022026	0.77734375	0.150390625	0.20361328125	6.6875	22.125	38.5
18	12	13	20	05	32	-0.131101963277	-0.586174699868	0.0111693013407	0.75830078125	0.07958984375	0.21923828125	2.0625	17.6875	41.3125
18	12	13	20	05	32	-0.123838125495	-0.584523276426	0.0142819720877	0.7548828125	0.00830078125	0.234375	10.875	13.875	39.5625
18	12	13	20	05	32	-0.115169125905	-0.583535777839	0.0148310003153	0.76611328125	-0.0322265625	0.25537109375	28.625	10.4375	35.25
18	12	13	20	05	32	-0.105342396586	-0.583350305082	0.0123896329705	0.7763671875	-0.02978515625	0.25830078125	46.5625	7.0	30.625
18	12	13	20	05	32	-0.0950253653087	-0.583884181059	0.00762888289248	0.787109375	0.00048828125	0.27197265625	58.6875	2.4375	26.625
18	12	13	20	05	32	-0.0853829207087	-0.585413134694	0.00170887904206	0.810546875	0.03369140625	0.26611328125	61.25	-3.75	21.5
18	12	13	20	05	32	-0.0775119108057	-0.58780882911	-0.0037230130387	0.84521484375	0.072265625	0.25048828125	52.875	-10.0	16.5625
18	12	13	20	05	32	-0.0719591490972	-0.590870672103	-0.00775132479673	0.8818359375	0.1015625	0.24169921875	38.125	-15.75	12.4375
18	12	13	20	05	32	-0.0683578772752	-0.594408363199	-0.0099485124963	0.9072265625	0.09716796875	0.25341796875	23.625	-21.375	8.5
18	12	13	20	05	32	-0.0665871015435	-0.598612549898	-0.0109859562583	0.94287109375	0.09228515625	0.2373046875	12.0625	-26.3125	3.3125
18	12	13	20	05	32	-0.0662810368904	-0.603181848607	-0.011474065318	0.96923828125	0.10302734375	0.2255859375	4.875	-29.25	-0.9375
18	12	13	20	05	32	-0.0667079271515	-0.608000338777	-0.0122063910616	0.98583984375	0.119140625	0.2197265625	3.25	-31.125	-4.625
18	12	13	20	05	32	-0.0679284325332	-0.612881688678	-0.0138542265813	1.03271484375	0.13623046875	0.236328125	4.875	-33.1875	-10.875
18	12	13	20	05	32	-0.0694554472224	-0.617836109168	-0.0168450821032	1.10400390625	0.125	0.2763671875	10.375	-36.25	-18.75
18	12	13	20	05	32	-0.0712864391873	-0.623329112517	-0.0212394527716	1.1982421875	0.12255859375	0.27978515625	16.3125	-39.6875	-27.0
18	12	13	20	05	32	-0.0729350812849	-0.628889604652	-0.0268547579626	1.25439453125	0.13330078125	0.30224609375	23.0625	-42.375	-31.4375
18	12	13	20	05	32	-0.0745829792469	-0.634687726013	-0.033934645222	1.318359375	0.15576171875	0.3203125	29.625	-45.8125	-36.9375
18	12	13	20	05	32	-0.0771433402419	-0.640765766772	-0.0418063196723	1.3857421875	0.20166015625	0.31982421875	30.4375	-49.4375	-43.25
18	12	13	20	05	32	-0.0801972230249	-0.647131777574	-0.0499249074843	1.46240234375	0.25439453125	0.3515625	29.8125	-55.8125	-45.5625
18	12	13	20	05	32	-0.0831254105775	-0.654200643157	-0.0583464702732	1.5498046875	0.28466796875	0.34716796875	32.875	-62.5625	-47.125
18	12	13	20	05	32	-0.0856282549586	-0.661345524399	-0.0664030943656	1.49169921875	0.3310546875	0.23095703125	31.75	-58.75	-41.6875
18	12	13	20	05	32	-0.0858744859194	-0.666671648684	-0.0734236009674	1.2021484375	0.39599609375	0.09912109375	32.4375	-38.25	-20.1875
18	12	13	20	05	33	-0.0805618005	-0.668601912483	-0.0818434655079	0.9150390625	0.4013671875	0.00390625	55.0	-4.125	3.0625
18	12	13	20	05	33	-0.0679880944381	-0.666759364215	-0.0942922853741	0.736328125	0.35888671875	-0.06494140625	95.8125	34.0	17.625
18	12	13	20	05	33	-0.0510853880428	-0.660997314819	-0.109983117387	0.70263671875	0.3076171875	-0.11328125	125.125	59.375	12.5625
18	12	13	20	05	33	-0.0372297526196	-0.653717836571	-0.127313547483	0.81787109375	0.298828125	-0.1240234375	119.9375	65.25	-8.375
18	12	13	20	05	33	-0.0313096227088	-0.64785895722	-0.142876855285	0.9287109375	0.28369140625	-0.146484375	80.6875	59.9375	-34.25
18	12	13	20	05	33	-0.0350931617544	-0.642540533826	-0.150809048165	0.89404296875	0.32421875	-0.16552734375	10.5	51.125	-44.625
18	12	13	20	05	33	-0.0479118233926	-0.637868109906	-0.148984408792	0.84228515625	0.35791015625	-0.12890625	-64.8125	39.0	-45.0
18	12	13	20	05	33	-0.0664639959025	-0.631682605685	-0.139519462473	0.830078125	0.322265625	-0.05419921875	-116.375	31.9375	-48.375
18	12	13	20	05	33	-0.08727606231	-0.624786748159	-0.126092548764	0.8115234375	0.26171875	0.0244140625	-142.125	31.8125	-45.1875
18	12	13	20	05	33	-0.10601059083	-0.617205011551	-0.111503367557	0.76171875	0.1865234375	0.13330078125	-139.25	34.6875	-33.75
18	12	13	20	05	33	-0.121085417291	-0.609516160528	-0.0996635516313	0.69921875	0.15771484375	0.2568359375	-113.3125	35.375	-27.3125
18	12	13	20	05	33	-0.132377204323	-0.601831079681	-0.0930729537078	0.67431640625	0.17041015625	0.3271484375	-72.875	31.375	-31.6875
18	12	13	20	05	33	-0.140491301653	-0.595775884767	-0.0935591509269	0.68115234375	0.21728515625	0.3447265625	-29.1875	25.25	-40.0625
18	12	13	20	05	33	-0.146602823916	-0.591599155793	-0.0983862415287	0.6826171875	0.29638671875	0.2998046875	-1.875	18.8125	-42.0
18	12	13	20	05	33	-0.152032747839	-0.588722555461	-0.103450625286	0.66015625	0.36328125	0.26171875	0.5625	12.375	-36.0625
18	12	13	20	05	33	-0.157643707017	-0.587120581302	-0.106133335851	0.626953125	0.34521484375	0.21435546875	-9.6875	4.8125	-29.25
18	12	13	20	05	33	-0.162834892011	-0.586584013163	-0.106562864112	0.6328125	0.2744140625	0.1884765625	-16.625	-1.75	-24.875
18	12	13	20	05	33	-0.166989779736	-0.586905600124	-0.106748949107	0.64013671875	0.20654296875	0.171875	-12.0	-5.5625	-23.5625
18	12	13	20	05	33	-0.170032299024	-0.588033453372	-0.108146889401	0.6611328125	0.1796875	0.16748046875	-1.0625	-8.5	-25.25
18	12	13	20	05	33	-0.172658429148	-0.589931557492	-0.11077237501	0.6923828125	0.20654296875	0.166015625	6.8125	-12.1875	-27.375
18	12	13	20	05	33	-0.175343710005	-0.592311418586	-0.113579757856	0.71533203125	0.25537109375	0.1748046875	7.25	-16.3125	-26.4375
18	12	13	20	05	33	-0.178826856061	-0.595072302592	-0.114864212664	0.74658203125	0.2998046875	0.18408203125	-1.875	-21.4375	-22.875
18	12	13	20	05	33	-0.183520688837	-0.597983275432	-0.113456920701	0.76318359375	0.328125	0.2021484375	-17.5625	-26.8125	-18.1875
18	12	13	20	05	33	-0.189202760782	-0.600932381505	-0.10900520347	0.77685546875	0.33447265625	0.2197265625	-33.875	-31.3125	-12.0625
18	12	13	20	05	33	-0.195240975219	-0.60360526568	-0.102411489971	0.77490234375	0.33935546875	0.2529296875	-44.25	-34.4375	-5.625
18	12	13	20	05	33	-0.200735987891	-0.606358175646	-0.0952717777739	0.7783203125	0.31982421875	0.28515625	-43.625	-36.75	-2.0
18	12	13	20	05	33	-0.20495268688	-0.609303952688	-0.089109863861	0.7919921875	0.314453125	0.30224609375	-34.0	-37.3125	-0.25
18	12	13	20	05	33	-0.207089329684	-0.612662154839	-0.0849597249985	0.8154296875	0.3271484375	0.32470703125	-16.875	-37.375	2.3125
18	12	13	20	05	33	-0.20726067905	-0.616472355442	-0.0828798592901	0.8388671875	0.345703125	0.3349609375	-0.0625	-37.0625	4.375
18	12	13	20	05	33	-0.20616458616	-0.620568831284	-0.0821484703883	0.849609375	0.38671875	0.32421875	9.6875	-36.25	7.375
18	12	13	20	05	33	-0.204882344312	-0.624656179336	-0.0817210184789	0.859375	0.42822265625	0.31005859375	10.75	-35.375	9.875
18	12	13	20	05	33	-0.204155122474	-0.628394959938	-0.0803803576377	0.86181640625	0.45947265625	0.30908203125	4.5	-34.875	12.625
18	12	13	20	05	33	-0.204152674909	-0.631744196705	-0.0779381063851	0.87353515625	0.4609375	0.31396484375	-3.1875	-34.875	13.9375
18	12	13	20	05	33	-0.20531154813	-0.634732491246	-0.0743979718105	0.8974609375	0.45556640625	0.31689453125	-12.5	-35.4375	12.125
18	12	13	20	05	33	-0.207690641111	-0.637536419936	-0.0698201861388	0.94775390625	0.44580078125	0.314453125	-21.0625	-36.4375	8.9375
18	12	13	20	05	33	-0.211168952089	-0.640342383041	-0.0644492524296	1.021484375	0.427734375	0.31787109375	-27.9375	-38.25	3.5
18	12	13	20	05	33	-0.215630135831	-0.64328945136	-0.0587749280512	1.1279296875	0.4189453125	0.29931640625	-32.5	-39.8125	-2.5
18	12	13	20	05	33	-0.22087579563	-0.646270737753	-0.0526708515139	1.255859375	0.455078125	0.27587890625	-38.1875	-39.25	-5.75
18	12	13	20	05	33	-0.227400230183	-0.648450736902	-0.0449795946444	1.3046875	0.50439453125	0.291015625	-50.6875	-38.3125	-2.8125
18	12	13	20	05	33	-0.233444991253	-0.650106156033	-0.0350320065305	1.26318359375	0.5126953125	0.296875	-58.9375	-37.8125	10.4375
18	12	13	20	05	33	-0.237411847266	-0.651265249917	-0.0241073726658	1.10400390625	0.478515625	0.2646484375	-56.9375	-33.0625	26.4375
18	12	13	20	05	33	-0.238451206327	-0.651514365892	-0.0139152482832	0.9013671875	0.423828125	0.23681640625	-44.3125	-22.0	40.375
18	12	13	20	05	33	-0.235031698323	-0.650716169183	-0.00659138494389	0.73388671875	0.32666015625	0.2421875	-16.75	-7.1875	49.1875
18	12	13	20	05	33	-0.227588700086	-0.649503605876	-0.00384502228624	0.6884765625	0.208984375	0.25	17.5	5.75	44.9375
18	12	13	20	05	33	-0.217759427826	-0.648761972475	-0.00659137281536	0.78662109375	0.1435546875	0.21533203125	49.6875	14.875	28.625
18	12	13	20	05	33	-0.206104188351	-0.648401213218	-0.0133659512137	0.9189453125	0.150390625	0.16455078125	72.625	23.0625	19.4375
18	12	13	20	05	33	-0.193832093867	-0.647653079381	-0.0208113173831	0.99609375	0.1923828125	0.11669921875	75.625	30.8125	21.3125
18	12	13	20	05	33	-0.182790388859	-0.645961093718	-0.0266709181741	1.02880859375	0.2333984375	0.0810546875	62.0	36.75	25.0
18	12	13	20	05	33	-0.17540260612	-0.643142889108	-0.029050675196	1.05224609375	0.2724609375	0.064453125	31.875	39.125	24.875
18	12	13	20	05	33	-0.172476516426	-0.639188448879	-0.0266709970553	1.02587890625	0.30224609375	0.07763671875	-6.25	38.125	26.125
18	12	13	20	05	34	-0.172357585755	-0.634500517533	-0.0194085383393	0.97607421875	0.25	0.11328125	-37.625	34.3125	30.0625
18	12	13	20	05	34	-0.173449840182	-0.629350722011	-0.00976494526007	0.9482421875	0.1689453125	0.13134765625	-51.75	33.0	29.8125
18	12	13	20	05	34	-0.173757327916	-0.62392734924	-0.000915475911043	0.927734375	0.1044921875	0.15966796875	-44.25	34.5	27.1875
18	12	13	20	05	34	-0.171555550643	-0.618539845523	0.00476034612243	0.9169921875	0.07177734375	0.18798828125	-20.9375	37.8125	26.5
18	12	13	20	05	34	-0.166552650917	-0.613174966569	0.00677440243746	0.89111328125	0.09130859375	0.20849609375	4.875	42.1875	28.1875
18	12	13	20	05	34	-0.159839440773	-0.607926945223	0.0060420407165	0.85009765625	0.14013671875	0.20556640625	21.9375	44.9375	31.0625
18	12	13	20	05	34	-0.152092038828	-0.602753200427	0.0043943125183	0.80859375	0.16455078125	0.21630859375	29.4375	44.8125	34.8125
18	12	13	20	05	34	-0.143728963429	-0.597802631332	0.00292950753486	0.7763671875	0.1513671875	0.2255859375	30.875	42.3125	38.25
18	12	13	20	05	34	-0.134942835169	-0.593113736848	0.0017699422071	0.748046875	0.1220703125	0.22900390625	31.375	40.0	39.875
18	12	13	20	05	34	-0.12554017863	-0.588641236213	0.000366184283803	0.7294921875	0.0810546875	0.23779296875	35.5	37.8125	39.75
18	12	13	20	05	34	-0.115412200233	-0.584690046659	-0.00201406801041	0.7216796875	0.03515625	0.24267578125	43.8125	34.6875	36.75
18	12	13	20	05	34	-0.104916356525	-0.581403846572	-0.00598126988915	0.728515625	0.009765625	0.2548828125	53.3125	30.3125	31.375
18	12	13	20	05	34	-0.0946583124626	-0.579057426592	-0.0114737348439	0.7509765625	0.0068359375	0.26123046875	60.0625	24.5	24.5625
18	12	13	20	05	34	-0.0852617501814	-0.577851288989	-0.0177603216197	0.7861328125	0.0068359375	0.25732421875	61.875	17.25	17.0
18	12	13	20	05	34	-0.077509881663	-0.577784291105	-0.0240463727364	0.830078125	0.02490234375	0.25244140625	56.3125	8.875	9.625
18	12	13	20	05	34	-0.071959130199	-0.578968879617	-0.0295404741445	0.876953125	0.05712890625	0.24169921875	45.4375	0.4375	3.3125
18	12	13	20	05	34	-0.0687217464299	-0.581388416067	-0.0338115874975	0.92578125	0.0849609375	0.228515625	32.125	-8.5	-2.5
18	12	13	20	05	34	-0.0677457496133	-0.584810606121	-0.0363751952878	0.96142578125	0.11376953125	0.22705078125	16.625	-16.8125	-5.875
18	12	13	20	05	34	-0.0681113292597	-0.589138585433	-0.0376565323953	0.99365234375	0.12060546875	0.2275390625	6.75	-24.5625	-8.5
18	12	13	20	05	34	-0.0696983401758	-0.59426684614	-0.0386331430221	1.02392578125	0.12646484375	0.22509765625	1.5	-31.0625	-12.75
18	12	13	20	05	34	-0.0717127895005	-0.599885113192	-0.0400370977977	1.056640625	0.14453125	0.224609375	2.375	-35.125	-16.0625
18	12	13	20	05	34	-0.0731178980973	-0.605694508112	-0.0427843460486	1.08154296875	0.17138671875	0.2333984375	10.5625	-37.3125	-17.1875
18	12	13	20	05	34	-0.0736054313618	-0.611486581106	-0.0472393066949	1.08447265625	0.19482421875	0.2265625	21.375	-37.25	-17.4375
18	12	13	20	05	34	-0.0731794892758	-0.617173474193	-0.0533435142844	1.142578125	0.20458984375	0.24072265625	32.125	-37.4375	-20.25
18	12	13	20	05	34	-0.0724427653656	-0.62311763638	-0.0618845527218	1.27587890625	0.1865234375	0.26318359375	45.625	-39.8125	-31.375
18	12	13	20	05	34	-0.0714671195182	-0.629716258915	-0.0722605205035	1.4658203125	0.21337890625	0.2744140625	55.6875	-45.0	-39.5
18	12	13	20	05	34	-0.0703697522037	-0.637416905477	-0.0831864460135	1.6064453125	0.28125	0.21484375	58.125	-50.375	-40.0
18	12	13	20	05	34	-0.0698807006943	-0.645526787113	-0.0909364576721	1.533203125	0.4482421875	0.05810546875	38.75	-47.75	-19.125
18	12	13	20	05	34	-0.0700645913918	-0.651820414691	-0.0937449585173	1.302734375	0.59033203125	-0.0732421875	10.125	-30.625	8.5625
18	12	13	20	05	34	-0.0703704772376	-0.655000834097	-0.0931966337744	1.09130859375	0.609375	-0.1396484375	-8.5	-4.9375	24.9375
18	12	13	20	05	34	-0.070005695073	-0.654647851223	-0.0899026929751	0.94140625	0.5234375	-0.169921875	-20.6875	23.0	34.75
18	12	13	20	05	34	-0.0700626136169	-0.651130683518	-0.0845877896107	0.83056640625	0.39697265625	-0.16943359375	-32.9375	46.3125	33.5625
18	12	13	20	05	34	-0.0715299987617	-0.64590612363	-0.0795252460635	0.76513671875	0.23046875	-0.10107421875	-35.375	52.875	16.0
18	12	13	20	05	34	-0.0761696128055	-0.6412163078	-0.0751320459644	0.748046875	0.10791015625	-0.03515625	-42.0625	42.3125	-8.25
18	12	13	20	05	34	-0.085748321922	-0.637650154762	-0.0706126750632	0.77001953125	0.126953125	0.001953125	-58.9375	27.625	-29.0625
18	12	13	20	05	34	-0.0999703785427	-0.63442740229	-0.0654262794858	0.78662109375	0.212890625	0.06201171875	-78.625	17.1875	-41.875
18	12	13	20	05	34	-0.116874975883	-0.631002807131	-0.058895222834	0.79296875	0.26611328125	0.1376953125	-93.5625	10.1875	-46.5
18	12	13	20	05	34	-0.133477636024	-0.627228927947	-0.0513891950308	0.79248046875	0.2568359375	0.23193359375	-95.75	5.3125	-42.75
18	12	13	20	05	34	-0.148247268839	-0.623383122239	-0.0434549425332	0.77197265625	0.2451171875	0.32666015625	-89.0625	0.0625	-34.125
18	12	13	20	05	34	-0.161065400807	-0.620214703674	-0.0359482838481	0.75146484375	0.25927734375	0.37060546875	-79.25	-6.4375	-26.25
18	12	13	20	05	34	-0.173024082925	-0.618004184726	-0.0300274598938	0.73779296875	0.27783203125	0.38330078125	-68.125	-13.4375	-27.5
18	12	13	20	05	34	-0.184805739211	-0.617097367623	-0.0261828474642	0.74462890625	0.26416015625	0.3515625	-57.0	-19.375	-36.6875
18	12	13	20	05	34	-0.196400479929	-0.617154025184	-0.0241075791088	0.7578125	0.23583984375	0.29443359375	-48.0625	-20.9375	-45.875
18	12	13	20	05	34	-0.207449823792	-0.61771099341	-0.0227651615988	0.759765625	0.22705078125	0.2392578125	-42.8125	-20.3125	-47.8125
18	12	13	20	05	34	-0.218184176669	-0.618300389883	-0.0207503832356	0.744140625	0.23828125	0.19140625	-45.5	-18.8125	-43.8125
18	12	13	20	05	34	-0.229118379396	-0.618570797863	-0.0174554758943	0.71044921875	0.24169921875	0.16455078125	-52.75	-17.5	-39.5
18	12	13	20	05	34	-0.240891370252	-0.618310228534	-0.0125114595646	0.68994140625	0.23193359375	0.166015625	-62.875	-17.8125	-38.0625
18	12	13	20	05	34	-0.253595394175	-0.617417811666	-0.00610337892117	0.6865234375	0.220703125	0.17578125	-73.3125	-17.875	-38.0
18	12	13	20	05	34	-0.266703830622	-0.615860035425	0.00140370437169	0.6748046875	0.197265625	0.19580078125	-79.4375	-17.5	-36.875
18	12	13	20	05	34	-0.279461635235	-0.613790274198	0.00921570362971	0.66796875	0.16259765625	0.2333984375	-79.1875	-17.375	-36.25
18	12	13	20	05	35	-0.291600363914	-0.611518553038	0.0166611342295	0.6708984375	0.13232421875	0.27685546875	-73.875	-18.0	-36.75
18	12	13	20	05	35	-0.302413196617	-0.60946481966	0.0231311002054	0.6884765625	0.123046875	0.32470703125	-63.4375	-19.4375	-35.875
18	12	13	20	05	35	-0.311635985393	-0.60801364796	0.0284415137472	0.712890625	0.1396484375	0.3779296875	-51.0	-23.125	-32.625
18	12	13	20	05	35	-0.319263873686	-0.607645025123	0.0327137136868	0.75341796875	0.166015625	0.42333984375	-38.625	-29.125	-30.0
18	12	13	20	05	35	-0.325609226299	-0.608434559883	0.036497529021	0.7919921875	0.20263671875	0.44970703125	-29.8125	-36.1875	-26.1875
18	12	13	20	05	35	-0.330786664373	-0.610490591093	0.0402192641738	0.83251953125	0.24609375	0.45556640625	-24.0	-43.625	-21.5625
18	12	13	20	05	35	-0.335018570513	-0.613580194819	0.0441279698453	0.865234375	0.298828125	0.43212890625	-20.6875	-48.9375	-15.8125
18	12	13	20	05	35	-0.337991968344	-0.617271716835	0.0480927538922	0.892578125	0.322265625	0.4091796875	-16.0	-50.6875	-9.5625
18	12	13	20	05	35	-0.339275359995	-0.621363993544	0.0516328394596	0.89697265625	0.34130859375	0.39208984375	-8.125	-49.75	-2.4375
18	12	13	20	05	35	-0.338594447316	-0.625801633522	0.054194641171	0.92822265625	0.341796875	0.37939453125	3.9375	-47.5	2.1875
18	12	13	20	05	35	-0.336300395375	-0.630609017243	0.0553583409446	0.984375	0.35546875	0.3720703125	15.75	-44.5	4.4375
18	12	13	20	05	35	-0.333181841204	-0.635480734679	0.0554794456226	1.07470703125	0.39501953125	0.3759765625	23.3125	-41.6875	5.125
18	12	13	20	05	35	-0.329385072883	-0.640216678626	0.0552942145696	1.14208984375	0.4306640625	0.3896484375	26.875	-40.125	8.0625
18	12	13	20	05	35	-0.325906192182	-0.644976898686	0.0563927568495	1.26171875	0.47119140625	0.35986328125	20.125	-41.875	11.1875
18	12	13	20	05	35	-0.3251715556	-0.649244558648	0.0599321448197	1.40234375	0.525390625	0.25341796875	-4.3125	-40.1875	7.6875
18	12	13	20	05	35	-0.326336235564	-0.651268743165	0.0672568789212	1.34033203125	0.5419921875	0.2109375	-30.875	-33.1875	20.5625
18	12	13	20	05	35	-0.325675627132	-0.65147332159	0.0768413820387	1.12109375	0.49951171875	0.18603515625	-35.75	-23.8125	44.3125
18	12	13	20	05	35	-0.321947953438	-0.650243316763	0.0852628039721	0.876953125	0.44287109375	0.17431640625	-21.0625	-8.0625	60.8125
18	12	13	20	05	35	-0.314321575493	-0.648112778672	0.0900241405538	0.70703125	0.35791015625	0.18212890625	8.375	9.0625	67.3125
18	12	13	20	05	35	-0.304302611052	-0.645834382301	0.0903875184453	0.673828125	0.2646484375	0.19873046875	36.0625	21.4375	58.8125
18	12	13	20	05	35	-0.293083283574	-0.644209508147	0.0864845924248	0.76318359375	0.1875	0.19873046875	59.4375	27.5625	41.75
18	12	13	20	05	35	-0.281177250742	-0.643588910153	0.079769625943	0.89453125	0.1630859375	0.1376953125	73.3125	31.625	29.3125
18	12	13	20	05	35	-0.270134862752	-0.64280623012	0.0721417550324	0.9951171875	0.17578125	0.0791015625	72.25	37.875	20.875
18	12	13	20	05	35	-0.261646831941	-0.640598355039	0.0659762596987	1.0185546875	0.2119140625	0.0498046875	53.8125	44.875	18.875
18	12	13	20	05	35	-0.256463907272	-0.636460167785	0.0634140884473	0.9599609375	0.244140625	0.0673828125	23.375	48.0	22.75
18	12	13	20	05	35	-0.254812305905	-0.63077489378	0.0653662226645	0.900390625	0.232421875	0.09228515625	-10.125	45.8125	25.25
18	12	13	20	05	35	-0.255781648171	-0.624409936158	0.0707351300956	0.90869140625	0.1650390625	0.1142578125	-34.3125	41.625	21.8125
18	12	13	20	05	35	-0.257497159229	-0.618139660743	0.0771453920991	0.93359375	0.0869140625	0.12060546875	-40.625	38.5625	16.625
18	12	13	20	05	35	-0.258413760783	-0.612344180902	0.0825776613935	0.93994140625	0.04296875	0.1240234375	-32.3125	38.1875	13.6875
18	12	13	20	05	35	-0.257558802159	-0.607094171819	0.0854460481096	0.921875	0.04931640625	0.13720703125	-14.0	39.3125	13.875
18	12	13	20	05	35	-0.254804160914	-0.602680500365	0.0855653733177	0.8857421875	0.09033203125	0.15380859375	5.0	38.875	15.6875
18	12	13	20	05	35	-0.251277966362	-0.598867963551	0.084776559455	0.84619140625	0.12890625	0.17431640625	11.625	35.0	19.0
18	12	13	20	05	35	-0.247854152788	-0.595313815881	0.0851407395073	0.794921875	0.150390625	0.19384765625	6.375	29.0625	24.0
18	12	13	20	05	35	-0.244192094991	-0.592017825896	0.0870327236832	0.76123046875	0.12060546875	0.20703125	1.0	23.375	28.9375
18	12	13	20	05	35	-0.239422033272	-0.589247955962	0.0892873909449	0.74365234375	0.05712890625	0.21630859375	5.125	18.8125	30.875
18	12	13	20	05	35	-0.23283986833	-0.587317969315	0.0902674089802	0.744140625	-0.00830078125	0.2294921875	19.4375	15.125	30.0
18	12	13	20	05	35	-0.224116885474	-0.586780974113	0.0885603488078	0.76806640625	-0.04736328125	0.2353515625	40.625	11.25	27.5
18	12	13	20	05	35	-0.213555544341	-0.587689721766	0.0840428649778	0.80224609375	-0.0517578125	0.228515625	61.125	7.5	24.625
18	12	13	20	05	35	-0.201837001485	-0.589764422542	0.0773291445059	0.837890625	-0.02685546875	0.20361328125	75.0	4.5	22.5
18	12	13	20	05	35	-0.19036391379	-0.592575581592	0.0697614470862	0.86962890625	0.01220703125	0.18017578125	77.8125	1.75	19.625
18	12	13	20	05	35	-0.180105341708	-0.595549957433	0.0626798325767	0.8984375	0.05810546875	0.1748046875	70.1875	-0.8125	18.0
18	12	13	20	05	35	-0.171385341597	-0.59838386361	0.0571894818648	0.9150390625	0.087890625	0.1787109375	56.9375	-3.5	17.875
18	12	13	20	05	35	-0.164664325518	-0.601104129737	0.0537691885774	0.931640625	0.09765625	0.16943359375	40.25	-6.125	16.375
18	12	13	20	05	35	-0.159601530603	-0.603678294146	0.0523663913029	0.93994140625	0.0966796875	0.16259765625	25.4375	-7.875	15.375
18	12	13	20	05	35	-0.155382864877	-0.606029791135	0.0520587524509	0.94189453125	0.08349609375	0.16845703125	17.375	-8.9375	14.8125
18	12	13	20	05	35	-0.15184772568	-0.60830638338	0.0519993015591	0.9462890625	0.08154296875	0.17041015625	14.125	-9.3125	12.5625
18	12	13	20	05	35	-0.148674074894	-0.610442568591	0.0516331146798	0.95068359375	0.08740234375	0.1796875	13.8125	-9.5	10.5
18	12	13	20	05	35	-0.145686039244	-0.612589348928	0.0510236819472	0.9599609375	0.08642578125	0.19677734375	14.625	-10.75	8.75
18	12	13	20	05	35	-0.143240680961	-0.614952322693	0.0502288369964	0.98095703125	0.08203125	0.20458984375	13.5	-12.8125	4.875
18	12	13	20	05	35	-0.141594060629	-0.61739892988	0.049191729684	1.00732421875	0.0791015625	0.23095703125	12.375	-15.375	0.125
18	12	13	20	05	36	-0.140315288692	-0.620219209957	0.0477279494378	1.03857421875	0.06787109375	0.26416015625	13.4375	-19.8125	-4.75
18	12	13	20	05	36	-0.139882284131	-0.623672365419	0.0457729987341	1.07958984375	0.07421875	0.27392578125	13.1875	-25.125	-10.875
