18	11	28	12	29	56	-0.253958549302	-0.699499863868	-0.134944088562	0.2041015625	1.166015625	0.3076171875	33.25	39.0	38.0
18	11	28	12	29	56	-0.273734268157	-0.70133343933	-0.121700363591	0.1044921875	1.2421875	0.4208984375	-30.75	8.875	118.0
18	11	28	12	29	56	-0.310238253436	-0.699516156331	-0.105467578583	-0.19482421875	1.16015625	0.4931640625	-95.5625	-2.4375	199.75
18	11	28	12	29	56	-0.360698274778	-0.69460356434	-0.0831864210698	-0.52978515625	0.91552734375	0.7490234375	-137.0	-3.3125	291.3125
18	11	28	12	29	56	-0.411055865888	-0.690586061251	-0.0483379726479	-0.78271484375	1.111328125	0.78466796875	-91.6875	-4.5625	354.9375
18	11	28	12	29	56	-0.458056170191	-0.683635864398	-0.00946018739235	-1.36669921875	1.49609375	0.7080078125	-71.75	-20.875	365.5625
18	11	28	12	29	56	-0.501758454015	-0.670333669924	0.0238031622754	-2.50537109375	1.95361328125	0.42431640625	-99.375	-47.125	329.6875
18	11	28	12	29	56	-0.556612599691	-0.638761783812	0.0436989716424	-2.9716796875	1.55859375	0.1611328125	-237.1875	-84.4375	301.4375
18	11	28	12	29	56	-0.606255517457	-0.600640345041	0.0443720689813	-3.07177734375	0.38330078125	-0.2431640625	-299.625	-68.625	195.0
18	11	28	12	29	56	-0.638719497532	-0.576281843831	0.0338127665201	-2.3828125	-0.505859375	-0.685546875	-225.0625	8.9375	103.25
18	11	28	12	29	56	-0.638274324804	-0.583589509827	0.0184927443503	-1.58642578125	-1.0224609375	-1.13720703125	-15.1875	100.5625	-27.4375
18	11	28	12	29	56	-0.614551218683	-0.601673047351	-0.00958233601482	-1.30859375	-0.75048828125	-1.43798828125	64.0	123.75	-195.125
18	11	28	12	29	56	-0.587338290248	-0.604794255229	-0.0504147799797	-1.0234375	-0.3486328125	-1.57373046875	-13.4375	67.0	-309.6875
18	11	28	12	29	56	-0.556998381493	-0.597403041645	-0.102293369207	-0.67041015625	-0.4833984375	-1.0673828125	-78.625	31.9375	-371.5625
18	11	28	12	29	56	-0.5241466523	-0.588902078253	-0.153496603462	-0.47802734375	-0.53759765625	-0.244140625	-64.9375	53.9375	-365.625
18	11	28	12	29	56	-0.475945874589	-0.598258715404	-0.193478894902	-0.70556640625	-1.02392578125	-0.21240234375	74.1875	123.5	-329.4375
18	11	28	12	29	56	-0.424556566806	-0.626336901749	-0.20159723119	-1.4951171875	-0.04541015625	-0.17431640625	231.1875	147.5	-189.5
18	11	28	12	29	56	-0.385436122922	-0.652647420808	-0.188354057852	-1.26416015625	0.7099609375	0.00146484375	253.875	96.25	-73.75
18	11	28	12	29	56	-0.364374253719	-0.674244954913	-0.163022383866	-0.66650390625	1.099609375	-0.0380859375	212.8125	55.375	34.625
18	11	28	12	29	56	-0.354555337298	-0.691410373715	-0.131714652761	-0.48193359375	1.25	-0.21435546875	178.375	24.25	96.5625
18	11	28	12	29	56	-0.361997766703	-0.698055717044	-0.107726531484	-0.99365234375	1.19140625	0.029296875	63.6875	-0.0625	88.8125
18	11	28	12	29	56	-0.378044231097	-0.694932453224	-0.0919781492191	-1.60693359375	1.185546875	0.3447265625	-9.5	-17.9375	94.5625
18	11	28	12	29	56	-0.397152167272	-0.689141712106	-0.0797722272361	-1.50146484375	0.88720703125	0.61181640625	-44.375	-32.875	118.0625
18	11	28	12	29	56	-0.408317105424	-0.684861919276	-0.062010490151	-1.5126953125	0.36767578125	0.60302734375	11.75	-50.5625	115.125
18	11	28	12	29	56	-0.409351793621	-0.683453315189	-0.0364980427293	-1.1162109375	0.6708984375	0.50390625	96.375	-50.875	96.625
18	11	28	12	29	56	-0.400881955788	-0.691289438376	-0.0162354750669	-1.21484375	0.8955078125	0.16357421875	122.1875	-7.875	55.5
18	11	28	12	29	56	-0.39085613902	-0.696204868488	-0.00396715319117	-1.13525390625	0.708984375	0.08251953125	94.625	-12.3125	13.0
18	11	28	12	29	56	-0.382124781519	-0.697357890695	0.00872765432954	-0.8955078125	0.77978515625	0.35107421875	93.5625	-21.625	-0.375
18	11	28	12	29	56	-0.384760959486	-0.695487172168	0.0203854949982	-0.24072265625	1.029296875	0.6533203125	49.0	5.0	5.5
18	11	28	12	29	56	-0.399537786422	-0.687075597579	0.0192261537921	-0.06640625	0.611328125	0.8447265625	-50.4375	22.1875	14.6875
18	11	28	12	29	56	-0.411606511048	-0.680151684329	0.00134272586641	0.12255859375	0.240234375	0.99609375	-116.125	32.375	-32.75
18	11	28	12	29	56	-0.419422186316	-0.675213569152	-0.0139156371479	0.1845703125	0.18994140625	0.89892578125	-62.1875	70.875	-51.0625
18	11	28	12	29	56	-0.418573208204	-0.682668610931	-0.0326533488465	-0.029296875	0.34375	0.50927734375	-40.5	111.0	-59.375
18	11	28	12	29	56	-0.423389019752	-0.686504208472	-0.0540756337755	-0.349609375	0.740234375	0.1630859375	-84.125	102.5625	-51.75
18	11	28	12	29	56	-0.433033952908	-0.681746195065	-0.0808696247503	-1.0166015625	1.07666015625	-0.2236328125	-144.375	59.5625	-70.625
18	11	28	12	29	56	-0.446891874238	-0.665943354249	-0.114622089568	-2.07373046875	0.8271484375	-0.37158203125	-210.1875	7.25	-94.0625
18	11	28	12	29	56	-0.469291563868	-0.642689578297	-0.143308179472	-2.294921875	0.44140625	-0.67529296875	-240.0625	-27.5	-54.8125
18	11	28	12	29	56	-0.483393255783	-0.62725157698	-0.163633499843	-1.8955078125	0.09326171875	-0.6015625	-166.75	-23.0625	-27.3125
18	11	28	12	29	56	-0.472098566633	-0.630848194533	-0.17779225916	-1.8359375	0.01953125	-0.89697265625	-21.5625	-18.9375	-39.6875
18	11	28	12	29	56	-0.455624135864	-0.641902081297	-0.182737932053	-1.66650390625	0.3662109375	-1.00390625	42.0625	-10.0625	-41.75
18	11	28	12	29	56	-0.443406877007	-0.648478743042	-0.18700601117	-1.2978515625	0.349609375	-0.88720703125	23.5	-23.1875	-43.25
18	11	28	12	29	56	-0.435404128647	-0.649688386522	-0.190603741767	-0.78955078125	0.00732421875	-0.72802734375	6.625	-43.0625	-29.9375
18	11	28	12	29	57	-0.428875946345	-0.648349107447	-0.186393502226	-0.43505859375	-0.34619140625	-0.4765625	34.125	-70.0	5.6875
18	11	28	12	29	57	-0.421684758001	-0.645496888207	-0.173458978469	-0.123046875	-0.51513671875	-0.22314453125	75.3125	-93.6875	26.5
18	11	28	12	29	57	-0.411990998934	-0.64636810055	-0.150086795019	0.1015625	-0.54541015625	-0.056640625	132.1875	-88.125	33.0
18	11	28	12	29	57	-0.396787234531	-0.653804777156	-0.120726834318	0.1279296875	-0.3818359375	0.05810546875	187.375	-59.6875	46.0
18	11	28	12	29	57	-0.381406862775	-0.662106200573	-0.0881953779341	-0.1025390625	-0.1416015625	0.046875	199.375	-56.0625	60.875
18	11	28	12	29	57	-0.375183020211	-0.66387924367	-0.0540771361489	-0.5029296875	0.21044921875	0.025390625	155.125	-86.875	95.6875
18	11	28	12	29	57	-0.374877970187	-0.658752512574	-0.0166625994564	-1.056640625	0.7783203125	-0.080078125	128.25	-131.4375	120.375
18	11	28	12	29	57	-0.380243683202	-0.644522198172	0.0183102897208	-1.83984375	1.16064453125	-0.2392578125	75.75	-179.375	126.25
18	11	28	12	29	57	-0.403744077453	-0.615961485964	0.0435787258203	-1.85498046875	1.193359375	0.0869140625	-58.4375	-212.0	161.1875
18	11	28	12	29	57	-0.426561996272	-0.590924774346	0.0625591710085	-1.38232421875	0.591796875	0.59375	-63.8125	-158.5625	152.125
18	11	28	12	29	57	-0.438405811611	-0.583483162884	0.0910624350443	-0.95703125	0.48779296875	0.94482421875	62.3125	-73.125	160.8125
18	11	28	12	29	57	-0.435417966954	-0.594534120564	0.123472182107	-0.759765625	0.71240234375	0.7294921875	175.375	8.375	124.3125
18	11	28	12	29	57	-0.427616403484	-0.612371592371	0.147462350959	-0.4765625	1.1181640625	0.5478515625	176.8125	62.75	72.75
18	11	28	12	29	57	-0.41607258215	-0.632134917606	0.159056058249	-0.31787109375	1.35546875	0.27734375	143.8125	88.375	4.6875
18	11	28	12	29	57	-0.407228190291	-0.645144180362	0.161804845992	-0.0693359375	0.97900390625	0.1494140625	79.625	69.0	-57.5625
18	11	28	12	29	57	-0.400760162239	-0.654302305697	0.156861653511	0.146484375	0.78662109375	0.2607421875	39.0625	67.25	-85.625
18	11	28	12	29	57	-0.3947026911	-0.663615642543	0.149409647103	0.24365234375	0.51318359375	0.35205078125	35.5625	78.6875	-85.125
18	11	28	12	29	57	-0.390550992302	-0.67075408742	0.140254130381	0.3466796875	0.27294921875	0.60986328125	29.875	84.875	-79.3125
18	11	28	12	29	57	-0.381959181003	-0.684145167763	0.128723539906	0.3857421875	0.263671875	0.7587890625	36.625	102.3125	-78.0
18	11	28	12	29	57	-0.376164232099	-0.697823408338	0.120362788528	0.1953125	0.37255859375	0.5498046875	37.375	108.8125	-47.4375
18	11	28	12	29	57	-0.383668856685	-0.703311523319	0.11541804136	-0.103515625	0.95068359375	0.1220703125	-21.8125	82.3125	-20.0625
18	11	28	12	29	57	-0.406134797873	-0.699718864264	0.102479760389	-0.7119140625	1.4697265625	-0.07568359375	-137.375	63.9375	34.5625
18	11	28	12	29	57	-0.447867731221	-0.683947369319	0.0920393211613	-1.4775390625	1.91259765625	-0.27099609375	-237.8125	32.9375	125.0625
18	11	28	12	29	57	-0.503723629611	-0.655213033306	0.0847168784563	-1.544921875	1.21533203125	-0.04345703125	-314.0625	-2.3125	206.3125
18	11	28	12	29	57	-0.542039764486	-0.635665369566	0.0915504612913	-1.69775390625	1.279296875	0.2509765625	-171.8125	-10.9375	210.0625
18	11	28	12	29	57	-0.568705567701	-0.624672835954	0.106014334739	-2.1435546875	1.17578125	0.1318359375	-77.375	-1.6875	195.625
18	11	28	12	29	57	-0.591109773521	-0.615340086385	0.118160921171	-2.271484375	1.52685546875	-0.2001953125	-64.0	5.25	170.5
18	11	28	12	29	57	-0.610522391026	-0.601123165972	0.118955127473	-2.0224609375	1.041015625	-0.62255859375	-110.375	-9.125	89.6875
18	11	28	12	29	57	-0.620898978879	-0.589161293927	0.113340155685	-1.4208984375	0.642578125	-0.90380859375	-95.5	-17.125	9.3125
18	11	28	12	29	57	-0.610831601854	-0.594840606681	0.0965563143618	-0.97705078125	0.162109375	-0.82177734375	-51.0	-6.8125	-71.125
18	11	28	12	29	57	-0.597462156253	-0.601612470547	0.0721422278773	-0.93505859375	0.0087890625	-0.6640625	-18.4375	47.875	-154.4375
18	11	28	12	29	57	-0.582196019222	-0.609599941293	0.0402819344466	-0.68017578125	-0.6640625	-0.6435546875	-26.1875	78.8125	-182.1875
18	11	28	12	29	57	-0.561766369567	-0.61736927729	0.0108031994148	-0.29052734375	-0.7138671875	-0.4189453125	1.25	62.375	-202.8125
18	11	28	12	29	57	-0.530626255226	-0.628585208486	-0.0151973703188	0.0654296875	-0.3916015625	-0.33984375	60.4375	50.3125	-244.3125
18	11	28	12	29	57	-0.495837882945	-0.636947826984	-0.0437001383787	0.33740234375	-0.30224609375	-0.13671875	59.5	42.875	-276.6875
18	11	28	12	29	57	-0.45543239869	-0.645368826555	-0.0751933416224	0.3125	-0.24365234375	0.01806640625	70.9375	56.4375	-305.1875
18	11	28	12	29	57	-0.413514194907	-0.651918098274	-0.106750749357	-0.32470703125	-0.2373046875	-0.001953125	70.4375	56.0625	-301.3125
18	11	28	12	29	57	-0.37249419356	-0.65636614084	-0.124144386318	-1.3212890625	0.02587890625	-0.111328125	111.5	12.0	-244.75
18	11	28	12	29	57	-0.344603795754	-0.65429555269	-0.125732167774	-2.42431640625	0.6806640625	-0.1796875	106.5625	-48.75	-147.125
18	11	28	12	29	57	-0.336966058388	-0.643293290239	-0.12670558544	-1.8125	0.609375	0.22705078125	12.0	-90.875	-76.6875
18	11	28	12	29	57	-0.326107327747	-0.639153272725	-0.122496239339	-2.4599609375	0.193359375	0.47119140625	55.4375	-53.3125	-48.6875
18	11	28	12	29	57	-0.318605254434	-0.639590892953	-0.104614828755	-1.7978515625	-0.04833984375	0.693359375	105.9375	-42.0	34.0
18	11	28	12	29	57	-0.304137737758	-0.648924829991	-0.0768431490743	-1.58837890625	0.501953125	0.6328125	182.875	-4.0	47.4375
18	11	28	12	29	57	-0.28661629862	-0.658863488841	-0.0501090249503	-1.37890625	0.75634765625	0.4091796875	189.375	2.3125	28.25
18	11	28	12	29	57	-0.273002971157	-0.665570623846	-0.0329581051698	-1.189453125	1.2470703125	0.1171875	128.9375	1.75	-1.375
18	11	28	12	29	57	-0.27013779158	-0.66625036893	-0.0266109528081	-0.81787109375	1.078125	-0.06640625	27.375	-20.0625	-41.3125
18	11	28	12	29	57	-0.269711956626	-0.662530728485	-0.0321042066498	-0.5107421875	0.74951171875	0.041015625	-30.6875	-20.9375	-67.0625
18	11	28	12	29	57	-0.265864148454	-0.660937296513	-0.0369866101844	-0.18408203125	0.69287109375	0.17919921875	-8.875	1.4375	-80.1875
18	11	28	12	29	57	-0.253475556872	-0.664053469484	-0.0379633509209	0.03076171875	0.546875	0.24365234375	48.5	27.125	-91.375
18	11	28	12	29	57	-0.233398923974	-0.668275318669	-0.0357666761111	-0.02001953125	0.33984375	0.33447265625	95.9375	28.875	-98.125
18	11	28	12	29	58	-0.208374117364	-0.673034971346	-0.0292968882059	-0.0693359375	0.2783203125	0.4853515625	130.6875	9.75	-84.3125
18	11	28	12	29	58	-0.183837383154	-0.675840419542	-0.0166015166726	0.04052734375	0.50634765625	0.6298828125	152.0625	-6.0625	-64.1875
18	11	28	12	29	58	-0.162963518417	-0.67858741489	-0.00640867769055	0.1630859375	0.5537109375	0.41748046875	126.5625	-0.5625	-58.0625
18	11	28	12	29	58	-0.157409021177	-0.675656403424	-0.00238036131288	-0.0888671875	0.48828125	0.31201171875	37.25	-10.6875	-42.75
18	11	28	12	29	58	-0.167051297226	-0.668144154451	-0.00335689490224	-0.3525390625	0.66455078125	0.34228515625	-47.5	-28.4375	-7.875
18	11	28	12	29	58	-0.185488242458	-0.661568627838	-0.00378422870431	-0.69091796875	1.0087890625	0.07275390625	-85.9375	-35.25	16.4375
18	11	28	12	29	58	-0.20983781384	-0.64812907073	-0.0210570232039	-1.7421875	0.6669921875	0.0654296875	-179.9375	-61.6875	26.5
18	11	28	12	29	58	-0.247193181665	-0.629640706681	-0.0401612626014	-3.11767578125	0.18994140625	0.32421875	-241.125	-73.0	79.125
18	11	28	12	29	58	-0.286495698881	-0.611259996653	-0.0497430751146	-2.78662109375	-0.671875	0.345703125	-208.1875	-75.375	125.75
18	11	28	12	29	58	-0.325802003543	-0.597283328338	-0.0513910241631	-2.80224609375	-0.66552734375	0.44873046875	-169.125	-49.8125	164.8125
18	11	28	12	29	58	-0.363342363662	-0.586609013466	-0.0510864368193	-2.68603515625	-0.302734375	0.17919921875	-150.0	-25.3125	171.875
18	11	28	12	29	58	-0.395124623675	-0.577245704466	-0.0572485166832	-2.5556640625	0.1064453125	-0.29931640625	-154.5625	-2.6875	128.4375
18	11	28	12	29	58	-0.422051232375	-0.567678743648	-0.0712268674161	-1.92822265625	-0.05810546875	-0.640625	-174.5625	-7.125	95.25
18	11	28	12	29	58	-0.438838230352	-0.558343829105	-0.0807486757658	-1.619140625	-0.59765625	-0.9326171875	-117.25	-8.6875	42.0
18	11	28	12	29	58	-0.447320549513	-0.557670604571	-0.0815418548437	-1.0166015625	-0.7705078125	-0.8212890625	-34.3125	11.25	43.5625
18	11	28	12	29	58	-0.438787770858	-0.575264256549	-0.0854503935458	-0.404296875	-0.7509765625	-0.78076171875	49.25	58.5625	40.6875
18	11	28	12	29	58	-0.424308659443	-0.59380019386	-0.0751939396481	0.14111328125	-0.6640625	-0.72021484375	130.25	62.0	8.5
18	11	28	12	29	58	-0.400249594996	-0.608857877354	-0.0645721365517	0.52783203125	-0.41552734375	-0.52880859375	159.1875	29.1875	-54.25
18	11	28	12	29	58	-0.366393140757	-0.620237730531	-0.053405630212	0.68212890625	-0.23876953125	-0.21044921875	190.9375	-2.875	-112.4375
18	11	28	12	29	58	-0.328670032901	-0.630607015773	-0.0427240525591	0.630859375	-0.1103515625	0.05029296875	202.1875	-3.3125	-131.75
18	11	28	12	29	58	-0.293568848968	-0.638161306613	-0.0354601873701	0.2490234375	0.1064453125	0.04833984375	172.3125	-5.9375	-133.25
18	11	28	12	29	58	-0.262988333326	-0.640473327901	-0.0355818515501	-0.193359375	0.4912109375	0.0693359375	116.4375	-19.375	-148.3125
18	11	28	12	29	58	-0.233215479727	-0.638122962717	-0.0491333318974	-0.95751953125	0.63818359375	0.13232421875	50.375	-25.9375	-197.25
18	11	28	12	29	58	-0.214899350607	-0.630477220042	-0.0833719150607	-3.25634765625	0.125	0.44482421875	-84.375	-14.375	-216.8125
18	11	28	12	29	58	-0.225888328776	-0.622306782006	-0.0971057365801	-2.61767578125	-0.72021484375	0.70849609375	-107.125	-30.125	-9.0
18	11	28	12	29	58	-0.234126058468	-0.623644438328	-0.100217671534	-1.95458984375	-0.880859375	0.98193359375	-43.0625	19.375	29.8125
18	11	28	12	29	58	-0.227241293216	-0.634969426088	-0.0820339237395	-2.10009765625	-0.31298828125	0.82568359375	117.0	53.6875	60.9375
18	11	28	12	29	58	-0.215632596976	-0.650620855863	-0.0526111799019	-1.7294921875	0.33740234375	0.54736328125	183.875	65.125	76.0625
18	11	28	12	29	58	-0.203495132894	-0.663892189709	-0.0262456230187	-1.29931640625	1.072265625	0.27880859375	168.25	55.375	47.6875
18	11	28	12	29	58	-0.193175775142	-0.671995350494	-0.0103149150076	-0.77490234375	1.18505859375	0.00927734375	111.75	31.75	7.875
18	11	28	12	29	58	-0.193786646361	-0.676269619426	-0.00457763731561	-0.31103515625	0.77783203125	0.00048828125	20.6875	25.375	-17.0625
18	11	28	12	29	58	-0.194152634939	-0.681395792662	-0.00305175471454	-0.05810546875	0.64599609375	0.06298828125	7.9375	42.625	-28.8125
18	11	28	12	29	58	-0.189695619795	-0.68877576235	0.00469966625618	0.0517578125	0.7431640625	0.0771484375	55.1875	50.3125	-31.375
18	11	28	12	29	58	-0.180844517659	-0.693410248101	0.0150754626601	-0.0390625	0.6484375	0.2265625	83.75	32.1875	-34.3125
18	11	28	12	29	58	-0.169492826872	-0.696953039268	0.0283810459112	-0.259765625	0.38427734375	0.443359375	104.1875	11.0625	3.375
18	11	28	12	29	58	-0.165770955449	-0.698606169391	0.0528562766637	-0.42041015625	0.59228515625	0.57666015625	117.0625	0.4375	77.4375
18	11	28	12	29	58	-0.178648064864	-0.695671555626	0.0812369574082	-0.6552734375	0.7470703125	0.79345703125	63.875	-9.75	160.5
18	11	28	12	29	58	-0.207214729858	-0.68811159482	0.112549031475	-0.73046875	0.90478515625	0.904296875	10.5	-15.75	238.375
18	11	28	12	29	58	-0.244687471167	-0.677300291231	0.144346687281	-0.9853515625	1.41455078125	0.6259765625	-26.4375	-17.75	276.875
18	11	28	12	29	58	-0.290767202548	-0.659597220389	0.162595261878	-1.82861328125	1.119140625	0.50927734375	-125.1875	-32.5	275.625
18	11	28	12	29	58	-0.339344935314	-0.63614968719	0.172968263791	-2.6943359375	1.1240234375	0.33056640625	-180.5	-52.0625	253.5
18	11	28	12	29	58	-0.390972318594	-0.605988784158	0.178153012484	-2.5478515625	0.65478515625	0.1865234375	-225.5625	-69.5	250.625
18	11	28	12	29	58	-0.438232652064	-0.576782529527	0.179626559195	-2.43505859375	0.37939453125	-0.07763671875	-220.4375	-53.75	225.125
18	11	28	12	29	58	-0.471444107872	-0.555735189303	0.183413975163	-2.21875	-0.03759765625	-0.41650390625	-142.1875	-36.25	175.6875
18	11	28	12	29	58	-0.496570137667	-0.543382981274	0.187312408124	-1.669921875	0.052734375	-0.56201171875	-89.0	-1.375	145.5
18	11	28	12	29	58	-0.500197706209	-0.55519198727	0.17822785871	-1.33984375	0.2255859375	-0.7158203125	-43.3125	49.1875	67.5625
18	11	28	12	29	58	-0.496579454342	-0.573056108262	0.159911279545	-1.19921875	-0.03125	-0.69580078125	-32.0	88.9375	-0.3125
18	11	28	12	29	58	-0.490042350888	-0.590748525874	0.139096589572	-0.96630859375	-0.1689453125	-0.67236328125	-29.1875	92.8125	-32.25
18	11	28	12	29	58	-0.48150479876	-0.606016116984	0.119933696231	-0.6875	-0.23681640625	-0.52783203125	-16.0	81.125	-50.8125
18	11	28	12	29	58	-0.4692328991	-0.621391798353	0.105101333539	-0.47900390625	-0.30517578125	-0.3427734375	22.0625	75.4375	-59.625
18	11	28	12	29	59	-0.451965748748	-0.638184182162	0.0958252836643	-0.380859375	-0.45263671875	-0.16455078125	73.25	71.3125	-57.1875
18	11	28	12	29	59	-0.4348192689	-0.655097587466	0.0972911165956	-0.259765625	-0.490234375	0.06396484375	116.5625	67.0	-40.8125
18	11	28	12	29	59	-0.412223851576	-0.674365018665	0.109739189389	-0.17724609375	-0.37255859375	0.0478515625	181.5	52.3125	-17.875
18	11	28	12	29	59	-0.389905795484	-0.689842720815	0.128361284894	-0.111328125	-0.23828125	-0.12060546875	189.875	18.1875	4.5
18	11	28	12	29	59	-0.37358762267	-0.698226172741	0.143551394955	-0.1865234375	-0.021484375	-0.22314453125	134.375	-9.0	6.6875
18	11	28	12	29	59	-0.356611113609	-0.700832691695	0.156303450617	-0.36962890625	0.1640625	-0.26416015625	110.625	-52.25	-15.5625
18	11	28	12	29	59	-0.336540983167	-0.697556564493	0.166256372533	-0.53759765625	0.37353515625	-0.19140625	94.5	-102.5	-50.375
18	11	28	12	29	59	-0.319709779341	-0.686356714144	0.168033795824	-0.90185546875	0.7548828125	-0.205078125	29.6875	-145.0	-81.4375
18	11	28	12	29	59	-0.305721424722	-0.671683824929	0.154661227839	-1.45751953125	0.97509765625	-0.0341796875	-46.4375	-144.625	-133.625
18	11	28	12	29	59	-0.286987322862	-0.66162113565	0.140808114386	-2.11767578125	0.3359375	0.4990234375	-12.3125	-108.75	-136.5625
18	11	28	12	29	59	-0.257318784577	-0.663560205389	0.154720853629	-1.99462890625	-0.03173828125	0.6083984375	170.0625	-60.0625	-55.5
18	11	28	12	29	59	-0.216126525699	-0.673953430321	0.188904715345	-1.7998046875	0.79931640625	0.3310546875	313.0625	-25.25	-28.6875
18	11	28	12	29	59	-0.174495043694	-0.68412554906	0.217950962235	-1.66455078125	1.544921875	0.05419921875	296.0625	-12.5	-59.9375
18	11	28	12	29	59	-0.144105714812	-0.68756919837	0.234988141476	-1.14697265625	1.47119140625	-0.0302734375	192.25	-32.9375	-64.5
18	11	28	12	29	59	-0.121460223373	-0.687379414888	0.246338422881	-0.49853515625	1.0673828125	-0.033203125	132.9375	-42.375	-54.25
18	11	28	12	29	59	-0.1007082588	-0.686830325015	0.260010413629	-0.0322265625	0.87255859375	-0.0791015625	136.0625	-37.25	-37.625
18	11	28	12	29	59	-0.0766602406394	-0.686768334136	0.276794738296	0.2177734375	0.83251953125	-0.02880859375	165.875	-32.8125	-38.625
18	11	28	12	29	59	-0.0492551693471	-0.68664269536	0.296568609489	0.3359375	0.76025390625	-0.00732421875	194.375	-30.125	-38.5625
18	11	28	12	29	59	-0.0206303153509	-0.684584665607	0.318366049912	0.388671875	0.69970703125	-0.02001953125	207.375	-37.75	-31.3125
18	11	28	12	29	59	0.00598149168317	-0.678533092263	0.340334669647	0.396484375	0.591796875	0.13330078125	197.0625	-55.0	-13.875
18	11	28	12	29	59	0.0260019750167	-0.669398262929	0.361342000232	0.3564453125	0.49365234375	0.50439453125	166.3125	-56.3125	14.4375
18	11	28	12	29	59	0.0406496983012	-0.659428439109	0.385927991529	0.24072265625	0.50439453125	0.658203125	165.25	-35.8125	50.5625
18	11	28	12	29	59	0.04724210225	-0.645947245623	0.414985856845	0.009765625	0.6552734375	0.708984375	153.6875	-28.375	105.0
18	11	28	12	29	59	0.0401006663005	-0.625008862887	0.447821291699	-0.17724609375	0.94677734375	0.7373046875	110.8125	-35.9375	185.5625
18	11	28	12	29	59	0.0231323999666	-0.598634772751	0.48419348004	-0.4912109375	1.7783203125	0.4765625	89.8125	-34.375	241.0
18	11	28	12	29	59	-0.00390643483699	-0.57046156229	0.512170229956	-1.2275390625	2.248046875	0.3916015625	1.3125	-39.25	273.6875
18	11	28	12	29	59	-0.047181762797	-0.534991139607	0.531023721001	-2.154296875	2.78955078125	0.44091796875	-112.375	-47.5625	325.0
18	11	28	12	29	59	-0.0895425579912	-0.496298935942	0.547143483186	-1.8671875	1.95947265625	0.6787109375	-118.5625	-59.6875	323.75
18	11	28	12	29	59	-0.131349715796	-0.457343596869	0.567513781355	-1.83837890625	1.77880859375	0.77392578125	-73.25	-39.5625	338.5625
18	11	28	12	29	59	-0.171022962616	-0.424749749052	0.583565505199	-1.46923828125	2.00927734375	0.44384765625	-62.6875	-5.3125	302.1875
18	11	28	12	29	59	-0.199893246817	-0.403143479458	0.587594591483	-1.75244140625	2.1845703125	-0.1962890625	-81.875	5.125	190.9375
18	11	28	12	29	59	-0.216924404544	-0.388925803532	0.577223999373	-1.630859375	1.2041015625	-0.3037109375	-141.5	-15.0625	97.3125
18	11	28	12	29	59	-0.219248026669	-0.393816332981	0.563684723354	-1.3623046875	0.59033203125	-0.15087890625	-89.9375	19.125	32.0625
18	11	28	12	29	59	-0.212961666443	-0.413715728045	0.550868168429	-1.30615234375	0.16455078125	-0.2392578125	-29.1875	63.375	-37.125
18	11	28	12	29	59	-0.199406478259	-0.444224165525	0.53950225324	-1.06689453125	-0.58544921875	-0.3525390625	22.6875	95.0625	-86.75
18	11	28	12	29	59	-0.185554442895	-0.472431377635	0.541648067847	-0.82666015625	-1.04150390625	-0.36767578125	122.125	106.1875	-96.375
18	11	28	12	29	59	-0.158694907579	-0.502391455495	0.553417971932	-0.57275390625	-0.90283203125	-0.65576171875	216.0625	81.9375	-121.9375
18	11	28	12	29	59	-0.118530575245	-0.52856579898	0.565797339093	-0.396484375	-0.58984375	-0.94580078125	244.0625	18.6875	-164.0625
18	11	28	12	29	59	-0.0738517421841	-0.544305650246	0.570489449748	-0.18359375	-0.37255859375	-0.9482421875	184.3125	-66.9375	-183.0
18	11	28	12	29	59	-0.0292364020637	-0.55170738675	0.562815998808	-0.03759765625	-0.072265625	-0.654296875	93.0	-137.0625	-205.25
18	11	28	12	29	59	0.0168460949504	-0.555860096786	0.544446257091	0.00439453125	0.08447265625	-0.40283203125	34.625	-177.4375	-237.8125
18	11	28	12	29	59	0.0667749196867	-0.560689590715	0.518817931752	-0.20849609375	0.220703125	-0.345703125	20.0625	-189.4375	-276.4375
18	11	28	12	29	59	0.121890278672	-0.569655468624	0.49012465585	-0.83837890625	0.44189453125	-0.09912109375	48.8125	-162.9375	-319.0625
18	11	28	12	29	59	0.179936015482	-0.577955946607	0.470165239911	-2.71240234375	0.30078125	0.04833984375	126.9375	-126.125	-309.0
18	11	28	12	29	59	0.231575017262	-0.56898848469	0.472061461124	-2.96044921875	0.638671875	0.044921875	214.1875	-137.375	-170.0625
18	11	28	12	29	59	0.280036256258	-0.553480551819	0.487988201565	-2.4677734375	0.86865234375	0.09130859375	286.0625	-107.0625	-106.125
18	11	28	12	29	59	0.32307235673	-0.535300315232	0.512838454798	-1.96240234375	1.20947265625	0.12060546875	328.6875	-56.8125	-74.4375
18	11	28	12	29	59	0.356464246005	-0.523648418917	0.533109370652	-1.5478515625	1.97216796875	-0.05078125	273.25	-15.5625	-67.0625
18	11	28	12	29	59	0.377454473619	-0.519121975765	0.538653901955	-1.130859375	1.7099609375	-0.0439453125	139.5	-19.875	-92.6875
18	11	28	12	29	59	0.390401464547	-0.513271719102	0.541288334522	-0.53662109375	1.04541015625	0.05029296875	88.0	-25.75	-92.5625
18	11	28	12	30	00	0.410766211356	-0.506652350738	0.54785104207	-0.05517578125	0.6923828125	-0.01904296875	145.0625	-22.75	-69.75
18	11	28	12	30	00	0.434575721348	-0.494574026697	0.560981103217	0.18505859375	0.74169921875	-0.166015625	207.1875	-19.0625	-60.5
18	11	28	12	30	00	0.459064342739	-0.480183377786	0.575402148518	0.28369140625	0.89794921875	-0.17919921875	228.0625	-17.0625	-61.125
18	11	28	12	30	00	0.483120404718	-0.461390668259	0.590975585405	0.30126953125	0.875	-0.13037109375	242.1875	-23.25	-41.6875
18	11	28	12	30	00	0.507294065099	-0.436977284568	0.605932882233	0.17822265625	0.79931640625	-0.0517578125	248.625	-44.6875	-17.0625
18	11	28	12	30	00	0.529688883782	-0.410176227128	0.618011056499	0.1474609375	0.7607421875	0.17431640625	228.625	-60.0625	2.5
18	11	28	12	30	00	0.547861053981	-0.383490530544	0.629832688951	0.216796875	0.5205078125	0.392578125	210.8125	-46.4375	20.8125
18	11	28	12	30	00	0.561047885943	-0.357368948237	0.642043376004	0.01025390625	0.71044921875	0.609375	190.5625	-27.0625	35.9375
18	11	28	12	30	00	0.568795871357	-0.331670432981	0.653819226738	-0.126953125	0.96728515625	0.80810546875	157.8125	-15.125	58.8125
18	11	28	12	30	00	0.566380069853	-0.311420531996	0.668803365166	-0.16259765625	1.15185546875	0.98583984375	113.875	24.8125	91.625
18	11	28	12	30	00	0.557342032145	-0.29786760671	0.683447457445	-0.8505859375	1.830078125	0.40673828125	66.125	57.25	91.0
18	11	28	12	30	00	0.535775836766	-0.295537320759	0.691357131813	-2.87060546875	2.2412109375	0.369140625	-86.5625	72.6875	127.875
18	11	28	12	30	00	0.507582494936	-0.293709351327	0.68458937749	-2.74462890625	2.134765625	0.4208984375	-250.375	4.3125	207.375
18	11	28	12	30	00	0.475108408616	-0.288153493972	0.674148557703	-2.8486328125	1.45654296875	0.41064453125	-275.3125	-6.9375	241.5
18	11	28	12	30	00	0.448998171757	-0.272658351446	0.662083084427	-3.3662109375	0.96240234375	0.14501953125	-220.3125	-54.6875	243.5625
18	11	28	12	30	00	0.427201404682	-0.253732853159	0.648828537186	-3.1259765625	0.91455078125	-0.38232421875	-184.6875	-74.8125	225.6875
18	11	28	12	30	00	0.411463369506	-0.237380365526	0.639504780049	-2.48046875	0.068359375	-1.20556640625	-118.4375	-59.25	168.25
18	11	28	12	30	00	0.393952060185	-0.226641462576	0.637318478524	-1.658203125	-1.142578125	-1.24755859375	-71.4375	-2.3125	138.8125
18	11	28	12	30	00	0.383690217805	-0.228224264138	0.645119616923	-1.24365234375	-1.31591796875	-0.98974609375	19.125	63.5625	35.875
18	11	28	12	30	00	0.384370105891	-0.237934678857	0.657952258441	-1.0419921875	-1.39599609375	-0.80224609375	90.75	83.5	-60.625
18	11	28	12	30	00	0.397414805931	-0.25751698145	0.663171842488	-0.587890625	-0.91259765625	-0.6181640625	72.0	52.1875	-143.0625
18	11	28	12	30	00	0.419329289061	-0.281445029383	0.663541295689	-0.255859375	-0.587890625	-0.50439453125	79.3125	30.3125	-215.3125
18	11	28	12	30	00	0.446975640312	-0.30524719066	0.660178687098	-0.22314453125	-0.75537109375	-0.43408203125	91.0625	5.8125	-245.625
18	11	28	12	30	00	0.480848434389	-0.316903410935	0.658038457876	-0.5146484375	-0.56591796875	-0.3603515625	155.125	-42.0625	-228.5
18	11	28	12	30	00	0.516558437395	-0.310374530799	0.663353077822	-1.45751953125	0.21728515625	-0.37060546875	252.6875	-67.3125	-176.625
18	11	28	12	30	00	0.548747259993	-0.284567266528	0.670704659934	-2.38330078125	1.26513671875	-0.6640625	280.8125	-106.5	-70.375
18	11	28	12	30	00	0.572981993247	-0.25252226548	0.670401750488	-1.6083984375	1.65576171875	-0.08935546875	185.125	-150.1875	28.5
18	11	28	12	30	00	0.59090964067	-0.217234522378	0.673250008944	-1.57861328125	1.599609375	0.1513671875	189.0	-122.125	45.3125
18	11	28	12	30	00	0.600603169246	-0.181523762738	0.677753820255	-1.03955078125	1.36376953125	0.31201171875	161.75	-90.4375	90.0625
18	11	28	12	30	00	0.606092711035	-0.148074613995	0.6841584288	-0.541015625	1.33349609375	0.21337890625	157.8125	-63.125	86.4375
18	11	28	12	30	00	0.609464512718	-0.123968194825	0.689241189545	-0.11865234375	1.09033203125	0.28857421875	122.6875	-37.8125	54.0625
18	11	28	12	30	00	0.610118488572	-0.111208071847	0.697461381444	-0.15380859375	1.04248046875	0.064453125	112.6875	9.125	-5.0625
18	11	28	12	30	00	0.608296814391	-0.106326816242	0.70430834249	-0.27001953125	0.6416015625	0.07568359375	67.9375	32.625	-38.1875
18	11	28	12	30	00	0.607135107918	-0.109439353423	0.709982464592	-0.1806640625	0.55126953125	0.00341796875	43.4375	37.8125	-75.0
18	11	28	12	30	00	0.609462519102	-0.121221087926	0.713837171847	-0.21923828125	0.3427734375	0.08740234375	36.3125	38.75	-112.5
18	11	28	12	30	00	0.615633407848	-0.135932540083	0.713966287091	-0.51806640625	-0.0107421875	0.43994140625	30.375	23.0	-133.25
18	11	28	12	30	00	0.62460276371	-0.135992862068	0.71615989706	-0.94970703125	0.15576171875	0.5048828125	113.1875	-0.3125	-99.0625
18	11	28	12	30	00	0.628883986629	-0.126350563168	0.719343665187	-1.00390625	0.224609375	0.4404296875	100.375	-2.4375	-12.875
18	11	28	12	30	00	0.627781136787	-0.109075828045	0.718789564103	-0.30419921875	0.47265625	0.54833984375	24.4375	5.875	87.875
18	11	28	12	30	00	0.624962603172	-0.0963781570864	0.716091538276	-0.00390625	0.59716796875	0.64404296875	-17.4375	13.125	78.4375
18	11	28	12	30	00	0.6244231809	-0.0965017643209	0.71347825626	-0.5244140625	0.908203125	0.47021484375	-22.875	21.3125	-24.125
18	11	28	12	30	00	0.626393187157	-0.111337085692	0.708186879497	-1.75634765625	1.01806640625	0.20263671875	-67.9375	14.0	-88.5
18	11	28	12	30	00	0.626910304071	-0.140690122762	0.69362366814	-2.869140625	1.0986328125	-0.10205078125	-210.3125	-15.4375	-59.0
18	11	28	12	30	00	0.620518605286	-0.175547069526	0.673866358682	-1.9052734375	0.38037109375	0.06640625	-306.1875	-8.5	-14.625
18	11	28	12	30	00	0.615398050523	-0.196668569608	0.669417815918	-1.8349609375	-0.208984375	-0.3447265625	-114.4375	35.0625	-42.3125
18	11	28	12	30	00	0.611237337416	-0.208872994671	0.673496383168	-1.48486328125	0.33251953125	-0.68505859375	-22.9375	16.3125	-58.0
18	11	28	12	30	00	0.605328984304	-0.224442338942	0.679064732316	-1.208984375	0.47509765625	-1.00244140625	-26.375	18.9375	-91.625
18	11	28	12	30	00	0.597623068975	-0.244579270492	0.68118409251	-0.7001953125	0.20654296875	-1.00048828125	-71.125	16.6875	-80.0
18	11	28	12	30	00	0.591706756581	-0.268141920947	0.675024243968	-0.16748046875	-0.02685546875	-0.67138671875	-121.6875	30.8125	-71.375
18	11	28	12	30	00	0.58542819884	-0.291890068487	0.672653399147	-0.03125	-0.47802734375	-0.38818359375	-85.5	44.0625	-63.375
18	11	28	12	30	01	0.587623033407	-0.308918684125	0.669171217954	-0.3125	-0.7421875	-0.0849609375	-19.125	29.6875	-63.1875
18	11	28	12	30	01	0.595605780448	-0.308972787521	0.67171978006	-0.6572265625	-0.9677734375	-0.1328125	88.3125	7.5	-8.5
18	11	28	12	30	01	0.602323175707	-0.28870983189	0.67862069999	-0.77392578125	-0.44970703125	-0.1591796875	125.25	-25.5625	57.9375
18	11	28	12	30	01	0.605076457892	-0.259109206471	0.685586479879	-0.73291015625	-0.04833984375	-0.07958984375	97.375	-48.1875	143.0625
18	11	28	12	30	01	0.605079633163	-0.229445610921	0.686688779692	-0.3994140625	0.0810546875	0.06005859375	25.5	-77.6875	188.0
18	11	28	12	30	01	0.605241633733	-0.202825529336	0.683185720691	-0.48828125	0.09619140625	0.0810546875	-5.9375	-92.8125	181.8125
18	11	28	12	30	01	0.61390814813	-0.17169652224	0.680072040809	-1.275390625	0.36962890625	-0.11474609375	81.625	-119.0	126.5
18	11	28	12	30	01	0.62815223574	-0.136605257369	0.672283424783	-2.32421875	0.73779296875	-0.31201171875	99.5	-168.4375	117.9375
18	11	28	12	30	01	0.636684343981	-0.104008256365	0.652554148356	-1.97802734375	0.9462890625	0.00732421875	-36.5	-200.75	199.625
18	11	28	12	30	01	0.643699651621	-0.0860015938871	0.627341647957	-1.416015625	0.22216796875	0.3466796875	-106.625	-177.9375	161.25
18	11	28	12	30	01	0.650048019208	-0.0643944281939	0.614646343045	-1.048828125	0.10009765625	0.720703125	12.25	-122.625	108.6875
18	11	28	12	30	01	0.652016139855	-0.0351583314507	0.622717530312	-0.740234375	0.80322265625	0.67578125	171.625	-39.625	54.5
18	11	28	12	30	01	0.65547620251	-0.0164799864678	0.631244518704	-0.67724609375	1.42822265625	0.24609375	148.625	-21.8125	-17.8125
18	11	28	12	30	01	0.662145871853	-0.00915577809531	0.629856494436	-0.34814453125	1.0322265625	0.36669921875	53.625	-28.875	-69.6875
18	11	28	12	30	01	0.669278838471	-0.00299084934657	0.632778268895	-0.01904296875	0.5537109375	0.39697265625	96.0	-4.375	-88.5
18	11	28	12	30	01	0.673860467559	0.00366228514978	0.644562186361	0.11279296875	0.427734375	0.2939453125	155.75	18.8125	-101.625
18	11	28	12	30	01	0.677836077432	0.00134285400302	0.659402354299	0.16064453125	0.4560546875	0.119140625	154.5625	49.125	-164.1875
18	11	28	12	30	01	0.678606342251	-0.00872825210847	0.674883101841	-0.0400390625	0.25390625	0.22705078125	124.625	79.4375	-181.1875
18	11	28	12	30	01	0.678370113278	-0.0209968795184	0.686549130299	-0.349609375	0.46484375	0.15185546875	84.0625	70.25	-164.6875
18	11	28	12	30	01	0.679533812007	-0.0382706997331	0.691497220536	-0.4755859375	0.638671875	0.17333984375	14.4375	45.25	-149.9375
18	11	28	12	30	01	0.680367172263	-0.0522467300132	0.689827736693	-0.556640625	0.47216796875	0.29248046875	-51.625	27.375	-79.625
18	11	28	12	30	01	0.678016321705	-0.0738566572977	0.684486409038	-0.501953125	0.29052734375	0.4833984375	-152.625	21.4375	-25.75
18	11	28	12	30	01	0.674220854654	-0.0932653871004	0.6789817841	-0.396484375	0.38525390625	0.53759765625	-152.5	23.0625	-9.375
18	11	28	12	30	01	0.673500354054	-0.106634504127	0.674782165495	-0.7197265625	0.705078125	0.28125	-84.8125	18.75	-61.6875
18	11	28	12	30	01	0.675516777253	-0.130928299196	0.666849262807	-1.71142578125	0.7919921875	-0.06494140625	-121.5625	-4.5625	-94.875
18	11	28	12	30	01	0.67178933114	-0.155037697719	0.659398523015	-3.20458984375	0.9306640625	-0.22998046875	-160.75	14.375	-38.75
18	11	28	12	30	01	0.660664259022	-0.185430341732	0.646869901803	-2.2978515625	0.2783203125	-0.1826171875	-274.0	10.25	22.9375
18	11	28	12	30	01	0.648362122251	-0.21131892932	0.636093172282	-2.498046875	-0.03515625	-0.302734375	-236.875	23.6875	23.5
18	11	28	12	30	01	0.638013073476	-0.225102096525	0.631604255652	-2.0703125	0.2890625	-0.365234375	-138.8125	18.75	32.9375
18	11	28	12	30	01	0.628646961763	-0.240496070429	0.62614433768	-1.57421875	0.76708984375	-0.56201171875	-137.625	15.5	4.8125
18	11	28	12	30	01	0.62501792291	-0.254157678808	0.618364900097	-1.2431640625	0.11181640625	-0.83154296875	-108.1875	-13.6875	-15.4375
18	11	28	12	30	01	0.623745635885	-0.263500333703	0.618740533414	-0.75	-0.474609375	-0.8193359375	-24.5625	-26.375	-4.9375
18	11	28	12	30	01	0.622414101185	-0.259476546449	0.629311501737	-0.20556640625	-0.43359375	-0.80078125	72.375	-4.375	21.3125
18	11	28	12	30	01	0.623999774578	-0.255508466828	0.639259477566	0.06787109375	-0.2783203125	-0.6083984375	93.0	4.5625	-16.375
18	11	28	12	30	01	0.628737536527	-0.254522427659	0.644851186624	0.0966796875	-0.22802734375	-0.435546875	82.5625	-3.5	-46.3125
18	11	28	12	30	01	0.63745717874	-0.25244378507	0.645391823822	0.04443359375	-0.40869140625	-0.11474609375	78.625	-20.0	-37.9375
18	11	28	12	30	01	0.648890968364	-0.239267481515	0.647487103039	-0.185546875	-0.4208984375	0.06591796875	130.5625	-35.0	-23.5625
18	11	28	12	30	01	0.660717011842	-0.217227884078	0.650340855536	-0.568359375	-0.21630859375	0.056640625	157.875	-53.6875	14.3125
18	11	28	12	30	01	0.669995821721	-0.190799575358	0.651440776645	-0.9169921875	0.1787109375	0.1396484375	132.0625	-69.4375	64.25
18	11	28	12	30	01	0.677854129705	-0.162475030909	0.651303927434	-1.34716796875	0.61474609375	-0.0234375	118.8125	-80.5625	82.8125
18	11	28	12	30	01	0.684658429947	-0.146429131982	0.6425425062	-1.85498046875	0.67919921875	0.01904296875	9.125	-101.5625	79.5625
18	11	28	12	30	01	0.687783511132	-0.139290199894	0.626927976823	-2.02197265625	0.4765625	0.400390625	-96.375	-107.875	113.9375
18	11	28	12	30	01	0.687822195036	-0.127505596364	0.614089901878	-1.751953125	0.21044921875	0.6689453125	-73.5625	-90.625	143.625
18	11	28	12	30	01	0.684362046088	-0.106756084428	0.609651098495	-1.48583984375	0.4345703125	0.75537109375	1.9375	-57.25	157.25
18	11	28	12	30	01	0.678494660331	-0.0850865020242	0.610742854558	-1.19384765625	0.4755859375	0.5849609375	37.3125	-27.3125	143.75
18	11	28	12	30	01	0.673685939781	-0.0687907995047	0.611487337567	-0.818359375	0.615234375	0.60009765625	33.6875	0.8125	92.875
18	11	28	12	30	01	0.669828525024	-0.0554833359985	0.617824342108	-0.4765625	0.92138671875	0.4580078125	67.5625	27.875	11.5
18	11	28	12	30	01	0.669630661465	-0.0520640738519	0.622327429067	-0.14404296875	0.7353515625	0.353515625	44.25	31.8125	-49.75
18	11	28	12	30	01	0.671001556014	-0.0515169028724	0.627175565182	0.05859375	0.53662109375	0.4404296875	54.25	43.5	-72.1875
18	11	28	12	30	01	0.670748202404	-0.0490746705553	0.637177221302	0.09765625	0.45654296875	0.3203125	91.25	59.9375	-78.4375
18	11	28	12	30	02	0.672090852597	-0.0511499531811	0.648408058046	-0.20458984375	0.3603515625	0.32275390625	100.1875	53.625	-98.125
18	11	28	12	30	02	0.674764251113	-0.0485244305414	0.654560997642	-0.4130859375	0.380859375	0.4970703125	93.875	40.9375	-70.25
18	11	28	12	30	02	0.671307226151	-0.0402247192247	0.659221498675	-0.349609375	0.701171875	0.58642578125	53.75	49.875	-0.3125
18	11	28	12	30	02	0.66310431893	-0.0393687670941	0.660235587065	-0.27783203125	0.97509765625	0.505859375	-44.4375	59.125	19.5625
18	11	28	12	30	02	0.652996382755	-0.0597572872235	0.655376907986	-0.4189453125	0.6875	0.58251953125	-179.1875	63.0625	26.625
18	11	28	12	30	02	0.636256321477	-0.0885656103668	0.648952149842	-0.65869140625	0.79296875	0.62548828125	-248.5625	97.375	40.5
18	11	28	12	30	02	0.615622207076	-0.116642280163	0.644553887242	-1.16455078125	1.30078125	0.18115234375	-238.875	110.375	40.875
18	11	28	12	30	02	0.602919620256	-0.154056400236	0.623183774329	-2.15673828125	1.201171875	-0.2255859375	-326.0	41.625	4.9375
18	11	28	12	30	02	0.589610335932	-0.190616260778	0.587657175399	-2.29931640625	0.86962890625	0.0615234375	-405.0	-25.5	37.5625
18	11	28	12	30	02	0.574800320613	-0.21046102851	0.566010764898	-1.91357421875	0.5830078125	0.02294921875	-258.0	-7.875	65.9375
18	11	28	12	30	02	0.566258413975	-0.217359729672	0.557773998804	-2.02392578125	0.52490234375	-0.365234375	-110.5625	-10.125	47.9375
18	11	28	12	30	02	0.55813714661	-0.222363694783	0.561616347983	-1.58642578125	0.47265625	-0.71142578125	-49.6875	-23.5	37.5
18	11	28	12	30	02	0.554602155014	-0.223098269489	0.570533385749	-0.95458984375	0.4970703125	-0.95556640625	5.375	-26.0	-2.625
18	11	28	12	30	02	0.554853788122	-0.228350717422	0.57841523611	-0.76904296875	0.43017578125	-1.21240234375	3.375	-32.875	-47.625
18	11	28	12	30	02	0.55874787422	-0.243055935672	0.583102298714	-0.416015625	-0.2099609375	-1.154296875	-2.625	-9.4375	-80.3125
18	11	28	12	30	02	0.565330512197	-0.254771060021	0.588219622765	-0.013671875	-0.65283203125	-0.86181640625	36.625	0.9375	-69.375
18	11	28	12	30	02	0.578504761276	-0.256109514488	0.594557383371	0.28564453125	-0.5869140625	-0.57373046875	109.4375	4.9375	-100.6875
18	11	28	12	30	02	0.594875148832	-0.259044749809	0.605190550038	0.27734375	-0.32958984375	-0.4462890625	162.3125	32.3125	-153.0625
18	11	28	12	30	02	0.609880300898	-0.263251975358	0.617387834626	0.087890625	-0.1474609375	-0.208984375	178.0	56.375	-170.375
18	11	28	12	30	02	0.622110395677	-0.266679780094	0.626932483713	0.04248046875	-0.107421875	-0.03271484375	155.8125	51.5	-149.9375
18	11	28	12	30	02	0.6354560128	-0.270515901328	0.632770385621	0.212890625	0.029296875	-0.052734375	147.375	35.0625	-162.625
18	11	28	12	30	02	0.651327849443	-0.278024398296	0.635336105787	-0.35302734375	-0.3974609375	-0.48486328125	155.4375	23.4375	-202.125
18	11	28	12	30	02	0.669876677627	-0.276068538761	0.633071608232	-1.62939453125	-0.3818359375	-0.46240234375	162.0	-32.625	-155.8125
18	11	28	12	30	02	0.688022251904	-0.250500649558	0.631439868342	-3.0302734375	-0.2119140625	-0.35888671875	187.0	-84.5	-4.4375
18	11	28	12	30	02	0.705122364082	-0.209546838287	0.62925090472	-1.80859375	0.048828125	0.0693359375	198.625	-126.8125	102.4375
18	11	28	12	30	02	0.722879166219	-0.152901487071	0.631992813226	-2.71435546875	-0.42138671875	0.53369140625	316.5	-114.3125	113.0625
18	11	28	12	30	02	0.730568874911	-0.07184222289	0.642429393303	-1.984375	0.43701171875	0.91455078125	409.0625	-71.375	235.375
18	11	28	12	30	02	0.723356036838	0.0017090514751	0.6587783061	-1.80322265625	1.47216796875	0.9580078125	374.875	7.5625	232.125
18	11	28	12	30	02	0.710117980804	0.051149980051	0.67264054912	-1.5615234375	2.05712890625	1.00048828125	241.1875	49.125	181.25
18	11	28	12	30	02	0.700243158633	0.065006883189	0.678635236897	-0.9619140625	2.18212890625	0.47314453125	26.625	49.25	104.3125
18	11	28	12	30	02	0.701261129883	0.0475483001287	0.672207226338	-0.58544921875	1.2802734375	0.28515625	-159.0625	2.25	-0.125
18	11	28	12	30	02	0.708703148197	0.0203253938808	0.660422708078	-0.2080078125	0.68310546875	0.2109375	-184.0	-33.0	-62.1875
18	11	28	12	30	02	0.717701705709	-0.000671433812111	0.649093377998	0.17578125	0.4091796875	0.12890625	-120.8125	-47.4375	-79.0
18	11	28	12	30	02	0.724274151416	-0.00665311667827	0.644131562439	0.37451171875	0.25146484375	0.11181640625	-8.8125	-24.75	-81.4375
18	11	28	12	30	02	0.726774693505	-0.00378433114952	0.648463453749	0.38916015625	0.0498046875	0.064453125	90.5625	13.8125	-84.1875
18	11	28	12	30	02	0.725597482366	0.00830091332452	0.658762922879	0.19775390625	-0.06494140625	0.11767578125	167.75	34.5625	-69.0625
18	11	28	12	30	02	0.722640511278	0.0365013114067	0.67008594753	0.103515625	0.248046875	0.2080078125	255.5625	28.5	-32.75
18	11	28	12	30	02	0.719749081534	0.071230255949	0.676962098312	0.1650390625	0.984375	0.04931640625	262.4375	2.1875	-3.0625
18	11	28	12	30	02	0.719400356664	0.0972954495607	0.6725837884	0.07275390625	1.3671875	0.1826171875	73.375	-20.6875	41.9375
18	11	28	12	30	02	0.719635514326	0.105046032244	0.663724900999	-0.05517578125	1.4384765625	0.26123046875	-96.5625	-22.9375	140.8125
18	11	28	12	30	02	0.717830493604	0.112924014725	0.652273525055	-0.494140625	1.8828125	0.11376953125	-133.125	-23.625	207.1875
18	11	28	12	30	02	0.709934776388	0.133368367845	0.637421448699	-1.57861328125	1.87451171875	0.08642578125	-125.375	-22.6875	312.25
18	11	28	12	30	02	0.692540179505	0.169991574116	0.620942292094	-2.54541015625	2.11767578125	0.298828125	-72.75	-16.125	407.25
18	11	28	12	30	02	0.669718658164	0.212842595791	0.603491466758	-1.2861328125	2.20947265625	0.40625	-23.125	-18.125	416.8125
18	11	28	12	30	02	0.639554808049	0.245067050421	0.584254497293	-2.01318359375	2.54052734375	0.32568359375	-83.875	32.25	425.6875
18	11	28	12	30	02	0.612600538466	0.261374602004	0.550949826643	-2.13037109375	2.06787109375	0.1435546875	-212.0	22.3125	417.3125
18	11	28	12	30	02	0.591511109513	0.265206456592	0.507707089973	-2.05126953125	1.5537109375	-0.10595703125	-284.5625	0.8125	365.5625
18	11	28	12	30	02	0.577484071055	0.263319552112	0.464502037916	-1.8994140625	0.8896484375	-0.361328125	-271.6875	-23.4375	276.125
18	11	28	12	30	02	0.566330444072	0.260153088234	0.43253045125	-1.3935546875	0.3740234375	-0.4775390625	-197.5625	-13.75	191.75
18	11	28	12	30	02	0.553477517643	0.24683095295	0.422310426177	-0.990234375	0.0625	-0.4306640625	-124.75	72.3125	117.875
18	11	28	12	30	03	0.543067013169	0.220474098187	0.437346875279	-1.21240234375	-0.1181640625	-0.6962890625	-38.3125	173.1875	-1.4375
18	11	28	12	30	03	0.53462670895	0.198615745053	0.468767339278	-1.0986328125	-0.935546875	-0.93798828125	84.1875	194.875	-85.0625
18	11	28	12	30	03	0.528537582427	0.178112099033	0.505525841051	-0.7392578125	-0.95703125	-0.83447265625	125.0	179.8125	-107.625
18	11	28	12	30	03	0.530954454002	0.160220191028	0.546762846183	-0.5966796875	-0.4560546875	-0.59033203125	183.0	146.5625	-185.625
18	11	28	12	30	03	0.546317007213	0.138990371556	0.581476626895	-0.4375	-0.1201171875	-0.41162109375	168.25	91.0	-270.5625
18	11	28	12	30	03	0.573894539043	0.114327214595	0.5991039035	-0.29150390625	0.015625	-0.12890625	91.8125	11.9375	-311.3125
18	11	28	12	30	03	0.609581184726	0.0861238661908	0.598533403166	-0.19091796875	0.20556640625	0.36669921875	2.375	-55.75	-320.0
18	11	28	12	30	03	0.64751266499	0.0581711509932	0.591477915135	-0.34814453125	0.32666015625	0.19482421875	-14.3125	-89.75	-329.0
18	11	28	12	30	03	0.682092798697	0.0348523479245	0.584677129192	-1.75146484375	0.306640625	0.6318359375	20.0625	-93.25	-303.75
18	11	28	12	30	03	0.707030073897	0.0319851298214	0.577685627157	-3.13720703125	1.01953125	0.76953125	70.6875	-109.9375	-192.875
18	11	28	12	30	03	0.725758805996	0.0328392125842	0.567666685935	-1.86572265625	0.98779296875	1.033203125	43.6875	-105.5	-115.8125
18	11	28	12	30	03	0.741746363554	0.0485260334945	0.564366925396	-1.46337890625	0.60302734375	1.03564453125	151.25	-100.8125	-96.75
18	11	28	12	30	03	0.752667404269	0.0786788001057	0.565706066237	-0.94921875	1.072265625	0.82177734375	230.8125	-94.5	-66.375
18	11	28	12	30	03	0.760717558831	0.108708815877	0.565945053798	-0.81298828125	1.49365234375	0.5146484375	216.125	-91.4375	-56.0625
18	11	28	12	30	03	0.772270617522	0.117500864585	0.559853470116	-0.54931640625	1.4306640625	0.46484375	88.75	-89.75	-100.0625
18	11	28	12	30	03	0.783561791734	0.112007158046	0.556800706099	-0.4453125	1.48681640625	0.4267578125	36.0	-53.875	-158.8125
18	11	28	12	30	03	0.792928482431	0.0999171677114	0.557814902697	-0.30029296875	1.06494140625	0.36083984375	26.8125	-22.375	-191.9375
18	11	28	12	30	03	0.799408468599	0.0880771489798	0.56246079546	-0.2119140625	0.76123046875	0.4169921875	48.5625	2.3125	-204.375
18	11	28	12	30	03	0.799408468599	0.0880771489798	0.56246079546	-0.2119140625	0.76123046875	0.4169921875	48.5625	2.3125	-204.375
18	11	28	12	30	03	0.546317007213	0.138990371556	0.581476626895	-0.4375	-0.1201171875	-0.41162109375	168.25	91.0	-270.5625
18	11	28	12	30	03	0.573894539043	0.114327214595	0.5991039035	-0.29150390625	0.015625	-0.12890625	91.8125	11.9375	-311.3125
18	11	28	12	30	03	0.792928482431	0.0999171677114	0.557814902697	-0.30029296875	1.06494140625	0.36083984375	26.8125	-22.375	-191.9375
18	11	28	12	30	03	0.799408468599	0.0880771489798	0.56246079546	-0.2119140625	0.76123046875	0.4169921875	48.5625	2.3125	-204.375
18	11	28	12	30	03	0.803173514593	0.0844803271163	0.569326597553	-0.2568359375	0.685546875	0.3857421875	110.6875	8.6875	-203.1875
18	11	28	12	30	03	0.806376480212	0.0820354242226	0.575041466965	-0.32763671875	0.7275390625	0.29443359375	128.5	0.375	-219.625
18	11	28	12	30	03	0.809615786821	0.07623719223	0.577791242313	-0.287109375	0.60205078125	0.29296875	107.75	-10.25	-222.8125
18	11	28	12	30	03	0.812700639689	0.0660414639237	0.578015400515	-0.140625	0.44482421875	0.33837890625	73.625	-16.8125	-214.9375
18	11	28	12	30	03	0.815406055469	0.0524926422414	0.576503495315	-0.0361328125	0.22705078125	0.34033203125	46.0625	-20.75	-204.8125
18	11	28	12	30	03	0.817354062856	0.0390030054638	0.573875207152	-0.14599609375	0.20556640625	0.2275390625	40.3125	-25.5625	-195.5625
18	11	28	12	30	03	0.818925967912	0.0259404886608	0.5700803861	-0.376953125	0.09423828125	0.0986328125	30.3125	-32.3125	-174.375
18	11	28	12	30	03	0.820898498958	0.0134283344316	0.565271841687	-0.490234375	-0.10205078125	0.052734375	6.25	-38.25	-129.0
18	11	28	12	30	03	0.822344125188	0.0020142029341	0.561169144732	-0.599609375	-0.2646484375	0.07421875	-0.8125	-41.375	-88.75
18	11	28	12	30	03	0.822180937776	-0.00225840346679	0.558863301134	-0.94091796875	-0.41162109375	0.09326171875	36.25	-31.75	-62.0625
18	11	28	12	30	03	0.817822243662	0.00317387541387	0.561775948255	-1.556640625	-0.84423828125	0.064453125	98.5625	-6.375	-23.875
18	11	28	12	30	03	0.814922759887	0.0288711306589	0.561552647064	-1.64404296875	-1.1337890625	0.21875	177.75	19.0625	22.0
18	11	28	12	30	03	0.807952653557	0.075076056801	0.562521089007	-1.255859375	-0.736328125	0.2568359375	279.1875	57.125	68.625
18	11	28	12	30	03	0.796242605393	0.129034639157	0.564480767702	-1.10791015625	-0.28515625	0.19873046875	309.25	85.25	90.0625
18	11	28	12	30	03	0.783858778866	0.176401796521	0.566316909385	-1.095703125	0.037109375	0.16162109375	251.0625	87.0	101.5
18	11	28	12	30	03	0.774251166216	0.2106378222	0.568618357467	-1.17431640625	0.35546875	0.2236328125	151.875	78.5	106.125
18	11	28	12	30	03	0.768043587466	0.232372402248	0.572172024868	-1.248046875	0.63720703125	0.12744140625	59.8125	69.5625	105.0625
18	11	28	12	30	03	0.766566317442	0.240974904153	0.576618520653	-1.24072265625	0.6201171875	0.103515625	-38.25	58.625	110.9375
18	11	28	12	30	03	0.769255825072	0.239877441286	0.580466785403	-1.1923828125	0.62939453125	0.16162109375	-113.8125	47.3125	121.3125
18	11	28	12	30	03	0.77336253259	0.234572392482	0.582738129332	-1.029296875	0.54443359375	0.251953125	-137.4375	36.75	118.0625
18	11	28	12	30	03	0.776695975378	0.22937709041	0.583819018034	-0.810546875	0.38037109375	0.3759765625	-121.75	32.1875	105.5625
18	11	28	12	30	03	0.779300078354	0.22774094089	0.582811713647	-0.60693359375	0.2451171875	0.470703125	-81.9375	38.0625	97.375
18	11	28	12	30	03	0.77800494945	0.233108496936	0.583167996787	-0.4619140625	0.203125	0.4970703125	-23.5625	54.3125	91.6875
18	11	28	12	30	03	0.773027673725	0.243901980593	0.585584484937	-0.45849609375	0.25146484375	0.3994140625	23.5625	62.8125	78.875
18	11	28	12	30	03	0.767145806601	0.254291011323	0.588910148161	-0.58251953125	0.3818359375	0.2275390625	27.1875	53.75	59.0625
18	11	28	12	30	03	0.764067469612	0.257212040018	0.591514447037	-0.70166015625	0.4755859375	0.09033203125	-18.0	32.9375	38.125
18	11	28	12	30	03	0.765559062001	0.248797539205	0.592816904015	-0.7880859375	0.4794921875	0.0205078125	-84.3125	10.4375	13.8125
18	11	28	12	30	03	0.771639965114	0.229685270426	0.592005697013	-0.7998046875	0.357421875	0.01220703125	-136.0	-6.4375	-10.1875
18	11	28	12	30	03	0.778828726569	0.205571720304	0.590652475471	-0.76806640625	0.19189453125	0.0595703125	-154.625	-12.5625	-29.8125
18	11	28	12	30	03	0.784670708568	0.182326830532	0.589952734213	-0.77099609375	0.1357421875	0.10693359375	-134.25	-9.75	-46.0625
18	11	28	12	30	03	0.787814445569	0.162116306456	0.591700103459	-0.84326171875	0.13525390625	0.10205078125	-92.375	-4.6875	-62.6875
18	11	28	12	30	03	0.78896388127	0.146427692339	0.594805277965	-0.96826171875	0.19189453125	0.0654296875	-51.5	-3.8125	-78.375
18	11	28	12	30	04	0.788933388856	0.13373718027	0.598673785524	-1.111328125	0.24951171875	-0.0009765625	-19.875	-8.375	-97.8125
18	11	28	12	30	04	0.790887854207	0.120797025814	0.599590290336	-1.23486328125	0.1943359375	-0.00927734375	-6.1875	-17.625	-116.25
18	11	28	12	30	04	0.793121445412	0.108097435726	0.599388378786	-1.2275390625	0.0947265625	0.064453125	-0.0625	-23.3125	-120.0
18	11	28	12	30	04	0.79441071963	0.0980882079481	0.599210913147	-1.1181640625	0.01806640625	0.1474609375	15.875	-19.375	-113.75
18	11	28	12	30	04	0.794228056614	0.0925337944841	0.599455406087	-1.0703125	-0.05224609375	0.177734375	45.875	-12.25	-110.25
18	11	28	12	30	04	0.792947362397	0.0910690065966	0.599517280692	-1.140625	-0.080078125	0.1708984375	74.6875	-10.3125	-108.9375
18	11	28	12	30	04	0.791033144087	0.0927144556997	0.598829180296	-1.27587890625	-0.046875	0.12158203125	94.0625	-12.8125	-105.5
18	11	28	12	30	04	0.788456840677	0.0933843448085	0.598514304047	-1.32861328125	-0.0693359375	0.13330078125	83.3125	-20.375	-95.125
18	11	28	12	30	04	0.787009878715	0.0920436557393	0.597307171794	-1.27197265625	-0.0771484375	0.17138671875	55.8125	-23.1875	-77.875
18	11	28	12	30	04	0.78630666435	0.0878964133414	0.596169631323	-1.2255859375	-0.19970703125	0.25	28.0	-19.0	-58.0625
18	11	28	12	30	04	0.786210321211	0.0838640619008	0.594922133441	-1.13818359375	-0.32568359375	0.3955078125	16.5625	-8.375	-31.8125
18	11	28	12	30	04	0.786215319571	0.0845970369479	0.593216884629	-1.02783203125	-0.3408203125	0.5068359375	31.6875	3.6875	-5.6875
18	11	28	12	30	04	0.786149943747	0.0914936929874	0.591077333482	-0.9619140625	-0.2490234375	0.50390625	52.1875	9.0	17.625
18	11	28	12	30	04	0.786898911328	0.101810997835	0.588159937136	-0.92041015625	-0.13232421875	0.4169921875	53.3125	2.5	40.6875
18	11	28	12	30	04	0.789652886356	0.112432605447	0.583526443036	-0.8818359375	-0.07275390625	0.32958984375	38.875	-14.8125	62.9375
18	11	28	12	30	04	0.794393506604	0.121890421259	0.57685847337	-0.8525390625	-0.06787109375	0.25048828125	25.25	-34.75	76.25
18	11	28	12	30	04	0.799907723797	0.131598706792	0.568572334771	-0.8349609375	-0.10791015625	0.1845703125	29.875	-49.9375	80.75
18	11	28	12	30	04	0.805155510988	0.143867147252	0.558927224177	-0.8408203125	-0.14892578125	0.1435546875	53.375	-59.3125	81.1875
18	11	28	12	30	04	0.809421342788	0.161017532786	0.54793570577	-0.83203125	-0.15625	0.08984375	89.25	-65.5625	82.8125
18	11	28	12	30	04	0.813509309857	0.185310193932	0.533285627268	-0.806640625	-0.12939453125	0.041015625	130.1875	-69.125	83.9375
18	11	28	12	30	04	0.815472186899	0.214244564073	0.517360947317	-0.8291015625	-0.033203125	-0.0048828125	167.125	-70.0	77.9375
18	11	28	12	30	04	0.814901497115	0.245123542237	0.501050587208	-0.8955078125	0.09423828125	-0.07275390625	190.4375	-69.125	61.3125
18	11	28	12	30	04	0.812677224911	0.273578137453	0.485262425871	-0.9482421875	0.1943359375	-0.07958984375	187.5	-68.375	40.3125
18	11	28	12	30	04	0.810027756165	0.297984741587	0.470049261565	-0.91943359375	0.27783203125	-0.00390625	169.0	-66.9375	25.75
18	11	28	12	30	04	0.80711474297	0.31856098038	0.455775980168	-0.88818359375	0.34912109375	0.09814453125	150.6875	-64.6875	13.125
18	11	28	12	30	04	0.80435180243	0.335767131975	0.442033370253	-0.84619140625	0.419921875	0.212890625	134.0625	-63.6875	3.125
18	11	28	12	30	04	0.801419776422	0.349377517155	0.430007793214	-0.775390625	0.4599609375	0.32373046875	115.8125	-57.9375	-9.5
18	11	28	12	30	04	0.797755072962	0.360180006545	0.42017948908	-0.705078125	0.4453125	0.39111328125	104.0	-49.125	-25.25
18	11	28	12	30	04	0.793061258827	0.369033200252	0.412186768326	-0.67041015625	0.45263671875	0.4111328125	97.25	-39.0	-48.75
18	11	28	12	30	04	0.785860748113	0.376053442262	0.407182683547	-0.67236328125	0.46240234375	0.3740234375	97.3125	-32.125	-81.125
18	11	28	12	30	04	0.775814280911	0.379971982586	0.405669686147	-0.7060546875	0.4306640625	0.30322265625	97.4375	-30.0	-115.375
18	11	28	12	30	04	0.76296826158	0.382216580321	0.405654965317	-0.76123046875	0.3818359375	0.255859375	104.1875	-30.375	-146.8125
18	11	28	12	30	04	0.746781654899	0.384285843828	0.406258986106	-0.8095703125	0.3291015625	0.22314453125	117.6875	-28.875	-170.125
18	11	28	12	30	04	0.726982080519	0.38708087941	0.406856061518	-0.8271484375	0.27880859375	0.21435546875	135.1875	-25.0625	-187.25
18	11	28	12	30	04	0.702912390075	0.391191864188	0.406878603008	-0.859375	0.234375	0.20458984375	157.6875	-20.25	-203.0
18	11	28	12	30	04	0.674580489146	0.396007800722	0.405834751387	-0.9140625	0.208984375	0.1953125	177.5625	-17.875	-218.5
18	11	28	12	30	04	0.642324632006	0.400140658251	0.403985817108	-0.982421875	0.2060546875	0.1962890625	189.3125	-17.4375	-234.9375
18	11	28	12	30	04	0.606455058858	0.402716433006	0.401739854811	-1.05615234375	0.19580078125	0.2373046875	194.125	-15.5	-250.625
18	11	28	12	30	04	0.567165013442	0.404315653146	0.399127423902	-1.11474609375	0.177734375	0.28857421875	197.3125	-9.6875	-260.5625
18	11	28	12	30	04	0.525462920807	0.405099013288	0.396126653042	-1.16748046875	0.15380859375	0.3369140625	195.8125	-2.25	-263.125
18	11	28	12	30	04	0.483414291618	0.405286729337	0.392591000466	-1.20703125	0.10107421875	0.3525390625	188.3125	3.4375	-253.125
18	11	28	12	30	04	0.443535793663	0.40471801951	0.388055673057	-1.21923828125	0.05029296875	0.33984375	174.25	3.1875	-232.0
18	11	28	12	30	04	0.408271951202	0.402778682312	0.383491204874	-1.181640625	0.03857421875	0.3193359375	148.5	-1.0625	-203.0625
18	11	28	12	30	04	0.379524585597	0.399361428684	0.380989460163	-1.12255859375	0.02978515625	0.30859375	108.0	-2.4375	-170.4375
18	11	28	12	30	04	0.357798092171	0.395335763049	0.382212837457	-1.05615234375	0.02392578125	0.28662109375	60.9375	2.1875	-136.3125
18	11	28	12	30	04	0.342415088786	0.39148848119	0.387765251169	-1.04345703125	0.046875	0.2578125	14.6875	10.9375	-107.0
18	11	28	12	30	04	0.333929904422	0.391059933765	0.395759733188	-1.0263671875	0.041015625	0.2255859375	-23.6875	19.375	-82.75
18	11	28	12	30	04	0.3292934213	0.391245751721	0.405650431503	-0.9736328125	0.01318359375	0.2158203125	-45.75	25.25	-60.5625
18	11	28	12	30	04	0.327028443136	0.392946830331	0.414187199538	-0.93310546875	-0.03076171875	0.22802734375	-44.75	29.75	-38.6875
18	11	28	12	30	04	0.325997642928	0.396922425006	0.419445010709	-0.90771484375	-0.07470703125	0.25390625	-28.8125	33.875	-17.25
18	11	28	12	30	05	0.325392017091	0.403764433138	0.419451123889	-0.86572265625	-0.1064453125	0.28662109375	0.9375	36.75	4.5625
18	11	28	12	30	05	0.325138627526	0.414312183902	0.413579752228	-0.83984375	-0.0703125	0.2880859375	34.0625	39.8125	26.375
18	11	28	12	30	05	0.325682874286	0.428282745289	0.403075281444	-0.890625	-0.017578125	0.25048828125	58.1875	40.75	46.0
18	11	28	12	30	05	0.328985854172	0.442940694568	0.390937735801	-0.92138671875	-0.02392578125	0.2275390625	58.375	35.8125	67.25
18	11	28	12	30	05	0.336486929849	0.457031404083	0.378357061153	-0.9169921875	-0.02099609375	0.23486328125	44.8125	29.25	91.0625
18	11	28	12	30	05	0.347168332815	0.469543949428	0.367187885059	-0.95751953125	-0.0244140625	0.22265625	26.5625	25.25	112.0
18	11	28	12	30	05	0.361703041909	0.481212754373	0.357125295007	-1.05322265625	-0.05712890625	0.21875	4.6875	22.625	129.5
18	11	28	12	30	05	0.379468743092	0.492021479502	0.347912471549	-1.154296875	-0.10009765625	0.21240234375	-13.6875	20.125	144.75
18	11	28	12	30	05	0.399297756292	0.502082443176	0.338444827062	-1.22607421875	-0.14892578125	0.21533203125	-22.375	16.75	157.3125
18	11	28	12	30	05	0.419755877676	0.512166870668	0.326978658821	-1.24658203125	-0.16357421875	0.228515625	-17.4375	12.875	168.1875
18	11	28	12	30	05	0.439958713336	0.522481490865	0.312939556503	-1.24267578125	-0.12451171875	0.240234375	-6.1875	8.5625	176.125
18	11	28	12	30	05	0.459844964851	0.532966051643	0.296573756863	-1.208984375	-0.041015625	0.232421875	3.25	4.9375	182.75
18	11	28	12	30	05	0.479680794127	0.543036012895	0.279055934692	-1.1650390625	0.03466796875	0.23681640625	5.375	2.75	186.625
18	11	28	12	30	05	0.498862043331	0.552575318521	0.261058724988	-1.1259765625	0.0986328125	0.21533203125	6.9375	1.375	186.6875
18	11	28	12	30	05	0.517102824677	0.561110277061	0.243231203534	-1.09375	0.1396484375	0.18701171875	6.25	-0.25	181.1875
18	11	28	12	30	05	0.534602720486	0.568171791871	0.226438645165	-1.048828125	0.171875	0.14697265625	0.6875	-1.875	174.1875
18	11	28	12	30	05	0.551105466917	0.573811329548	0.211005825577	-0.99560546875	0.2109375	0.11181640625	-4.875	-2.6875	162.75
18	11	28	12	30	05	0.565761567534	0.57796917499	0.19758012667	-0.9677734375	0.22216796875	0.05908203125	-8.75	-4.0625	145.0
18	11	28	12	30	05	0.578642249067	0.580473395425	0.186288622801	-0.94482421875	0.2158203125	0.03564453125	-13.125	-6.8125	125.0625
18	11	28	12	30	05	0.590039430751	0.581677436129	0.176822616208	-0.89453125	0.2255859375	0.0283203125	-16.3125	-8.5	107.5
18	11	28	12	30	05	0.59730066521	0.583140257042	0.171389767822	-0.85791015625	0.224609375	0.02001953125	-14.1875	-9.125	86.8125
18	11	28	12	30	05	0.601155417389	0.584614335237	0.167852309658	-0.87548828125	0.2177734375	0.00634765625	-5.625	-10.625	61.875
18	11	28	12	30	05	0.601876802586	0.586251565647	0.165590889911	-0.892578125	0.212890625	-0.00537109375	3.875	-13.75	39.625
18	11	28	12	30	05	0.600237081973	0.587907623913	0.164311391567	-0.89013671875	0.21337890625	0.0	11.8125	-15.125	21.0
18	11	28	12	30	05	0.595471267247	0.590222135535	0.164126920626	-0.89794921875	0.1982421875	0.00732421875	23.75	-14.75	0.625
18	11	28	12	30	05	0.587255858215	0.59348183239	0.164805198751	-0.916015625	0.203125	0.0078125	38.75	-13.5	-20.1875
18	11	28	12	30	05	0.576008975817	0.597249955322	0.166631821975	-0.9375	0.2177734375	0.009765625	49.3125	-12.375	-41.1875
18	11	28	12	30	05	0.562580909763	0.600729230106	0.170049952761	-0.94873046875	0.2294921875	0.033203125	53.375	-10.0625	-61.0
18	11	28	12	30	05	0.547245568566	0.603642502021	0.175172293306	-0.95166015625	0.24169921875	0.0634765625	55.0625	-6.75	-80.4375
18	11	28	12	30	05	0.530110046964	0.605857492938	0.182074642498	-0.9599609375	0.25341796875	0.09033203125	55.0625	-3.375	-99.6875
18	11	28	12	30	05	0.512690810833	0.606745160773	0.189695600008	-0.97265625	0.25048828125	0.10205078125	51.625	-0.875	-116.875
18	11	28	12	30	05	0.494156171436	0.60640335514	0.199286054809	-0.97802734375	0.24462890625	0.11376953125	45.875	0.0	-131.3125
18	11	28	12	30	05	0.474803953815	0.604506795036	0.210637414143	-0.99609375	0.25244140625	0.0986328125	38.8125	-1.3125	-144.6875
18	11	28	12	30	05	0.455385978628	0.600406362654	0.224122411677	-1.01953125	0.25048828125	0.07275390625	25.875	-4.4375	-156.5
18	11	28	12	30	05	0.436413281777	0.593949320976	0.239691602453	-1.046875	0.22900390625	0.0625	10.5	-8.25	-165.3125
18	11	28	12	30	05	0.417979036285	0.585341553442	0.256842258278	-1.0830078125	0.18310546875	0.0498046875	-2.75	-11.9375	-171.0625
18	11	28	12	30	05	0.399780516938	0.575195662843	0.274536300028	-1.1298828125	0.11962890625	0.02392578125	-9.6875	-15.8125	-173.5625
18	11	28	12	30	05	0.381833325198	0.564327193859	0.29137984247	-1.15869140625	0.03857421875	0.02490234375	-9.625	-19.6875	-169.5
18	11	28	12	30	05	0.363710526458	0.553652993036	0.305848875328	-1.1650390625	-0.0400390625	0.0400390625	0.375	-22.625	-161.0
18	11	28	12	30	05	0.345102051776	0.544204084477	0.316475793855	-1.16015625	-0.10400390625	0.0537109375	19.1875	-24.6875	-148.5625
18	11	28	12	30	05	0.326051765118	0.536380178184	0.322511704771	-1.15576171875	-0.15478515625	0.0751953125	42.875	-26.0625	-133.0625
18	11	28	12	30	05	0.305849782855	0.531071434968	0.32348909382	-1.26953125	-0.16357421875	0.07275390625	71.3125	-24.6875	-118.5625
18	11	28	12	30	05	0.284677905352	0.528521865875	0.320323680807	-1.48583984375	-0.19384765625	0.04833984375	95.75	-18.1875	-104.625
18	11	28	12	30	05	0.264705146655	0.529410293311	0.315668669242	-1.40869140625	-0.23779296875	0.12451171875	99.75	-9.5625	-85.5
18	11	28	12	30	05	0.244635142608	0.532240130624	0.306709478943	-1.24609375	-0.232421875	0.22998046875	119.0	7.25	-66.5625
18	11	28	12	30	05	0.22332706142	0.539122146359	0.292357645314	-1.16162109375	-0.2021484375	0.259765625	149.125	23.5	-47.0625
18	11	28	12	30	05	0.202942399931	0.547669820926	0.273560251576	-1.06005859375	-0.0986328125	0.3037109375	166.0	27.25	-26.5
18	11	28	12	30	05	0.185426667353	0.55621896629	0.251772548661	-0.92919921875	0.09033203125	0.34619140625	168.0	23.1875	-5.9375
18	11	28	12	30	05	0.173520688074	0.562919910695	0.231503330941	-0.7998046875	0.3173828125	0.3564453125	138.1875	14.0	9.75
18	11	28	12	30	05	0.174863843324	0.566583266169	0.214597303011	-0.69921875	0.4560546875	0.34033203125	65.0	1.75	26.25
18	11	28	12	30	06	0.187314732754	0.566338678795	0.207944377482	-0.673828125	0.404296875	0.32177734375	-22.1875	-11.625	45.4375
18	11	28	12	30	06	0.20678388711	0.563162611086	0.208126639623	-0.6845703125	0.265625	0.32373046875	-78.0625	-20.5	62.875
18	11	28	12	30	06	0.228583513878	0.559709164823	0.210760713864	-0.732421875	0.02685546875	0.32421875	-93.625	-17.1875	83.5625
18	11	28	12	30	06	0.251896909926	0.559764129132	0.208866301373	-0.84814453125	-0.1474609375	0.34375	-74.125	-6.8125	119.6875
18	11	28	12	30	06	0.275094881204	0.563984180679	0.198248984724	-0.974609375	-0.14990234375	0.2939453125	-31.125	2.0625	154.875
18	11	28	12	30	06	0.297488410849	0.571111830184	0.180482813065	-1.06689453125	0.072265625	0.24951171875	4.5625	6.6875	177.1875
18	11	28	12	30	06	0.320433752623	0.579222154741	0.159606526307	-1.11669921875	0.24755859375	0.24951171875	15.6875	10.375	192.25
18	11	28	12	30	06	0.345336702437	0.586791632596	0.137939368594	-1.09326171875	0.421875	0.28564453125	9.25	12.25	204.1875
18	11	28	12	30	06	0.373539614086	0.593146727073	0.116822683229	-1.01416015625	0.58935546875	0.361328125	-8.875	15.9375	219.125
18	11	28	12	30	06	0.405399838426	0.598578171552	0.0950937892605	-0.95703125	0.66064453125	0.39306640625	-22.6875	21.125	242.875
18	11	28	12	30	06	0.440673984081	0.60253927574	0.0713501229072	-0.888671875	0.697265625	0.45068359375	-30.9375	21.6875	271.4375
18	11	28	12	30	06	0.477733463832	0.606581725254	0.0407114118277	-0.83837890625	0.7998046875	0.5400390625	-11.8125	21.375	314.1875
18	11	28	12	30	06	0.516489596559	0.610790757831	0.00646985313582	-0.68994140625	1.0078125	0.43017578125	-7.0	33.25	349.0
18	11	28	12	30	06	0.558776890856	0.612243691117	-0.0250244156473	-0.5546875	1.1611328125	0.4482421875	-36.5	57.625	372.25
18	11	28	12	30	06	0.603842281522	0.61165505945	-0.0511492804928	-0.45166015625	1.326171875	0.3720703125	-70.5	99.0	391.125
18	11	28	12	30	06	0.650535546271	0.606161428975	-0.0685448882025	-0.36181640625	1.36767578125	0.298828125	-117.5	135.0625	388.6875
18	11	28	12	30	06	0.696499799093	0.59615402136	-0.0794709261607	-0.30810546875	1.3515625	0.21240234375	-148.375	163.4375	386.25
18	11	28	12	30	06	0.739874022486	0.582707250674	-0.0858161091911	-0.2568359375	1.392578125	0.13916015625	-163.25	190.125	388.875
