18	12	12	15	31	21	-0.623958791356	-0.377256117516	-0.372800576895	-0.76708984375	0.03125	0.14404296875	147.5	-105.625	-82.375
18	12	12	15	31	21	-0.61290566182	-0.376947357837	-0.354791935089	-0.70361328125	0.0283203125	0.23583984375	131.4375	-93.625	-80.3125
18	12	12	15	31	21	-0.602104499739	-0.376155096999	-0.338435828794	-0.642578125	0.0322265625	0.30859375	118.3125	-83.4375	-76.125
18	12	12	15	31	21	-0.590686476346	-0.37499253055	-0.324273325979	-0.56298828125	0.0068359375	0.357421875	107.6875	-71.75	-77.4375
18	12	12	15	31	21	-0.578372168929	-0.374147466815	-0.312074387899	-0.52880859375	-0.02294921875	0.4052734375	101.1875	-58.375	-79.75
18	12	12	15	31	21	-0.564582963666	-0.37433376391	-0.301395748604	-0.50390625	-0.0283203125	0.4111328125	100.75	-44.5625	-83.1875
18	12	12	15	31	21	-0.549432515303	-0.374812827869	-0.292111088451	-0.4794921875	-0.01318359375	0.40087890625	98.5	-31.625	-88.875
18	12	12	15	31	21	-0.533372944766	-0.375600995776	-0.285393281808	-0.48291015625	0.025390625	0.4091796875	87.4375	-18.25	-96.0
18	12	12	15	31	21	-0.51641940451	-0.376526569722	-0.283325715132	-0.4931640625	0.02783203125	0.41455078125	68.4375	-1.3125	-102.3125
18	12	12	15	31	21	-0.498839793118	-0.378112384481	-0.285705257749	-0.50927734375	-0.01171875	0.4423828125	49.8125	20.75	-106.0625
18	12	12	15	31	21	-0.480509761309	-0.381575895809	-0.292102085308	-0.5380859375	-0.03955078125	0.47216796875	36.0	47.1875	-107.1875
18	12	12	15	31	21	-0.461301458013	-0.387510314491	-0.302244617635	-0.58837890625	-0.0712890625	0.50927734375	24.25	76.0625	-106.875
18	12	12	15	31	21	-0.44164832006	-0.395933202353	-0.316038557389	-0.6396484375	-0.091796875	0.5556640625	10.125	104.875	-103.9375
18	12	12	15	31	21	-0.421827637296	-0.406629390777	-0.333690014918	-0.70166015625	-0.09716796875	0.57861328125	-7.25	134.1875	-100.0625
18	12	12	15	31	21	-0.401594278693	-0.419171657456	-0.355209529178	-0.80322265625	-0.12841796875	0.578125	-25.6875	160.875	-98.5625
18	12	12	15	31	21	-0.380722993563	-0.432967123491	-0.379685434908	-0.94921875	-0.15087890625	0.56201171875	-41.0625	182.3125	-98.5
18	12	12	15	31	21	-0.359432792133	-0.447810900982	-0.405697023147	-1.10546875	-0.19873046875	0.5263671875	-50.875	198.375	-95.1875
18	12	12	15	31	21	-0.338187859423	-0.46318492423	-0.431813590582	-1.3203125	-0.236328125	0.5	-56.9375	208.0625	-89.9375
18	12	12	15	31	22	-0.317381378328	-0.477842079024	-0.457761603357	-1.53125	-0.20947265625	0.423828125	-63.6875	209.0	-87.9375
18	12	12	15	31	22	-0.298953994691	-0.490973036606	-0.482061790542	-1.62646484375	-0.2412109375	0.31103515625	-69.5625	196.5	-76.8125
18	12	12	15	31	22	-0.28392331276	-0.501321171757	-0.50431176555	-1.68310546875	-0.28125	0.17822265625	-75.3125	172.75	-66.25
18	12	12	15	31	22	-0.271964857655	-0.509323774041	-0.521652522077	-1.60009765625	-0.439453125	-0.00390625	-60.875	137.375	-49.8125
18	12	12	15	31	22	-0.262687662012	-0.515365849914	-0.531112461624	-1.3740234375	-0.60693359375	-0.04296875	-27.125	96.75	-27.125
18	12	12	15	31	22	-0.254574504766	-0.520013133687	-0.533074496434	-1.16162109375	-0.65234375	0.01416015625	11.75	60.5625	-7.3125
18	12	12	15	31	22	-0.248713038007	-0.525440624345	-0.527881979319	-1.06005859375	-0.52587890625	0.015625	46.375	31.875	12.5
18	12	12	15	31	22	-0.248466409961	-0.530623180594	-0.519087894059	-1.03662109375	-0.33251953125	-0.0205078125	46.625	3.5	30.8125
18	12	12	15	31	22	-0.256529866278	-0.532835054153	-0.510313160112	-1.00732421875	-0.24951171875	-0.02001953125	15.3125	-30.0	49.125
18	12	12	15	31	22	-0.272028665566	-0.531057083036	-0.502065919441	-0.9697265625	-0.23193359375	0.00146484375	-16.875	-64.0625	65.125
18	12	12	15	31	22	-0.293931789245	-0.526159874394	-0.493995826859	-0.9443359375	-0.17333984375	0.0390625	-44.9375	-89.9375	78.875
18	12	12	15	31	22	-0.320066346115	-0.518185217109	-0.487423691853	-0.93017578125	-0.10791015625	0.07177734375	-71.8125	-109.5625	90.1875
18	12	12	15	31	22	-0.350465063105	-0.507325949935	-0.481569026105	-0.9189453125	-0.07763671875	0.11279296875	-97.5625	-124.5625	98.75
18	12	12	15	31	22	-0.383600448187	-0.493706288844	-0.476433587677	-0.9169921875	-0.08447265625	0.17822265625	-118.8125	-135.0	103.0625
18	12	12	15	31	22	-0.417590921649	-0.477769911527	-0.471178298032	-0.931640625	-0.0966796875	0.23486328125	-128.1875	-142.8125	102.5
18	12	12	15	31	22	-0.450618238522	-0.460444804471	-0.464656189878	-0.92724609375	-0.1123046875	0.28857421875	-123.5	-148.8125	98.75
18	12	12	15	31	22	-0.481313931051	-0.442984594417	-0.455862763254	-0.884765625	-0.1337890625	0.3330078125	-106.5625	-152.4375	94.0625
18	12	12	15	31	22	-0.508710188197	-0.426803880752	-0.444320356338	-0.83984375	-0.1142578125	0.36572265625	-80.125	-151.0625	88.375
18	12	12	15	31	22	-0.532519463725	-0.413137449851	-0.430348967189	-0.79931640625	-0.03857421875	0.36767578125	-52.875	-144.3125	83.6875
18	12	12	15	31	22	-0.553449884504	-0.401538022734	-0.41569774629	-0.7685546875	0.06689453125	0.34521484375	-36.875	-133.625	78.375
18	12	12	15	31	22	-0.572442116518	-0.390376348997	-0.402766342563	-0.7490234375	0.16650390625	0.30712890625	-39.8125	-120.6875	70.5625
18	12	12	15	31	22	-0.590309150339	-0.377915039175	-0.393478400769	-0.7451171875	0.22900390625	0.2841796875	-58.0625	-108.125	59.8125
18	12	12	15	31	22	-0.607757542092	-0.365032924207	-0.38767582922	-0.76220703125	0.25390625	0.2900390625	-82.125	-95.5625	45.625
18	12	12	15	31	22	-0.622867796535	-0.34814678211	-0.387575747966	-0.82763671875	0.26416015625	0.30322265625	-104.5	-81.375	28.5
18	12	12	15	31	22	-0.635661083674	-0.329640471716	-0.391955398882	-0.9462890625	0.2294921875	0.28466796875	-121.6875	-66.3125	10.125
18	12	12	15	31	22	-0.645795871404	-0.310416577068	-0.399159342121	-1.0478515625	0.140625	0.267578125	-126.8125	-54.5625	-5.6875
18	12	12	15	31	22	-0.652982682442	-0.292893157589	-0.407267355822	-1.12548828125	0.03076171875	0.24658203125	-115.75	-41.625	-15.875
18	12	12	15	31	22	-0.655854386454	-0.280688100065	-0.416973494161	-1.205078125	-0.07373046875	0.21630859375	-90.9375	-32.125	-23.5
18	12	12	15	31	22	-0.655874423874	-0.272823252812	-0.425103793251	-1.28369140625	-0.12744140625	0.1904296875	-58.5	-24.125	-26.0625
18	12	12	15	31	22	-0.653672525301	-0.269037207425	-0.431509314087	-1.33740234375	-0.1865234375	0.12841796875	-27.5625	-20.125	-25.1875
18	12	12	15	31	22	-0.650308495501	-0.26848494338	-0.435654813786	-1.357421875	-0.2646484375	0.08642578125	0.0625	-19.9375	-19.3125
18	12	12	15	31	22	-0.646283076818	-0.27098846549	-0.437487684827	-1.38427734375	-0.3193359375	0.08349609375	24.5	-19.1875	-11.75
18	12	12	15	31	22	-0.64146828719	-0.276789598707	-0.43730925573	-1.43798828125	-0.30224609375	0.091796875	45.4375	-15.875	-7.25
18	12	12	15	31	22	-0.636342766498	-0.285029802373	-0.436333631085	-1.4755859375	-0.21630859375	0.146484375	53.3125	-6.875	-4.0625
18	12	12	15	31	22	-0.631460246572	-0.294185036582	-0.436394815676	-1.45458984375	-0.16357421875	0.18603515625	46.5625	6.5625	1.0625
18	12	12	15	31	22	-0.62656568426	-0.302418952417	-0.437912408393	-1.408203125	-0.2119140625	0.21044921875	37.625	14.8125	3.5625
18	12	12	15	31	22	-0.621504016041	-0.310721491276	-0.438037348829	-1.28271484375	-0.2822265625	0.2626953125	46.8125	16.8125	7.9375
18	12	12	15	31	22	-0.615965656435	-0.320556047126	-0.435240893384	-1.08740234375	-0.29638671875	0.28076171875	67.5	17.0625	12.625
18	12	12	15	31	22	-0.609620788248	-0.331421794172	-0.430604191138	-0.951171875	-0.28271484375	0.28515625	81.75	18.1875	12.1875
18	12	12	15	31	22	-0.60237783734	-0.341896721862	-0.425814607003	-0.89453125	-0.2587890625	0.2890625	84.0625	19.1875	4.375
18	12	12	15	31	22	-0.594216363412	-0.351122302661	-0.422530801551	-0.8837890625	-0.22021484375	0.271484375	76.375	21.8125	-7.3125
18	12	12	15	31	22	-0.585080463141	-0.358335843846	-0.420835572017	-0.83056640625	-0.240234375	0.26318359375	68.3125	22.375	-19.625
18	12	12	15	31	22	-0.574897128206	-0.363896027005	-0.419865945953	-0.76953125	-0.27099609375	0.28515625	65.625	23.25	-30.8125
18	12	12	15	31	22	-0.563415415053	-0.369628832582	-0.419006264147	-0.72900390625	-0.2568359375	0.3212890625	69.625	29.25	-38.25
18	12	12	15	31	22	-0.550585642246	-0.376517329233	-0.417898225525	-0.6875	-0.2080078125	0.33349609375	76.0	37.625	-44.0625
18	12	12	15	31	22	-0.536793292907	-0.383720231098	-0.417044749338	-0.6669921875	-0.14990234375	0.34521484375	76.3125	43.625	-50.625
18	12	12	15	31	22	-0.522571704239	-0.390189313852	-0.416861100205	-0.63916015625	-0.09912109375	0.35205078125	70.6875	46.0625	-59.0
18	12	12	15	31	22	-0.507936960183	-0.395692779724	-0.417421397583	-0.6171875	-0.07080078125	0.349609375	64.875	46.875	-66.625
18	12	12	15	31	22	-0.492791692518	-0.400385620872	-0.418756973293	-0.60888671875	-0.05712890625	0.34716796875	59.875	47.8125	-73.4375
18	12	12	15	31	22	-0.476674508126	-0.404715577898	-0.420401281943	-0.60888671875	-0.05126953125	0.33642578125	60.25	49.125	-80.0
18	12	12	15	31	22	-0.459599118223	-0.409488776117	-0.421695924011	-0.609375	-0.03369140625	0.3330078125	64.125	51.9375	-84.3125
18	12	12	15	31	23	-0.441701435447	-0.414602438993	-0.422964066277	-0.61865234375	-0.00537109375	0.32958984375	65.9375	55.6875	-88.75
18	12	12	15	31	23	-0.422728888257	-0.419982310149	-0.424498905259	-0.6533203125	0.00537109375	0.318359375	66.375	59.875	-94.0
18	12	12	15	31	23	-0.402954052026	-0.425598092211	-0.426208443698	-0.69189453125	-0.00390625	0.3271484375	67.125	64.6875	-97.125
18	12	12	15	31	23	-0.380684263071	-0.431588652264	-0.429513413376	-0.7509765625	-0.01806640625	0.3408203125	70.1875	71.1875	-100.375
18	12	12	15	31	23	-0.35686979735	-0.438595239227	-0.432552805511	-0.84375	-0.02978515625	0.36376953125	75.6875	79.8125	-102.875
18	12	12	15	31	23	-0.331855737721	-0.446604457036	-0.435373731315	-0.92431640625	-0.060546875	0.3798828125	79.5625	89.0625	-103.25
18	12	12	15	31	23	-0.306145707359	-0.455678598713	-0.438283956249	-0.9853515625	-0.08740234375	0.4033203125	79.25	99.1875	-101.125
18	12	12	15	31	23	-0.280754304525	-0.465258709433	-0.441638727726	-1.0400390625	-0.13818359375	0.4130859375	72.5625	106.375	-96.75
18	12	12	15	31	23	-0.257013733959	-0.475209910379	-0.445669504956	-1.095703125	-0.1865234375	0.42431640625	59.875	111.5625	-86.8125
18	12	12	15	31	23	-0.235591379001	-0.484976450141	-0.450858424011	-1.17919921875	-0.205078125	0.423828125	42.75	113.375	-78.5625
18	12	12	15	31	23	-0.216910917019	-0.49491576424	-0.456709170528	-1.2685546875	-0.2763671875	0.39794921875	26.9375	113.5625	-65.5625
18	12	12	15	31	23	-0.201173557852	-0.505253249969	-0.461917926524	-1.3505859375	-0.35107421875	0.37744140625	17.75	111.25	-48.75
18	12	12	15	31	23	-0.187922642864	-0.516161672847	-0.465137532076	-1.3837890625	-0.39697265625	0.357421875	18.4375	105.875	-30.875
18	12	12	15	31	23	-0.179928527509	-0.526968421475	-0.463431923125	-1.4716796875	-0.3642578125	0.3798828125	16.9375	99.4375	-16.4375
18	12	12	15	31	23	-0.175233152039	-0.537845536665	-0.460025171339	-1.51904296875	-0.32177734375	0.3486328125	14.375	89.375	-1.5625
18	12	12	15	31	23	-0.174311390661	-0.547591665621	-0.456407765884	-1.43408203125	-0.322265625	0.29345703125	3.75	73.25	15.5
18	12	12	15	31	23	-0.177554735195	-0.555064545159	-0.452767626565	-1.23779296875	-0.34814453125	0.2568359375	-8.9375	49.6875	34.25
18	12	12	15	31	23	-0.185237577514	-0.560046132213	-0.448659450512	-1.041015625	-0.32958984375	0.22314453125	-19.5625	23.0	51.25
18	12	12	15	31	23	-0.198304539468	-0.562564770784	-0.444338888067	-0.9384765625	-0.22900390625	0.23291015625	-36.9375	-2.3125	64.0625
18	12	12	15	31	23	-0.21721992499	-0.562733270134	-0.440970485544	-0.93017578125	-0.1123046875	0.228515625	-63.5	-22.8125	72.9375
18	12	12	15	31	23	-0.241878221697	-0.559865992337	-0.439933944485	-0.955078125	-0.033203125	0.212890625	-97.5625	-42.25	78.1875
18	12	12	15	31	23	-0.269822645284	-0.552889243074	-0.44388602107	-0.9658203125	-0.01708984375	0.19091796875	-134.375	-63.5625	81.3125
18	12	12	15	31	23	-0.301746989344	-0.54178964895	-0.449690901595	-0.9658203125	-0.0576171875	0.189453125	-163.25	-83.1875	82.5625
18	12	12	15	31	23	-0.335326332719	-0.527159362157	-0.455870473075	-0.970703125	-0.0927734375	0.208984375	-175.875	-99.25	79.875
18	12	12	15	31	23	-0.36851225362	-0.509984827965	-0.461098058314	-0.9853515625	-0.10595703125	0.2294921875	-174.625	-111.625	73.9375
18	12	12	15	31	23	-0.400150697797	-0.491033002407	-0.46454346567	-0.99658203125	-0.12744140625	0.24267578125	-163.75	-121.625	66.6875
18	12	12	15	31	23	-0.429321089944	-0.471191187712	-0.465698026197	-0.98974609375	-0.13525390625	0.2412109375	-145.375	-129.5625	58.5
18	12	12	15	31	23	-0.455914253467	-0.451275768425	-0.463787471499	-0.96630859375	-0.1455078125	0.2412109375	-122.125	-137.0	52.1875
18	12	12	15	31	23	-0.479786355159	-0.432057958042	-0.458607641861	-0.93505859375	-0.1376953125	0.24267578125	-95.0	-142.25	47.0
18	12	12	15	31	23	-0.500852502293	-0.414243959672	-0.450315593702	-0.90478515625	-0.1005859375	0.232421875	-68.125	-144.6875	42.5
18	12	12	15	31	23	-0.519630408027	-0.397687542719	-0.439799943651	-0.8876953125	-0.0419921875	0.22119140625	-47.8125	-144.6875	38.375
18	12	12	15	31	23	-0.536680138617	-0.381895556389	-0.428343138044	-0.86962890625	0.01611328125	0.20068359375	-37.125	-142.6875	34.125
18	12	12	15	31	23	-0.552484840976	-0.366085293435	-0.417049151391	-0.8505859375	0.056640625	0.19482421875	-35.75	-139.625	29.0
18	12	12	15	31	23	-0.567132558714	-0.349910779069	-0.406672862539	-0.849609375	0.08056640625	0.19921875	-39.0625	-134.9375	22.75
18	12	12	15	31	23	-0.580363085156	-0.333484477578	-0.397691225458	-0.86474609375	0.08056640625	0.203125	-42.5625	-128.0	15.8125
18	12	12	15	31	23	-0.591969345709	-0.317377110804	-0.39000764193	-0.8955078125	0.07470703125	0.20947265625	-44.0625	-118.875	9.1875
18	12	12	15	31	23	-0.601850055641	-0.302237245263	-0.383411626563	-0.9404296875	0.04248046875	0.2294921875	-41.3125	-108.0625	3.75
18	12	12	15	31	23	-0.609167845812	-0.291675496958	-0.378708193895	-0.9892578125	0.0009765625	0.23583984375	-32.375	-96.1875	0.375
18	12	12	15	31	23	-0.614672580271	-0.283746681132	-0.374259980362	-1.02099609375	-0.05322265625	0.22998046875	-18.8125	-84.625	0.8125
18	12	12	15	31	23	-0.618505175262	-0.278370051744	-0.369491842415	-1.04345703125	-0.11572265625	0.24609375	-2.0	-74.875	2.625
18	12	12	15	31	23	-0.62120723246	-0.276424401239	-0.364252776903	-1.07373046875	-0.1064453125	0.271484375	12.5	-61.9375	6.0625
18	12	12	15	31	23	-0.622846752794	-0.277031005481	-0.359914483217	-1.11474609375	-0.0693359375	0.2939453125	17.1875	-47.1875	7.0
18	12	12	15	31	23	-0.624142129436	-0.278685014962	-0.358091323431	-1.15576171875	-0.048828125	0.30712890625	8.25	-32.25	8.1875
18	12	12	15	31	23	-0.624995052408	-0.280332253487	-0.359860432519	-1.22021484375	-0.09619140625	0.30224609375	-5.5625	-18.5	9.4375
18	12	12	15	31	23	-0.625170228889	-0.282281783522	-0.364128242268	-1.23828125	-0.1787109375	0.24853515625	-10.3125	-8.5625	11.5625
18	12	12	15	31	23	-0.625048159926	-0.285638647442	-0.368949919613	-1.26513671875	-0.21875	0.27294921875	-7.25	1.75	16.8125
18	12	12	15	31	23	-0.623633366436	-0.291492753777	-0.374680488995	-1.3369140625	-0.16552734375	0.3017578125	-2.9375	18.125	14.8125
18	12	12	15	31	23	-0.620214672485	-0.299975901915	-0.382248031271	-1.3837890625	-0.11865234375	0.298828125	0.0625	39.3125	9.4375
18	12	12	15	31	23	-0.614796727614	-0.309504041073	-0.390923562034	-1.287109375	-0.19873046875	0.3046875	7.375	56.875	6.75
18	12	12	15	31	23	-0.606624537814	-0.319639068773	-0.398312881958	-1.07861328125	-0.3466796875	0.31689453125	29.75	66.125	1.0625
18	12	12	15	31	24	-0.594847473856	-0.332091638134	-0.402587106255	-0.97119140625	-0.41943359375	0.34912109375	66.1875	71.625	-8.5625
18	12	12	15	31	24	-0.58018909785	-0.347100294495	-0.404167074054	-0.98291015625	-0.35302734375	0.34375	92.8125	74.375	-20.25
18	12	12	15	31	24	-0.564994546474	-0.362055487705	-0.406122254752	-0.99267578125	-0.263671875	0.30712890625	88.5	76.875	-27.125
18	12	12	15	31	24	-0.550711835305	-0.373041198868	-0.411004488412	-0.93310546875	-0.27392578125	0.28466796875	60.3125	74.6875	-34.5625
18	12	12	15	31	24	-0.537394341477	-0.379929559988	-0.418929558194	-0.8671875	-0.298828125	0.3056640625	32.5	74.0	-43.0625
18	12	12	15	31	24	-0.523868095958	-0.385317405311	-0.428347465622	-0.81591796875	-0.2744140625	0.31884765625	19.875	78.5	-51.3125
18	12	12	15	31	24	-0.509495700434	-0.390605232724	-0.438149213394	-0.7626953125	-0.24267578125	0.33837890625	18.75	85.5	-58.0
18	12	12	15	31	24	-0.493945406367	-0.396474652139	-0.447315690506	-0.716796875	-0.21044921875	0.3671875	24.6875	91.75	-63.25
18	12	12	15	31	24	-0.477229545305	-0.40325560888	-0.455257088942	-0.66943359375	-0.1640625	0.36767578125	33.875	95.5625	-67.4375
18	12	12	15	31	24	-0.459200602851	-0.410680602949	-0.461702892155	-0.638671875	-0.11474609375	0.36279296875	45.125	96.125	-73.5
18	12	12	15	31	24	-0.439817469749	-0.418394220807	-0.466794894344	-0.63720703125	-0.0576171875	0.3525390625	55.6875	95.25	-81.625
18	12	12	15	31	24	-0.418820166992	-0.426510540213	-0.47063863417	-0.63623046875	-0.0322265625	0.33544921875	66.5	95.5	-88.75
18	12	12	15	31	24	-0.396359953279	-0.434689804012	-0.473630002687	-0.654296875	-0.02099609375	0.32958984375	74.875	96.75	-95.4375
18	12	12	15	31	24	-0.370844975836	-0.442987629133	-0.47802137109	-0.693359375	-0.017578125	0.33251953125	81.0625	98.375	-101.375
18	12	12	15	31	24	-0.344535394214	-0.450734080827	-0.482227484444	-0.7265625	-0.0078125	0.33935546875	81.4375	99.375	-105.8125
18	12	12	15	31	24	-0.31804762176	-0.457449035711	-0.486867372631	-0.787109375	-0.04443359375	0.34130859375	76.125	99.0	-109.125
18	12	12	15	31	24	-0.292231815712	-0.463554853871	-0.491996797506	-0.85791015625	-0.07421875	0.37939453125	67.25	99.5625	-107.75
18	12	12	15	31	24	-0.267390304005	-0.469046903966	-0.497610853355	-0.96142578125	-0.095703125	0.37353515625	57.1875	99.5625	-105.25
18	12	12	15	31	24	-0.247256248069	-0.474248592321	-0.500555045769	-1.03662109375	-0.126953125	0.36865234375	44.75	97.0625	-98.5625
18	12	12	15	31	24	-0.229984529396	-0.478951327539	-0.503548929808	-1.10986328125	-0.17919921875	0.37646484375	31.5	91.75	-87.875
18	12	12	15	31	24	-0.215695536724	-0.483636511885	-0.506158202052	-1.234375	-0.2109375	0.36572265625	20.9375	85.6875	-77.4375
18	12	12	15	31	24	-0.204771935032	-0.488339866526	-0.507809984938	-1.359375	-0.29638671875	0.296875	15.875	73.375	-61.0
18	12	12	15	31	24	-0.195861415834	-0.492918913766	-0.506651795836	-1.4404296875	-0.525390625	0.20654296875	27.9375	54.5625	-36.375
18	12	12	15	31	24	-0.18774673371	-0.498603077917	-0.498664113916	-1.4013671875	-0.7587890625	0.20751953125	64.9375	37.75	0.5625
18	12	12	15	31	24	-0.179683185949	-0.507800308117	-0.483325798074	-1.4609375	-0.7548828125	0.22607421875	109.5625	27.4375	30.6875
18	12	12	15	31	24	-0.173764697675	-0.519096857647	-0.462518046708	-1.51513671875	-0.4814453125	0.240234375	129.6875	20.9375	56.1875
18	12	12	15	31	24	-0.177120065859	-0.530017454143	-0.440297779156	-1.451171875	-0.2353515625	0.25732421875	96.625	8.8125	74.125
18	12	12	15	31	24	-0.188465596188	-0.537200187062	-0.424291717843	-1.30517578125	-0.20361328125	0.28076171875	33.8125	-8.0	87.375
18	12	12	15	31	24	-0.204645801999	-0.540697035464	-0.415150833641	-1.09521484375	-0.27978515625	0.2685546875	-14.8125	-26.875	101.625
18	12	12	15	31	24	-0.227104129942	-0.541546612462	-0.407456912521	-0.9296875	-0.26904296875	0.26953125	-46.25	-46.375	118.6875
18	12	12	15	31	24	-0.254998909154	-0.539721243094	-0.401357785207	-0.84619140625	-0.15771484375	0.265625	-76.5	-62.8125	131.25
18	12	12	15	31	24	-0.288446940685	-0.534719349839	-0.397575829797	-0.8603515625	-0.03125	0.25830078125	-113.125	-77.9375	140.4375
18	12	12	15	31	24	-0.327023023093	-0.52483594169	-0.397334804094	-0.8935546875	-0.03125	0.27099609375	-156.375	-95.8125	143.5
18	12	12	15	31	24	-0.367783360988	-0.509867606653	-0.399093162545	-0.8828125	-0.13232421875	0.3193359375	-182.3125	-113.0	138.6875
18	12	12	15	31	24	-0.406295426025	-0.492290657401	-0.399520783951	-0.86962890625	-0.13134765625	0.4013671875	-173.625	-123.1875	126.125
18	12	12	15	31	24	-0.439334268257	-0.474551811017	-0.397463844803	-0.88232421875	-0.03466796875	0.42626953125	-143.4375	-124.125	105.0
18	12	12	15	31	24	-0.466622934839	-0.457650590637	-0.393623454124	-0.9208984375	0.048828125	0.45654296875	-113.8125	-119.3125	83.0625
18	12	12	15	31	24	-0.4886307737	-0.442306672122	-0.389696164136	-0.94384765625	0.16796875	0.4873046875	-93.0	-105.625	61.875
18	12	12	15	31	24	-0.506331139742	-0.429917616724	-0.384447908539	-0.9130859375	0.150390625	0.38916015625	-70.0	-90.3125	42.875
18	12	12	15	31	24	-0.518607989057	-0.419366304909	-0.378656462764	-0.857421875	-0.03955078125	0.29052734375	-38.375	-87.3125	33.875
18	12	12	15	31	24	-0.527392843897	-0.411306605141	-0.368705030666	-0.76416015625	-0.1650390625	0.2548828125	3.5	-91.6875	35.8125
18	12	12	15	31	24	-0.534302899327	-0.406983291377	-0.354004662565	-0.6875	-0.09619140625	0.1962890625	38.6875	-95.1875	40.0
18	12	12	15	31	24	-0.541666883876	-0.404037720705	-0.337756003985	-0.66015625	0.0732421875	0.13037109375	41.3125	-98.25	40.9375
18	12	12	15	31	24	-0.551807186123	-0.396109792936	-0.324394999916	-0.65625	0.16943359375	0.09033203125	6.6875	-102.0625	41.5
18	12	12	15	31	24	-0.565118508686	-0.382930502592	-0.316830130531	-0.66650390625	0.17529296875	0.0966796875	-44.3125	-103.4375	39.6875
18	12	12	15	31	24	-0.57950331891	-0.368086836898	-0.314805489093	-0.68017578125	0.1044921875	0.12939453125	-81.5	-99.5	36.375
18	12	12	15	31	24	-0.593074501649	-0.35204834059	-0.315427500723	-0.73876953125	0.0244140625	0.18994140625	-91.5625	-92.5625	32.0625
18	12	12	15	31	24	-0.604727541198	-0.33782468112	-0.316035446944	-0.83056640625	-0.0146484375	0.2646484375	-79.75	-83.0625	29.25
18	12	12	15	31	24	-0.61344840561	-0.327506133171	-0.315726654285	-0.93115234375	-0.0146484375	0.3408203125	-55.9375	-69.0625	24.4375
18	12	12	15	31	24	-0.619044203453	-0.322125141066	-0.314740309298	-1.033203125	0.06494140625	0.41796875	-32.5625	-49.125	16.25
18	12	12	15	31	25	-0.621582070615	-0.320922871887	-0.315002461355	-1.1044921875	0.1474609375	0.4541015625	-19.8125	-25.25	5.0625
18	12	12	15	31	25	-0.621552412551	-0.322006139888	-0.319076591989	-1.17333984375	0.1796875	0.46484375	-23.5625	0.8125	-7.625
18	12	12	15	31	25	-0.619233430478	-0.323471040955	-0.328780848609	-1.23681640625	0.13427734375	0.47314453125	-38.5625	27.5625	-20.6875
18	12	12	15	31	25	-0.614625812809	-0.325318329918	-0.343445824099	-1.271484375	0.01513671875	0.43408203125	-48.1875	50.9375	-29.1875
18	12	12	15	31	25	-0.607520226421	-0.328234255344	-0.361069887433	-1.318359375	-0.0966796875	0.3671875	-47.0625	68.3125	-36.125
18	12	12	15	31	25	-0.598796860354	-0.332569981864	-0.379931755754	-1.35693359375	-0.18701171875	0.3095703125	-42.125	80.5	-35.6875
18	12	12	15	31	25	-0.588806435302	-0.338256998491	-0.398681832217	-1.36572265625	-0.27294921875	0.2626953125	-32.5625	89.1875	-32.5625
18	12	12	15	31	25	-0.579702885006	-0.344843261769	-0.41399501674	-1.32958984375	-0.26123046875	0.2666015625	-24.5	100.125	-28.0625
18	12	12	15	31	25	-0.569637936556	-0.352781235754	-0.42992924302	-1.28125	-0.22314453125	0.24853515625	-23.0	111.875	-26.6875
18	12	12	15	31	25	-0.559610807359	-0.360704533918	-0.446150616402	-1.19775390625	-0.28369140625	0.21728515625	-26.4375	116.0	-23.0625
18	12	12	15	31	25	-0.54983959808	-0.368634828772	-0.461403858529	-1.09814453125	-0.3671875	0.2080078125	-24.3125	113.8125	-17.625
18	12	12	15	31	25	-0.540034337844	-0.37670568865	-0.474788326638	-1.06591796875	-0.3837890625	0.17431640625	-15.5	107.625	-15.8125
18	12	12	15	31	25	-0.528992100246	-0.38427763507	-0.487549197735	-1.08935546875	-0.3515625	0.12744140625	-5.5	97.375	-15.375
18	12	12	15	31	25	-0.518488111812	-0.391597377915	-0.497675345935	-1.08154296875	-0.32177734375	0.10498046875	3.9375	85.25	-15.3125
18	12	12	15	31	25	-0.507915153631	-0.398910531619	-0.504985578124	-1.01416015625	-0.2919921875	0.11083984375	17.9375	75.6875	-17.0
18	12	12	15	31	25	-0.496510569749	-0.406607672485	-0.509327683412	-0.94970703125	-0.2626953125	0.1484375	37.1875	69.125	-21.5
18	12	12	15	31	25	-0.483565606049	-0.415269517046	-0.510664322329	-0.9169921875	-0.21630859375	0.19970703125	60.5	66.625	-27.9375
18	12	12	15	31	25	-0.468598381748	-0.425449247091	-0.509184201474	-0.87109375	-0.166015625	0.23046875	85.125	67.125	-34.0
18	12	12	15	31	25	-0.450923052743	-0.43706821612	-0.506464468281	-0.81884765625	-0.12744140625	0.263671875	105.0625	67.3125	-39.75
18	12	12	15	31	25	-0.431874020209	-0.448780337846	-0.502123737176	-0.74560546875	-0.0888671875	0.29736328125	117.9375	64.75	-44.625
18	12	12	15	31	25	-0.412227866453	-0.459773840389	-0.497188066349	-0.666015625	-0.013671875	0.3232421875	121.125	62.0625	-48.75
18	12	12	15	31	25	-0.392444971638	-0.469591230449	-0.492478767675	-0.5947265625	0.048828125	0.345703125	116.8125	59.9375	-54.25
18	12	12	15	31	25	-0.372974293102	-0.477646345576	-0.489120599725	-0.541015625	0.06201171875	0.3359375	104.6875	58.4375	-59.625
18	12	12	15	31	25	-0.355947478156	-0.483629598235	-0.485033369154	-0.54296875	0.03369140625	0.328125	91.5	57.25	-63.4375
18	12	12	15	31	25	-0.339660828005	-0.488647724889	-0.481994889264	-0.57373046875	0.0029296875	0.33837890625	80.125	57.5	-63.5625
18	12	12	15	31	25	-0.324277752654	-0.493160971475	-0.479977460356	-0.62158203125	-0.01806640625	0.3291015625	68.8125	58.0625	-61.9375
18	12	12	15	31	25	-0.310358310122	-0.497122602939	-0.479056514483	-0.708984375	-0.03515625	0.33203125	55.3125	58.75	-59.625
18	12	12	15	31	25	-0.297602755576	-0.500724570702	-0.479057429966	-0.83544921875	-0.0947265625	0.34716796875	43.5625	60.0	-56.6875
18	12	12	15	31	25	-0.285824237434	-0.504266463738	-0.479242347285	-0.98291015625	-0.16455078125	0.375	37.1875	62.0	-51.6875
18	12	12	15	31	25	-0.274962003257	-0.508542377611	-0.478635300675	-1.1005859375	-0.19091796875	0.41357421875	35.5	65.5625	-45.1875
18	12	12	15	31	25	-0.265369515679	-0.513527853019	-0.477579682657	-1.15673828125	-0.1982421875	0.4345703125	31.1875	68.3125	-36.9375
18	12	12	15	31	25	-0.257624528286	-0.518789028768	-0.477041770453	-1.21240234375	-0.240234375	0.42333984375	20.1875	69.8125	-27.5625
18	12	12	15	31	25	-0.252318540263	-0.523863094116	-0.476683067115	-1.27294921875	-0.29931640625	0.4013671875	9.25	65.1875	-15.625
18	12	12	15	31	25	-0.249999529218	-0.528746562894	-0.476134357282	-1.296875	-0.33056640625	0.38037109375	-1.1875	57.9375	-1.25
18	12	12	15	31	25	-0.251217221293	-0.533256769299	-0.475091071561	-1.27880859375	-0.322265625	0.34375	-11.75	47.125	14.3125
18	12	12	15	31	25	-0.25615253047	-0.537145203876	-0.473122329331	-1.3203125	-0.32421875	0.392578125	-22.5	37.875	29.8125
18	12	12	15	31	25	-0.263485654567	-0.54082612581	-0.469537906089	-1.4140625	-0.21240234375	0.37548828125	-22.125	26.6875	35.0
18	12	12	15	31	25	-0.273849916788	-0.54367173139	-0.466039216535	-1.38623046875	-0.12353515625	0.25390625	-32.0625	9.9375	42.0625
18	12	12	15	31	25	-0.288138231568	-0.542769178846	-0.463731049238	-1.31494140625	-0.21142578125	0.1611328125	-51.25	-20.3125	51.4375
18	12	12	15	31	25	-0.305771667304	-0.537999450555	-0.460854662637	-1.181640625	-0.29638671875	0.107421875	-59.8125	-55.1875	62.8125
18	12	12	15	31	25	-0.326100886364	-0.53050138579	-0.455735601438	-1.09619140625	-0.2802734375	0.09814453125	-58.8125	-84.625	71.4375
18	12	12	15	31	25	-0.348809494362	-0.521352703559	-0.448905307267	-1.07861328125	-0.2119140625	0.09716796875	-60.375	-106.0	78.5625
18	12	12	15	31	25	-0.374131990073	-0.509747207355	-0.441451335105	-1.0771484375	-0.15576171875	0.06884765625	-71.1875	-123.5625	83.4375
18	12	12	15	31	25	-0.401657233832	-0.49497647263	-0.43437084534	-1.0751953125	-0.15576171875	0.08154296875	-86.5625	-139.375	84.0
18	12	12	15	31	25	-0.429930641217	-0.477537952426	-0.427000960528	-1.07470703125	-0.16455078125	0.11328125	-93.8125	-152.0	81.4375
18	12	12	15	31	25	-0.457682791787	-0.458659311945	-0.418255790387	-1.0703125	-0.16650390625	0.142578125	-89.3125	-160.9375	78.8125
18	12	12	15	31	25	-0.484140276771	-0.43933960063	-0.407234483941	-1.0419921875	-0.15869140625	0.16552734375	-76.6875	-168.5	77.0
18	12	12	15	31	25	-0.508773455654	-0.420397260382	-0.393176415706	-1.0029296875	-0.16162109375	0.20361328125	-57.125	-174.125	75.8125
18	12	12	15	31	25	-0.531224366096	-0.402751561565	-0.376019453069	-0.962890625	-0.12646484375	0.23583984375	-34.25	-176.75	75.1875
18	12	12	15	31	25	-0.551628763529	-0.386713857681	-0.356318734397	-0.91943359375	-0.0673828125	0.24609375	-14.25	-175.25	74.75
18	12	12	15	31	26	-0.5701226757	-0.372187996619	-0.335506300003	-0.8740234375	0.00244140625	0.24365234375	-2.75	-169.625	73.625
18	12	12	15	31	26	-0.587333564261	-0.35833267752	-0.315059322323	-0.82275390625	0.05322265625	0.2265625	-1.0	-161.5625	71.75
18	12	12	15	31	26	-0.603501253442	-0.344474218692	-0.296379660873	-0.7744140625	0.0966796875	0.22998046875	-8.0625	-151.75	68.0625
18	12	12	15	31	26	-0.618624988103	-0.330307659394	-0.280383109249	-0.73681640625	0.13330078125	0.2333984375	-19.4375	-139.375	62.0625
18	12	12	15	31	26	-0.632363514355	-0.316029174532	-0.267446860332	-0.70556640625	0.1494140625	0.2294921875	-30.75	-125.5	54.1875
18	12	12	15	31	26	-0.644576266725	-0.30199444823	-0.257439891397	-0.6826171875	0.154296875	0.23974609375	-38.9375	-110.5	45.6875
18	12	12	15	31	26	-0.654420709141	-0.291443656608	-0.250977238947	-0.66943359375	0.1416015625	0.26318359375	-41.1875	-93.6875	37.0625
18	12	12	15	31	26	-0.662143052828	-0.282764196124	-0.246693909073	-0.66552734375	0.1318359375	0.27783203125	-38.3125	-75.5625	28.625
18	12	12	15	31	26	-0.667884514053	-0.276235521393	-0.244681441729	-0.69482421875	0.13232421875	0.32080078125	-35.25	-56.375	20.375
18	12	12	15	31	26	-0.671790818549	-0.271902252806	-0.245597006799	-0.74560546875	0.16064453125	0.357421875	-36.8125	-35.375	11.625
18	12	12	15	31	26	-0.674051622698	-0.268729563088	-0.250968876542	-0.82421875	0.17138671875	0.36572265625	-47.5	-13.9375	1.8125
18	12	12	15	31	26	-0.674964336183	-0.265737835224	-0.261282423655	-0.8935546875	0.13720703125	0.38037109375	-63.0	6.75	-6.75
18	12	12	15	31	26	-0.674117624274	-0.26329954107	-0.276726963192	-0.986328125	0.0947265625	0.3828125	-76.125	28.6875	-16.125
18	12	12	15	31	26	-0.671372351582	-0.261774183267	-0.296624511699	-1.09619140625	0.00146484375	0.369140625	-83.5	49.8125	-22.5625
18	12	12	15	31	26	-0.666927939893	-0.261717489362	-0.319639573645	-1.1982421875	-0.1298828125	0.35205078125	-82.5625	68.6875	-22.125
18	12	12	15	31	26	-0.660739858474	-0.264210497629	-0.343919185525	-1.27197265625	-0.26123046875	0.3173828125	-71.0625	85.625	-16.9375
18	12	12	15	31	26	-0.6529992252	-0.270257086567	-0.367239586693	-1.32421875	-0.333984375	0.2978515625	-51.0	98.875	-10.0625
18	12	12	15	31	26	-0.646163779215	-0.278618839342	-0.3849395443	-1.337890625	-0.3310546875	0.294921875	-32.9375	112.875	-3.0
18	12	12	15	31	26	-0.638170828581	-0.288751548395	-0.404227754179	-1.39501953125	-0.203125	0.4013671875	-34.5	131.9375	-1.875
18	12	12	15	31	26	-0.628026222986	-0.299853530955	-0.426984592421	-1.4404296875	-0.0634765625	0.39404296875	-44.5625	156.5625	-8.5
18	12	12	15	31	26	-0.616153759694	-0.310670890227	-0.452334374749	-1.41650390625	-0.16357421875	0.35498046875	-54.625	173.3125	-12.625
18	12	12	15	31	26	-0.602640146829	-0.322132336942	-0.477034169295	-1.3291015625	-0.302734375	0.322265625	-46.5	178.8125	-12.9375
18	12	12	15	31	26	-0.586707607038	-0.337083752593	-0.497416727074	-1.2333984375	-0.37060546875	0.31884765625	-9.125	178.5	-10.25
18	12	12	15	31	26	-0.569020618724	-0.3546079368	-0.512747207755	-1.1923828125	-0.36279296875	0.240234375	27.1875	168.625	-9.5
18	12	12	15	31	26	-0.551251575108	-0.371325795278	-0.524396981103	-1.169921875	-0.2890625	0.1533203125	43.625	148.9375	-14.0625
18	12	12	15	31	26	-0.534758605155	-0.385658482763	-0.533354879074	-1.08447265625	-0.265625	0.12353515625	46.3125	126.125	-17.6875
18	12	12	15	31	26	-0.519152213948	-0.397390085236	-0.540819159158	-0.986328125	-0.2724609375	0.1611328125	45.875	108.625	-23.8125
18	12	12	15	31	26	-0.501453263786	-0.407522327446	-0.545519628982	-0.935546875	-0.31298828125	0.17333984375	69.8125	96.3125	-36.3125
18	12	12	15	31	26	-0.480272766363	-0.420337850037	-0.545578632421	-0.921875	-0.31591796875	0.201171875	114.875	86.3125	-49.5
18	12	12	15	31	26	-0.455367894541	-0.435104908213	-0.540936288609	-0.88720703125	-0.2724609375	0.24609375	159.0	80.25	-58.0
18	12	12	15	31	26	-0.427486588335	-0.45061871526	-0.532771334891	-0.84033203125	-0.17822265625	0.29541015625	189.3125	76.125	-66.0625
18	12	12	15	31	26	-0.398551850579	-0.464895780376	-0.523610463417	-0.78955078125	-0.04638671875	0.333984375	192.1875	72.875	-73.625
18	12	12	15	31	26	-0.371129754642	-0.476408298755	-0.515407133358	-0.75341796875	0.0107421875	0.35400390625	172.5	66.6875	-76.0625
18	12	12	15	31	26	-0.346304172605	-0.485338523185	-0.508409192421	-0.7255859375	-0.02294921875	0.37158203125	148.6875	59.125	-72.625
18	12	12	15	31	26	-0.324335803114	-0.492546091669	-0.501762257696	-0.67431640625	-0.0712890625	0.37353515625	130.4375	50.9375	-63.75
18	12	12	15	31	26	-0.305857160159	-0.49855144366	-0.495255437544	-0.6123046875	-0.0625	0.35400390625	112.375	41.375	-51.625
18	12	12	15	31	26	-0.293568278682	-0.502117719068	-0.487774986117	-0.56005859375	-0.021484375	0.3408203125	85.5	32.0	-40.4375
18	12	12	15	31	26	-0.286306315763	-0.504072449773	-0.483016027062	-0.52978515625	0.01416015625	0.306640625	49.125	23.6875	-30.4375
18	12	12	15	31	26	-0.284230548432	-0.504132344868	-0.481855310258	-0.53173828125	0.009765625	0.27490234375	8.6875	15.9375	-20.5
18	12	12	15	31	26	-0.286548108462	-0.50242045343	-0.483439311422	-0.53662109375	-0.0205078125	0.267578125	-24.5	8.625	-10.6875
18	12	12	15	31	26	-0.291622109629	-0.4999323357	-0.4860165046	-0.56640625	-0.04638671875	0.265625	-40.9375	3.5625	-2.1875
18	12	12	15	31	26	-0.298585124501	-0.497621529039	-0.488405185253	-0.634765625	-0.04150390625	0.27294921875	-47.875	1.375	5.5625
18	12	12	15	31	26	-0.30711893609	-0.495528347002	-0.490706726185	-0.7890625	-0.0419921875	0.2890625	-54.9375	1.4375	10.5625
18	12	12	15	31	26	-0.317443501164	-0.493102489118	-0.493285594387	-1.06201171875	-0.0458984375	0.35888671875	-65.5	2.625	11.875
18	12	12	15	31	26	-0.328349248387	-0.490631897357	-0.496246791567	-1.3935546875	-0.07275390625	0.3623046875	-70.75	3.625	9.5
18	12	12	15	31	26	-0.338554761073	-0.487660454475	-0.498829648864	-1.521484375	-0.25	0.28955078125	-63.8125	-3.9375	15.4375
18	12	12	15	31	26	-0.347899829445	-0.485045604316	-0.497862966454	-1.6064453125	-0.48388671875	0.365234375	-40.9375	-10.8125	33.25
18	12	12	15	31	26	-0.353757883739	-0.486081398568	-0.490353836777	-1.71240234375	-0.56396484375	0.3525390625	12.75	-14.1875	46.1875
18	12	12	15	31	26	-0.357420262564	-0.491880105192	-0.476438280324	-1.75	-0.46533203125	0.30810546875	59.625	-15.625	60.375
18	12	12	15	31	26	-0.362789415685	-0.498469239216	-0.46020057104	-1.7001953125	-0.318359375	0.2294921875	65.75	-28.375	70.3125
18	12	12	15	31	27	-0.372795151073	-0.501698778948	-0.445059306094	-1.53369140625	-0.24560546875	0.15283203125	39.6875	-53.0625	78.875
18	12	12	15	31	27	-0.387633260014	-0.499998687772	-0.431883632162	-1.33251953125	-0.283203125	0.12255859375	7.125	-80.3125	88.625
18	12	12	15	31	27	-0.406490840987	-0.495235237803	-0.417904322558	-1.1953125	-0.27880859375	0.11962890625	-9.625	-100.0625	96.625
18	12	12	15	31	27	-0.427847063191	-0.488697779596	-0.403189400776	-1.12255859375	-0.212890625	0.12548828125	-19.625	-113.1875	105.375
18	12	12	15	31	27	-0.451535133022	-0.479794225559	-0.38885243748	-1.1162109375	-0.1171875	0.14501953125	-36.4375	-122.9375	109.375
18	12	12	15	31	27	-0.477097209679	-0.468125316393	-0.375476785717	-1.1025390625	-0.07568359375	0.1611328125	-55.1875	-132.125	110.375
18	12	12	15	31	27	-0.503456131519	-0.45365370658	-0.362898552311	-1.06884765625	-0.1005859375	0.19677734375	-68.9375	-140.375	108.25
18	12	12	15	31	27	-0.529105854747	-0.43755448987	-0.350214487777	-1.0380859375	-0.1103515625	0.23876953125	-70.875	-145.5	102.5
18	12	12	15	31	27	-0.552903946164	-0.421498471377	-0.336661680874	-1.01171875	-0.08544921875	0.251953125	-62.125	-145.625	97.25
18	12	12	15	31	27	-0.57438698969	-0.406422586797	-0.322379351774	-0.96044921875	-0.05908203125	0.2470703125	-50.75	-140.9375	91.1875
18	12	12	15	31	27	-0.593498614121	-0.392634366993	-0.307857569892	-0.89794921875	-0.0478515625	0.24267578125	-39.375	-133.625	85.3125
18	12	12	15	31	27	-0.610212293263	-0.38060450698	-0.293082559737	-0.83154296875	-0.02880859375	0.25	-27.4375	-123.875	79.5625
18	12	12	15	31	27	-0.62467080805	-0.370469155336	-0.278675809434	-0.755859375	0.00634765625	0.24658203125	-16.875	-111.75	73.625
18	12	12	15	31	27	-0.636409853241	-0.362851882374	-0.266783108134	-0.673828125	0.02783203125	0.2314453125	-12.0	-99.4375	67.4375
18	12	12	15	31	27	-0.646883988156	-0.356002859035	-0.256092576121	-0.59521484375	0.04931640625	0.232421875	-11.6875	-87.75	60.9375
18	12	12	15	31	27	-0.656225191148	-0.349840289775	-0.246877873716	-0.53076171875	0.076171875	0.2412109375	-13.5	-75.3125	54.3125
18	12	12	15	31	27	-0.664884681963	-0.343855360582	-0.240161669132	-0.48291015625	0.1201171875	0.2353515625	-23.375	-61.9375	47.125
18	12	12	15	31	27	-0.672599442749	-0.337520410019	-0.236508424742	-0.44482421875	0.12646484375	0.23291015625	-34.5	-48.6875	37.625
18	12	12	15	31	27	-0.679257513455	-0.331175421691	-0.236083031902	-0.4296875	0.12548828125	0.2353515625	-43.9375	-34.0	28.5
18	12	12	15	31	27	-0.684552756164	-0.325797308524	-0.238214105502	-0.43212890625	0.1494140625	0.26318359375	-47.6875	-17.375	19.1875
18	12	12	15	31	27	-0.687961440982	-0.322008921453	-0.243581805443	-0.470703125	0.19873046875	0.30419921875	-51.75	3.75	7.25
18	12	12	15	31	27	-0.688826708684	-0.320243996143	-0.2530458563	-0.57421875	0.2802734375	0.38525390625	-56.0625	30.0625	-10.1875
18	12	12	15	31	27	-0.686336513457	-0.320798996419	-0.268003879999	-0.72802734375	0.365234375	0.4775390625	-63.375	63.5625	-32.3125
18	12	12	15	31	27	-0.679357234302	-0.322803019695	-0.290577647337	-0.92919921875	0.37255859375	0.49560546875	-75.1875	99.5625	-61.5625
18	12	12	15	31	27	-0.668206137292	-0.323055817015	-0.319515813731	-1.08935546875	0.228515625	0.49951171875	-82.5625	132.0	-83.75
18	12	12	15	31	27	-0.653495038616	-0.325984589637	-0.351130751579	-1.22705078125	0.00927734375	0.4736328125	-74.25	159.4375	-90.8125
18	12	12	15	31	27	-0.63536358589	-0.332696148577	-0.382133661023	-1.31689453125	-0.1357421875	0.416015625	-50.625	176.4375	-91.625
18	12	12	15	31	27	-0.614415901046	-0.341721926091	-0.411665367295	-1.4423828125	-0.15576171875	0.33544921875	-31.5	183.5625	-95.0625
18	12	12	15	31	27	-0.592220023107	-0.351376963107	-0.439633188338	-1.5224609375	-0.2001953125	0.21533203125	-22.0	183.125	-93.6875
18	12	12	15	31	27	-0.569810767292	-0.360282022207	-0.465748282477	-1.626953125	-0.2568359375	0.17724609375	-18.5625	175.5625	-92.0
18	12	12	15	31	27	-0.547536217732	-0.368096190965	-0.489920100294	-1.7119140625	-0.26513671875	0.0947265625	-16.5625	165.1875	-91.4375
18	12	12	15	31	27	-0.527453990649	-0.374930555954	-0.510852800478	-1.60595703125	-0.38916015625	0.00048828125	-14.125	147.5	-76.875
18	12	12	15	31	27	-0.509643089538	-0.382140764503	-0.526244636886	-1.34716796875	-0.57470703125	0.00146484375	4.125	123.6875	-56.875
18	12	12	15	31	27	-0.492424087448	-0.392389000769	-0.533744254428	-1.1015625	-0.65380859375	0.04345703125	48.375	102.625	-37.9375
18	12	12	15	31	27	-0.473923116815	-0.404162122286	-0.534834291391	-1.01708984375	-0.54248046875	0.0849609375	93.9375	81.375	-24.0
18	12	12	15	31	27	-0.459214281057	-0.417528561498	-0.529768734659	-1.00341796875	-0.32568359375	0.0830078125	108.5	58.625	-13.3125
18	12	12	15	31	27	-0.449330253197	-0.42760224856	-0.523608291521	-0.97265625	-0.1943359375	0.08447265625	88.625	32.625	-5.625
18	12	12	15	31	27	-0.444689656207	-0.433154335726	-0.517990819686	-0.91455078125	-0.1748046875	0.09716796875	57.0625	8.125	1.0625
18	12	12	15	31	27	-0.443422653412	-0.436220468539	-0.511782374241	-0.87890625	-0.18994140625	0.14111328125	43.4375	-8.125	8.9375
18	12	12	15	31	27	-0.443286831581	-0.439319649417	-0.503526966893	-0.83642578125	-0.16845703125	0.162109375	49.125	-17.5	16.0
18	12	12	15	31	27	-0.443461557879	-0.443339493041	-0.492836785009	-0.77490234375	-0.1162109375	0.19091796875	61.5625	-22.1875	21.4375
18	12	12	15	31	27	-0.443408565899	-0.447986080344	-0.480089714984	-0.708984375	-0.05712890625	0.216796875	72.875	-25.4375	22.4375
18	12	12	15	31	27	-0.442920372763	-0.452624705031	-0.465991049475	-0.63818359375	-0.021484375	0.24853515625	80.75	-28.3125	21.1875
18	12	12	15	31	27	-0.442084152694	-0.456854878216	-0.451056452908	-0.57568359375	0.0048828125	0.2685546875	85.625	-31.625	18.75
18	12	12	15	31	27	-0.440773569316	-0.460731054385	-0.43546377971	-0.54150390625	0.025390625	0.2861328125	89.375	-33.75	16.0
18	12	12	15	31	27	-0.438656295971	-0.464657072663	-0.419552438918	-0.5166015625	0.04345703125	0.29345703125	92.9375	-33.1875	13.1875
18	12	12	15	31	27	-0.435725927343	-0.468623570548	-0.403926906732	-0.50732421875	0.068359375	0.30419921875	93.625	-29.0625	8.9375
18	12	12	15	31	27	-0.432245442204	-0.472955370183	-0.389338276732	-0.51025390625	0.11376953125	0.318359375	88.9375	-21.25	4.9375
18	12	12	15	31	27	-0.427964023772	-0.477278760111	-0.376940360927	-0.544921875	0.12939453125	0.31689453125	80.125	-11.625	-2.0
18	12	12	15	31	27	-0.422837474214	-0.481185139536	-0.367419398783	-0.62890625	0.1025390625	0.3291015625	68.625	-2.375	-10.0625
18	12	12	15	31	28	-0.416371991956	-0.484973885676	-0.36052614431	-0.75146484375	0.04736328125	0.34521484375	61.0	6.6875	-17.875
18	12	12	15	31	28	-0.408242355963	-0.488987555087	-0.355754924938	-0.88818359375	-0.0283203125	0.35400390625	58.6875	15.5	-24.625
18	12	12	15	31	28	-0.398495488208	-0.493648569249	-0.352170158824	-0.9765625	-0.1123046875	0.3603515625	60.5	23.8125	-27.25
18	12	12	15	31	28	-0.388297860153	-0.49876927274	-0.349297179135	-1.03173828125	-0.16357421875	0.408203125	59.4375	33.1875	-25.625
18	12	12	15	31	28	-0.378529920782	-0.504564149485	-0.347585923711	-1.0751953125	-0.19677734375	0.43505859375	52.0	43.375	-21.25
18	12	12	15	31	28	-0.36986960359	-0.510676398224	-0.348080255656	-1.14501953125	-0.2041015625	0.45166015625	36.375	54.4375	-18.0
18	12	12	15	31	28	-0.36284190647	-0.516767438533	-0.351001480926	-1.244140625	-0.2021484375	0.47802734375	16.875	64.6875	-15.375
18	12	12	15	31	28	-0.356623414112	-0.523186018443	-0.356074105413	-1.337890625	-0.2275390625	0.45654296875	2.5	73.3125	-13.4375
18	12	12	15	31	28	-0.351317765853	-0.529357015851	-0.36236511047	-1.52197265625	-0.2021484375	0.5087890625	-8.5	80.25	-15.5625
18	12	12	15	31	28	-0.345457784314	-0.536253019962	-0.369566587283	-1.69384765625	-0.15576171875	0.42626953125	-12.125	84.125	-22.5
18	12	12	15	31	28	-0.33977871059	-0.542413041318	-0.376887648266	-1.67529296875	-0.26513671875	0.30078125	-12.25	74.875	-17.0625
18	12	12	15	31	28	-0.335810339444	-0.545768094385	-0.381524978528	-1.47119140625	-0.3994140625	0.35693359375	-6.4375	54.25	-2.75
18	12	12	15	31	28	-0.332570223438	-0.548444857371	-0.385730191252	-1.06298828125	-0.37646484375	0.0830078125	-5.375	33.0625	1.3125
18	12	12	15	31	28	-0.334283329931	-0.548207571561	-0.386772587506	-1.00537109375	-0.32568359375	0.2138671875	-12.625	9.0	17.375
18	12	12	15	31	28	-0.335201531146	-0.548334041481	-0.383052587304	-0.92919921875	-0.22265625	0.20654296875	14.5625	-6.125	18.25
18	12	12	15	31	28	-0.339698483049	-0.547325906572	-0.381016462392	-0.98388671875	-0.05615234375	0.13525390625	-9.75	-15.25	16.5
18	12	12	15	31	28	-0.349662317236	-0.542834115813	-0.382193302589	-1.00537109375	0.04931640625	0.107421875	-50.5625	-30.8125	16.0625
18	12	12	15	31	28	-0.363579709853	-0.53392568437	-0.386467470671	-0.99462890625	-0.02392578125	0.130859375	-84.3125	-47.4375	18.5625
18	12	12	15	31	28	-0.378594719121	-0.52214699695	-0.391533955048	-0.96337890625	-0.10693359375	0.15966796875	-94.25	-60.0	18.75
18	12	12	15	31	28	-0.393135540418	-0.509837163346	-0.394600414346	-0.93310546875	-0.1259765625	0.1669921875	-83.25	-69.6875	20.375
18	12	12	15	31	28	-0.406665439527	-0.497788282273	-0.394702896206	-0.89208984375	-0.15478515625	0.17919921875	-64.4375	-78.125	24.3125
18	12	12	15	31	28	-0.418761877869	-0.486571883162	-0.391418149363	-0.8564453125	-0.15478515625	0.197265625	-41.125	-84.75	27.125
18	12	12	15	31	28	-0.429681254963	-0.476738676494	-0.384943135661	-0.82080078125	-0.119140625	0.1884765625	-20.0625	-90.125	30.0
18	12	12	15	31	28	-0.44017571485	-0.467762989269	-0.376090232239	-0.79248046875	-0.07275390625	0.18212890625	-6.625	-94.875	32.8125
18	12	12	15	31	28	-0.45054856535	-0.459215308276	-0.365834204918	-0.75732421875	-0.04248046875	0.1787109375	-0.0625	-98.0625	35.5
18	12	12	15	31	28	-0.460997289221	-0.45098755065	-0.354979509349	-0.72216796875	-0.0029296875	0.1796875	1.125	-98.4375	37.3125
18	12	12	15	31	28	-0.471785738118	-0.442795023292	-0.344470725218	-0.70263671875	0.03955078125	0.18017578125	-3.3125	-96.8125	38.25
18	12	12	15	31	28	-0.483007300915	-0.434425823593	-0.335126748714	-0.68994140625	0.08251953125	0.17578125	-13.0	-93.5	37.75
18	12	12	15	31	28	-0.494432456364	-0.425403557691	-0.327810976809	-0.6953125	0.1015625	0.1865234375	-26.0	-89.0625	34.9375
18	12	12	15	31	28	-0.505606652136	-0.415825461251	-0.322748427873	-0.74658203125	0.111328125	0.2177734375	-38.1875	-82.8125	29.6875
18	12	12	15	31	28	-0.516041182782	-0.406241290668	-0.320244599179	-0.822265625	0.126953125	0.25048828125	-48.5625	-73.4375	22.75
18	12	12	15	31	28	-0.525189129901	-0.397263921734	-0.320423350608	-0.92529296875	0.14892578125	0.2880859375	-57.0625	-60.625	13.4375
18	12	12	15	31	28	-0.53196236136	-0.389328579981	-0.324023425477	-1.0546875	0.123046875	0.30029296875	-62.75	-45.0625	1.5
18	12	12	15	31	28	-0.536306315164	-0.38256150944	-0.330194283036	-1.138671875	0.0263671875	0.31884765625	-60.5625	-29.625	-5.8125
18	12	12	15	31	28	-0.538512587778	-0.378295479887	-0.337279900267	-1.173828125	-0.07373046875	0.3349609375	-49.5	-12.375	-5.6875
18	12	12	15	31	28	-0.538367284576	-0.377119538759	-0.344284078029	-1.1787109375	-0.12158203125	0.337890625	-33.0625	4.1875	-6.5
18	12	12	15	31	28	-0.536489146557	-0.379021342448	-0.351189823582	-1.21923828125	-0.13720703125	0.31787109375	-19.5625	18.875	-5.5625
18	12	12	15	31	28	-0.53385509874	-0.38249341532	-0.359117800501	-1.26416015625	-0.13623046875	0.27978515625	-19.4375	29.125	-4.8125
18	12	12	15	31	28	-0.53160155442	-0.385853619638	-0.368825280524	-1.302734375	-0.15966796875	0.23876953125	-29.3125	34.875	-3.0
18	12	12	15	31	28	-0.529951347836	-0.388537404161	-0.380542053871	-1.39794921875	-0.1552734375	0.24462890625	-43.875	39.75	-3.5
18	12	12	15	31	28	-0.528840265627	-0.390603312177	-0.394265218228	-1.47021484375	-0.1259765625	0.287109375	-59.875	49.4375	-5.5625
18	12	12	15	31	28	-0.52793712315	-0.392748599708	-0.409776860674	-1.41552734375	-0.08154296875	0.30859375	-72.3125	64.4375	-6.375
18	12	12	15	31	28	-0.526037103313	-0.394268440353	-0.428080315888	-1.29296875	-0.18896484375	0.2783203125	-82.625	80.625	-7.625
18	12	12	15	31	28	-0.520863609586	-0.395438871163	-0.447256682803	-1.1865234375	-0.37109375	0.228515625	-71.8125	88.5625	-14.875
18	12	12	15	31	28	-0.513547810269	-0.398374917712	-0.464109525706	-1.10009765625	-0.47314453125	0.1435546875	-47.9375	88.375	-11.25
18	12	12	15	31	28	-0.505913496275	-0.402460320236	-0.477898742409	-1.095703125	-0.423828125	0.052734375	-30.75	77.9375	-10.0
18	12	12	15	31	28	-0.498711518715	-0.406976919201	-0.488701888429	-1.1435546875	-0.3564453125	-0.01171875	-17.875	63.375	-9.4375
18	12	12	15	31	28	-0.49155958386	-0.410507792531	-0.496686353794	-1.13134765625	-0.37744140625	-0.05712890625	-3.6875	44.6875	-12.25
18	12	12	15	31	28	-0.483807622844	-0.413802911931	-0.500469598501	-1.0341796875	-0.43310546875	-0.0537109375	22.9375	26.4375	-12.625
18	12	12	15	31	28	-0.474902283661	-0.418507256017	-0.498461245426	-0.9404296875	-0.43505859375	0.015625	61.3125	13.25	-10.375
18	12	12	15	31	29	-0.465441824804	-0.42674655639	-0.489428008537	-0.8369140625	-0.35400390625	0.064453125	102.5	7.375	-8.625
18	12	12	15	31	29	-0.453471454855	-0.437053713084	-0.476724836321	-0.74755859375	-0.24658203125	0.10107421875	134.125	5.6875	-11.125
18	12	12	15	31	29	-0.440607219665	-0.447137898776	-0.462457529215	-0.66748046875	-0.14111328125	0.1318359375	143.625	1.5	-15.1875
18	12	12	15	31	29	-0.428040358434	-0.455567265842	-0.448792350715	-0.60888671875	-0.033203125	0.181640625	135.4375	-1.9375	-20.5625
18	12	12	15	31	29	-0.416015691641	-0.461975171659	-0.436828683256	-0.583984375	0.033203125	0.22021484375	119.5	-3.1875	-27.0625
18	12	12	15	31	29	-0.404529821097	-0.466906024652	-0.426623936251	-0.55859375	0.05078125	0.263671875	105.375	-2.25	-30.875
18	12	12	15	31	29	-0.394096644267	-0.470938470988	-0.416007856176	-0.537109375	0.01953125	0.2890625	98.0	0.6875	-32.875
18	12	12	15	31	29	-0.383172363216	-0.474906683369	-0.405816031065	-0.5283203125	-0.013671875	0.3095703125	96.9375	4.5625	-32.875
18	12	12	15	31	29	-0.372425833717	-0.479051191224	-0.395801627607	-0.52685546875	-0.0009765625	0.32666015625	93.9375	8.625	-31.3125
18	12	12	15	31	29	-0.362288577998	-0.482766619266	-0.387372911818	-0.5576171875	0.0224609375	0.33544921875	81.375	12.0625	-33.3125
18	12	12	15	31	29	-0.353514990891	-0.485533797054	-0.381896287639	-0.61083984375	0.01611328125	0.34130859375	59.1875	16.3125	-34.6875
18	12	12	15	31	29	-0.345994743428	-0.487163528319	-0.380112058929	-0.70556640625	-0.0205078125	0.36181640625	34.625	22.0	-37.125
18	12	12	15	31	29	-0.339401305274	-0.488564547513	-0.381086450302	-0.8466796875	-0.0458984375	0.39892578125	15.75	30.1875	-39.375
18	12	12	15	31	29	-0.332828216535	-0.490666794925	-0.384098288402	-0.99267578125	-0.060546875	0.439453125	4.6875	42.3125	-41.4375
18	12	12	15	31	29	-0.325559657544	-0.49425986254	-0.388303438562	-1.126953125	-0.0654296875	0.486328125	0.125	58.5	-44.625
18	12	12	15	31	29	-0.316637117846	-0.499734911512	-0.393233028196	-1.2119140625	-0.1103515625	0.51904296875	2.5625	77.25	-46.0625
18	12	12	15	31	29	-0.305228533001	-0.50749355167	-0.397938419349	-1.22119140625	-0.2216796875	0.51220703125	14.1875	94.625	-42.5625
18	12	12	15	31	29	-0.291249379215	-0.518841360585	-0.402756633161	-1.32275390625	-0.27685546875	0.61083984375	27.5625	107.8125	-36.6875
18	12	12	15	31	29	-0.275935213442	-0.531423999877	-0.406853380404	-1.38330078125	-0.17578125	0.51416015625	35.25	115.1875	-38.0
18	12	12	15	31	29	-0.263553987744	-0.543160476363	-0.410834157366	-1.30078125	-0.17041015625	0.38525390625	22.9375	106.5625	-26.5
18	12	12	15	31	29	-0.257688468488	-0.550532919413	-0.414852799695	-1.17431640625	-0.15966796875	0.26953125	-5.6875	82.1875	-21.0
18	12	12	15	31	29	-0.257446909578	-0.554261589824	-0.420594275463	-1.140625	-0.13134765625	0.18115234375	-34.6875	53.625	-14.1875
18	12	12	15	31	29	-0.262505007776	-0.554367120583	-0.427661611134	-1.18212890625	-0.1328125	0.12646484375	-61.25	26.25	-7.5625
18	12	12	15	31	29	-0.272202547035	-0.551484801572	-0.435463043295	-1.22216796875	-0.17431640625	0.091796875	-82.6875	2.875	3.25
18	12	12	15	31	29	-0.285151702446	-0.546194902652	-0.442375757562	-1.2080078125	-0.26806640625	0.03955078125	-90.0	-21.8125	17.9375
18	12	12	15	31	29	-0.300413551745	-0.538937761461	-0.446347887833	-1.13720703125	-0.34716796875	0.04541015625	-83.8125	-46.8125	35.5
18	12	12	15	31	29	-0.317439662031	-0.530571617388	-0.446100074944	-1.06787109375	-0.35302734375	0.072265625	-69.3125	-69.6875	50.25
18	12	12	15	31	29	-0.336247837871	-0.521553417065	-0.442023387523	-1.0185546875	-0.29248046875	0.08740234375	-56.875	-89.4375	62.0
18	12	12	15	31	29	-0.357168733934	-0.51152275446	-0.435535899753	-0.97021484375	-0.26318359375	0.1005859375	-54.75	-106.3125	70.1875
18	12	12	15	31	29	-0.378356678476	-0.500243803322	-0.425780962906	-0.8984375	-0.30126953125	0.1318359375	-40.4375	-124.3125	75.3125
18	12	12	15	31	29	-0.397382620191	-0.489358600629	-0.409650153083	-0.8447265625	-0.30615234375	0.220703125	0.0	-141.8125	77.875
18	12	12	15	31	29	-0.413514574633	-0.480409330913	-0.38696419235	-0.7958984375	-0.1865234375	0.28759765625	44.25	-150.875	81.4375
18	12	12	15	31	29	-0.427682722551	-0.472910765566	-0.359565993798	-0.763671875	-0.05810546875	0.29541015625	74.0	-156.0625	85.6875
18	12	12	15	31	29	-0.441338123021	-0.465080417289	-0.331354538775	-0.74609375	0.0869140625	0.31591796875	75.5	-156.875	84.8125
18	12	12	15	31	29	-0.455556927298	-0.45586209673	-0.305718736447	-0.744140625	0.1962890625	0.32666015625	55.625	-151.4375	81.875
18	12	12	15	31	29	-0.471113425665	-0.444258922842	-0.285817356185	-0.74267578125	0.23095703125	0.31494140625	17.375	-141.25	76.1875
18	12	12	15	31	29	-0.488133277632	-0.430030891998	-0.272385448621	-0.7333984375	0.22509765625	0.32275390625	-25.0	-129.5	69.9375
18	12	12	15	31	29	-0.505602131875	-0.414051769995	-0.264641579407	-0.73291015625	0.193359375	0.3427734375	-57.25	-115.875	62.1875
18	12	12	15	31	29	-0.522566875648	-0.398852433119	-0.261222404552	-0.76220703125	0.17529296875	0.37060546875	-79.375	-99.375	53.0
18	12	12	15	31	29	-0.538127865364	-0.38420266672	-0.262624952326	-0.8359375	0.17333984375	0.40234375	-96.8125	-79.5	42.6875
18	12	12	15	31	29	-0.552356306765	-0.367850990152	-0.269403396471	-0.9189453125	0.1875	0.42822265625	-117.9375	-59.0	30.9375
18	12	12	15	31	29	-0.566147179518	-0.350637725995	-0.281852918824	-0.97216796875	0.14306640625	0.416015625	-146.0	-39.875	22.875
18	12	12	15	31	29	-0.579833291	-0.331481537202	-0.300048469322	-1.0	0.06591796875	0.40380859375	-178.125	-24.625	16.5625
18	12	12	15	31	29	-0.592955361192	-0.31091246628	-0.322753262994	-1.046875	0.02197265625	0.40771484375	-203.5625	-9.75	11.75
18	12	12	15	31	29	-0.604808163545	-0.289800096933	-0.348516965773	-1.1083984375	-0.02197265625	0.3466796875	-218.1875	3.4375	7.25
18	12	12	15	31	29	-0.61547936283	-0.269165409568	-0.374756375226	-1.16552734375	-0.140625	0.3388671875	-219.0	11.6875	9.4375
18	12	12	15	31	29	-0.62399442185	-0.25023250485	-0.400494072396	-1.32080078125	-0.15283203125	0.37744140625	-209.3125	20.75	6.6875
18	12	12	15	31	29	-0.629454100846	-0.235717224616	-0.424620593386	-1.41943359375	-0.1591796875	0.35595703125	-182.3125	36.9375	5.9375
18	12	12	15	31	29	-0.631875726527	-0.226615915444	-0.446213023919	-1.42626953125	-0.2099609375	0.353515625	-146.8125	52.9375	7.6875
18	12	12	15	31	30	-0.631583893757	-0.222470360721	-0.464960002188	-1.43701171875	-0.26171875	0.30810546875	-110.0	63.8125	7.1875
18	12	12	15	31	30	-0.628109377909	-0.225279536863	-0.48235821724	-1.40869140625	-0.36865234375	0.1845703125	-66.375	64.3125	12.5
18	12	12	15	31	30	-0.624310013484	-0.230889117315	-0.494064870384	-1.25537109375	-0.5302734375	0.037109375	-20.6875	47.6875	26.625
18	12	12	15	31	30	-0.621756323553	-0.238766146828	-0.498467055508	-1.11962890625	-0.63037109375	-0.03466796875	23.25	21.0625	42.9375
18	12	12	15	31	30	-0.621192636705	-0.24986860431	-0.495770071522	-1.12548828125	-0.56201171875	-0.03662109375	59.5625	-2.9375	56.1875
18	12	12	15	31	30	-0.622409156957	-0.263477184799	-0.488992171557	-1.18212890625	-0.41455078125	-0.05029296875	75.875	-17.125	66.375
18	12	12	15	31	30	-0.625587212516	-0.276479031483	-0.481122341099	-1.1962890625	-0.25634765625	-0.01611328125	65.125	-24.75	69.75
18	12	12	15	31	30	-0.6302819656	-0.286486254142	-0.474222026988	-1.13623046875	-0.1865234375	0.029296875	43.0625	-28.25	68.6875
18	12	12	15	31	30	-0.635096247615	-0.293684714926	-0.467258972875	-1.0615234375	-0.2119140625	0.091796875	35.5	-33.5625	62.0625
18	12	12	15	31	30	-0.637425113618	-0.301623411672	-0.457867024355	-0.97412109375	-0.181640625	0.13525390625	60.625	-36.0	44.625
