18	11	28	12	28	14	-0.439568310415	-0.506950067524	-0.317805080857	-1.27392578125	-0.11962890625	0.36083984375	31.625	41.6875	-34.75
18	11	28	12	28	14	-0.42912737863	-0.517198891553	-0.315177611043	-1.42724609375	-0.052734375	0.40478515625	68.25	51.8125	-8.3125
18	11	28	12	28	14	-0.419730678665	-0.53307077904	-0.307367121965	-1.59912109375	0.24365234375	0.345703125	87.9375	63.6875	10.1875
18	11	28	12	28	14	-0.416065375019	-0.548569105277	-0.300834125491	-1.71337890625	0.46630859375	0.3017578125	54.3125	67.0	25.5625
18	11	28	12	28	14	-0.422413457831	-0.558335256789	-0.298698376336	-1.5	0.537109375	0.3466796875	-13.875	59.5	46.0
18	11	28	12	28	14	-0.436577005214	-0.563344856442	-0.300226798357	-1.2978515625	0.45556640625	0.37841796875	-67.375	53.5625	70.25
18	11	28	12	28	14	-0.456107480238	-0.56596877616	-0.302973040533	-1.13427734375	0.3935546875	0.3505859375	-98.25	49.5	94.625
18	11	28	12	28	14	-0.47642026923	-0.568030162148	-0.307787268477	-1.109375	0.4404296875	0.22314453125	-113.0	49.9375	107.875
18	11	28	12	28	14	-0.49876623589	-0.568161391325	-0.313407320276	-1.1357421875	0.40283203125	0.09716796875	-130.5625	45.3125	114.875
18	11	28	12	28	14	-0.523184130881	-0.566274191124	-0.318414793608	-1.11572265625	0.36279296875	0.015625	-143.8125	36.625	125.25
18	11	28	12	28	14	-0.547400553822	-0.563818298161	-0.321702343538	-1.11279296875	0.27734375	-0.0556640625	-140.25	29.8125	132.5625
18	11	28	12	28	14	-0.569736822499	-0.562107780955	-0.322006585485	-1.158203125	0.234375	-0.111328125	-121.0625	21.9375	136.75
18	11	28	12	28	14	-0.589704124069	-0.5619339547	-0.318899197709	-1.162109375	0.1875	-0.13916015625	-96.0625	15.3125	140.6875
18	11	28	12	28	14	-0.607094428492	-0.56400518887	-0.312427503715	-1.09375	0.1533203125	-0.10791015625	-68.875	11.75	146.25
18	11	28	12	28	14	-0.621806449119	-0.568768580618	-0.302602706589	-0.98193359375	0.1357421875	-0.0673828125	-39.75	10.375	151.25
18	11	28	12	28	14	-0.634296061298	-0.575645189086	-0.290446931177	-0.8515625	0.166015625	-0.029296875	-18.5	10.625	154.9375
18	11	28	12	28	14	-0.645664016609	-0.583227653154	-0.277210129827	-0.71826171875	0.22802734375	0.0087890625	-9.625	12.125	156.125
18	11	28	12	28	14	-0.656642928231	-0.590057052712	-0.264451511109	-0.59521484375	0.287109375	0.01611328125	-13.125	14.5	152.75
18	11	28	12	28	14	-0.667965933174	-0.594601984739	-0.25317276049	-0.52001953125	0.3154296875	0.0068359375	-26.0	14.0	143.6875
18	11	28	12	28	14	-0.680218578102	-0.595931287267	-0.243706844537	-0.455078125	0.33349609375	0.0126953125	-44.5625	11.0	132.1875
18	11	28	12	28	14	-0.693195474391	-0.594141393132	-0.236130770419	-0.42041015625	0.33984375	0.01904296875	-61.5	8.0625	118.875
18	11	28	12	28	14	-0.705916458912	-0.59001335019	-0.230707609778	-0.431640625	0.34521484375	0.01025390625	-72.125	6.375	101.6875
18	11	28	12	28	15	-0.717020206657	-0.584455694497	-0.228325893182	-0.47509765625	0.3505859375	0.0166015625	-77.3125	3.875	80.4375
18	11	28	12	28	15	-0.726408892316	-0.577611641479	-0.228688801841	-0.5615234375	0.35498046875	0.0283203125	-77.1875	2.0625	56.9375
18	11	28	12	28	15	-0.733736295627	-0.569619102237	-0.232534959769	-0.7060546875	0.3720703125	0.04541015625	-75.5	1.9375	30.0625
18	11	28	12	28	15	-0.739208660773	-0.559594138922	-0.240767682195	-0.880859375	0.33837890625	0.064453125	-78.1875	2.0	-0.125
18	11	28	12	28	15	-0.74208451366	-0.548736068946	-0.252732294684	-1.0498046875	0.3017578125	0.10791015625	-71.25	4.25	-27.75
18	11	28	12	28	15	-0.740650293542	-0.539054255671	-0.268123340711	-1.18701171875	0.2421875	0.0947265625	-51.375	8.4375	-56.875
18	11	28	12	28	15	-0.73349736125	-0.532209767856	-0.286551016065	-1.31884765625	0.24560546875	0.1015625	-19.8125	19.1875	-89.875
18	11	28	12	28	15	-0.722449700694	-0.529523832324	-0.302602485092	-1.45947265625	0.24853515625	0.06396484375	18.0	29.9375	-124.75
18	11	28	12	28	15	-0.706068510167	-0.528590143189	-0.320718300711	-1.576171875	0.330078125	0.00439453125	44.3125	35.8125	-158.375
18	11	28	12	28	15	-0.686631544368	-0.52690578867	-0.339592703366	-1.5732421875	0.2880859375	0.01123046875	55.5625	33.4375	-183.375
18	11	28	12	28	15	-0.664894055034	-0.524640104376	-0.357348512229	-1.5048828125	0.28955078125	0.04541015625	67.875	26.375	-197.625
18	11	28	12	28	15	-0.642128831149	-0.521344404113	-0.372667868358	-1.3583984375	0.25390625	0.04443359375	76.1875	12.75	-203.125
18	11	28	12	28	15	-0.619738032948	-0.516346637654	-0.384940690743	-1.1455078125	0.14599609375	0.11328125	78.3125	-3.625	-200.0625
18	11	28	12	28	15	-0.596596494479	-0.512004909686	-0.393112841017	-0.98486328125	0.10791015625	0.1875	95.25	-14.9375	-192.0625
18	11	28	12	28	15	-0.571138004689	-0.50949562547	-0.397074573468	-0.95947265625	0.14697265625	0.1796875	122.1875	-22.6875	-187.9375
18	11	28	12	28	15	-0.544600384912	-0.507492121545	-0.397387998001	-0.9931640625	0.10205078125	0.212890625	138.5625	-31.6875	-180.5625
18	11	28	12	28	15	-0.516973598284	-0.506292325593	-0.394352587782	-1.00439453125	0.056640625	0.21484375	154.4375	-36.6875	-171.8125
18	11	28	12	28	15	-0.487416363563	-0.506092723098	-0.388602552818	-1.02978515625	0.0400390625	0.15625	170.75	-37.3125	-167.875
18	11	28	12	28	15	-0.456839155403	-0.506398727105	-0.38030257546	-1.07763671875	0.0712890625	0.1416015625	181.4375	-38.3125	-161.125
18	11	28	12	28	15	-0.426758023943	-0.506958258992	-0.369690124574	-1.0810546875	0.07373046875	0.158203125	184.4375	-38.75	-147.625
18	11	28	12	28	15	-0.397592719821	-0.508374234477	-0.356515056259	-1.0556640625	0.0751953125	0.18994140625	188.1875	-36.5	-129.75
18	11	28	12	28	15	-0.369628139966	-0.511168373879	-0.34069753588	-0.99462890625	0.09765625	0.19677734375	192.6875	-31.875	-109.125
18	11	28	12	28	15	-0.343923978843	-0.514756847837	-0.322928442246	-0.91455078125	0.16015625	0.18798828125	189.5	-28.9375	-87.75
18	11	28	12	28	15	-0.322026697466	-0.517708576176	-0.305363830064	-0.8466796875	0.259765625	0.17724609375	169.625	-28.8125	-69.5
18	11	28	12	28	15	-0.305105801122	-0.518722585265	-0.290823993268	-0.7685546875	0.3349609375	0.17578125	132.625	-30.625	-55.875
18	11	28	12	28	15	-0.295474925656	-0.51941574413	-0.278140722209	-0.69091796875	0.365234375	0.15771484375	88.375	-31.5	-46.125
18	11	28	12	28	15	-0.290215792568	-0.518177093354	-0.270379802539	-0.62646484375	0.341796875	0.14208984375	47.5625	-31.3125	-38.4375
18	11	28	12	28	15	-0.288017832763	-0.516039579574	-0.265984682174	-0.599609375	0.31982421875	0.11865234375	20.0	-30.125	-32.0
18	11	28	12	28	15	-0.287539848545	-0.513799712387	-0.264102085471	-0.6171875	0.27490234375	0.1064453125	2.4375	-26.4375	-26.125
18	11	28	12	28	15	-0.288026868593	-0.512271563488	-0.263368497135	-0.67724609375	0.22412109375	0.111328125	-5.3125	-20.5	-20.0
18	11	28	12	28	15	-0.288813897587	-0.511588776327	-0.262996425339	-0.75048828125	0.16845703125	0.16259765625	-6.5	-12.9375	-13.375
18	11	28	12	28	15	-0.289603082663	-0.51225261808	-0.261039490948	-0.84130859375	0.14306640625	0.232421875	2.0	-5.875	-5.4375
18	11	28	12	28	15	-0.289605141017	-0.515185878888	-0.255731410087	-0.9482421875	0.20947265625	0.26611328125	21.125	-0.5625	0.3125
18	11	28	12	28	15	-0.289679604364	-0.519116105165	-0.249151315848	-1.025390625	0.2587890625	0.30078125	26.5625	3.4375	3.3125
18	11	28	12	28	15	-0.290036772991	-0.523799576138	-0.24285696964	-1.13232421875	0.2724609375	0.33837890625	24.3125	9.5	5.75
18	11	28	12	28	15	-0.290528714491	-0.529604549504	-0.237244771686	-1.22802734375	0.28125	0.35400390625	21.25	17.6875	7.375
18	11	28	12	28	15	-0.29198082438	-0.535684718976	-0.233999682415	-1.2998046875	0.26171875	0.37841796875	7.6875	26.9375	9.5
18	11	28	12	28	15	-0.295042689021	-0.541501600537	-0.233214339005	-1.330078125	0.21826171875	0.41943359375	-8.9375	35.25	14.25
18	11	28	12	28	15	-0.299748465702	-0.547677251629	-0.233707366152	-1.37451171875	0.2509765625	0.44482421875	-21.125	42.8125	18.875
18	11	28	12	28	15	-0.306394185019	-0.554072990358	-0.236570490265	-1.48193359375	0.26220703125	0.40087890625	-38.875	48.25	23.3125
18	11	28	12	28	15	-0.316401893006	-0.559440538445	-0.242062096386	-1.5048828125	0.27294921875	0.37158203125	-64.4375	48.25	31.5
18	11	28	12	28	15	-0.329033367233	-0.563220165615	-0.249811458372	-1.48046875	0.19140625	0.31884765625	-84.625	45.0625	41.4375
18	11	28	12	28	15	-0.344292546964	-0.564991332609	-0.258722940362	-1.37255859375	0.037109375	0.3037109375	-99.4375	39.25	58.5
18	11	28	12	28	15	-0.363633066154	-0.566017632681	-0.266285845524	-1.142578125	-0.00927734375	0.29931640625	-110.9375	34.6875	82.5625
18	11	28	12	28	15	-0.386524853942	-0.566695605376	-0.273002632509	-1.01123046875	0.03955078125	0.23291015625	-123.3125	33.25	103.1875
18	11	28	12	28	15	-0.413011032224	-0.565593798673	-0.280874356479	-1.05419921875	0.04248046875	0.1337890625	-147.4375	29.875	116.75
18	11	28	12	28	15	-0.443033909298	-0.561558754574	-0.289842682912	-1.08056640625	-0.00537109375	0.0859375	-173.3125	21.25	127.9375
18	11	28	12	28	15	-0.474966564797	-0.555043168885	-0.298639347411	-1.0908203125	0.00830078125	0.0458984375	-187.3125	12.625	135.8125
18	11	28	12	28	15	-0.507004158046	-0.546614811539	-0.306875756188	-1.109375	0.01123046875	-0.00537109375	-192.5	5.25	137.0
18	11	28	12	28	15	-0.538140569587	-0.536675743266	-0.313778004792	-1.10595703125	-0.01953125	-0.02734375	-189.625	-2.8125	136.375
18	11	28	12	28	16	-0.566817861255	-0.526963003562	-0.317862325984	-1.08349609375	-0.06005859375	-0.005859375	-169.5625	-9.0625	135.5
18	11	28	12	28	16	-0.591293604292	-0.519945315335	-0.317679935006	-1.01953125	-0.05078125	0.01806640625	-131.25	-12.8125	133.6875
18	11	28	12	28	16	-0.610810088482	-0.516881558688	-0.312912002762	-0.93701171875	-0.025390625	0.03857421875	-84.0625	-15.1875	129.4375
18	11	28	12	28	16	-0.626076716408	-0.517743106385	-0.304310636383	-0.84375	0.05126953125	0.04345703125	-42.5625	-15.75	125.875
18	11	28	12	28	16	-0.638206097879	-0.521086703996	-0.29392756693	-0.77392578125	0.1494140625	0.009765625	-17.375	-14.625	120.125
18	11	28	12	28	16	-0.648718110864	-0.524638336719	-0.283680664154	-0.70751953125	0.21923828125	-0.0283203125	-11.0625	-13.9375	110.625
18	11	28	12	28	16	-0.657198884318	-0.527992900096	-0.276538646438	-0.66650390625	0.2607421875	-0.05615234375	-18.875	-14.0	97.375
18	11	28	12	28	16	-0.665695240117	-0.528857546127	-0.271722307601	-0.6396484375	0.26123046875	-0.07568359375	-33.8125	-15.5	82.625
18	11	28	12	28	16	-0.674052688571	-0.527145334225	-0.26927928848	-0.62353515625	0.2421875	-0.072265625	-46.875	-16.4375	67.5625
18	11	28	12	28	16	-0.681689397065	-0.523672220147	-0.269038128952	-0.62646484375	0.20947265625	-0.0732421875	-54.3125	-16.5	52.5
18	11	28	12	28	16	-0.688576304856	-0.518782005963	-0.270376974872	-0.63232421875	0.16259765625	-0.03564453125	-57.1875	-15.9375	40.8125
18	11	28	12	28	16	-0.694320467545	-0.513660430279	-0.272760035993	-0.65478515625	0.142578125	0.00244140625	-53.125	-12.625	31.25
18	11	28	12	28	16	-0.698213138315	-0.509073058277	-0.276233624477	-0.7060546875	0.13525390625	0.04052734375	-44.875	-8.25	20.625
18	11	28	12	28	16	-0.701076623309	-0.504308882946	-0.280748016647	-0.7421875	0.09814453125	0.0810546875	-41.1875	-4.375	13.0625
18	11	28	12	28	16	-0.70335417159	-0.49950108819	-0.285943621477	-0.77783203125	0.1142578125	0.150390625	-38.6875	0.375	7.6875
18	11	28	12	28	16	-0.704084103265	-0.495410078554	-0.292351148981	-0.8388671875	0.15625	0.171875	-33.375	7.3125	-2.25
18	11	28	12	28	16	-0.703330540907	-0.491061917055	-0.300703711823	-0.947265625	0.18310546875	0.189453125	-33.0	11.9375	-16.1875
18	11	28	12	28	16	-0.701131491987	-0.485872894125	-0.310956210975	-1.0869140625	0.2255859375	0.20849609375	-34.75	13.1875	-33.1875
18	11	28	12	28	16	-0.696650090795	-0.480037932723	-0.323361852202	-1.2666015625	0.2412109375	0.1962890625	-32.375	13.0	-54.1875
18	11	28	12	28	16	-0.689327160412	-0.473263927912	-0.337888716136	-1.44140625	0.18310546875	0.216796875	-26.0	12.9375	-77.375
18	11	28	12	28	16	-0.678936527699	-0.46702825512	-0.352895631352	-1.51513671875	0.15283203125	0.22265625	-10.875	14.125	-97.1875
18	11	28	12	28	16	-0.66740624897	-0.461904937559	-0.364555786475	-1.56591796875	0.06689453125	0.22412109375	8.8125	15.4375	-115.8125
18	11	28	12	28	16	-0.652138740159	-0.458358627851	-0.375963934429	-1.59228515625	0.0078125	0.27587890625	31.875	19.5625	-132.6875
18	11	28	12	28	16	-0.631954361146	-0.457638960776	-0.387265831705	-1.58642578125	0.0703125	0.25830078125	60.25	31.375	-151.625
18	11	28	12	28	16	-0.608577337462	-0.457089126492	-0.39965544135	-1.52294921875	0.05712890625	0.2451171875	68.1875	40.4375	-168.0
18	11	28	12	28	16	-0.585536476655	-0.45517313351	-0.411962811906	-1.330078125	-0.02734375	0.2939453125	60.8125	40.75	-166.0625
18	11	28	12	28	16	-0.563571952341	-0.453042517027	-0.421855028653	-1.0595703125	-0.06005859375	0.36328125	62.3125	34.375	-154.625
18	11	28	12	28	16	-0.542783421318	-0.451597271375	-0.428404006998	-0.849609375	-0.0302734375	0.375	69.6875	26.3125	-139.5
18	11	28	12	28	16	-0.523795795584	-0.4504326464	-0.432488581625	-0.818359375	-0.05615234375	0.3115234375	70.625	17.3125	-122.9375
18	11	28	12	28	16	-0.507608591238	-0.449139307794	-0.434369405295	-0.92138671875	-0.099609375	0.26513671875	66.0	6.4375	-102.375
18	11	28	12	28	16	-0.493896251627	-0.447875765501	-0.434264932072	-0.9384765625	-0.087890625	0.20263671875	63.3125	-3.125	-85.5
18	11	28	12	28	16	-0.480336338901	-0.447317030216	-0.432607874222	-0.92138671875	-0.13427734375	0.19677734375	70.25	-6.0625	-77.125
18	11	28	12	28	16	-0.465133144974	-0.449020410389	-0.427780896617	-0.9091796875	-0.20703125	0.2265625	95.9375	-3.75	-68.375
18	11	28	12	28	16	-0.447321536831	-0.456171533125	-0.416987411602	-0.87353515625	-0.19140625	0.23779296875	140.3125	2.75	-57.5
18	11	28	12	28	16	-0.427002765978	-0.467225010515	-0.400818634102	-0.87255859375	-0.10107421875	0.2216796875	179.375	6.875	-47.75
18	11	28	12	28	16	-0.406406428469	-0.47970483973	-0.381383656931	-0.86572265625	0.0517578125	0.18408203125	194.1875	5.3125	-37.75
18	11	28	12	28	16	-0.387995069536	-0.491020974425	-0.36217755901	-0.857421875	0.1904296875	0.169921875	178.9375	2.5625	-29.25
18	11	28	12	28	16	-0.372911979069	-0.500165903187	-0.345447103361	-0.82958984375	0.2529296875	0.18359375	148.5625	1.0	-22.375
18	11	28	12	28	16	-0.360710733588	-0.507375351662	-0.331780634143	-0.79638671875	0.28662109375	0.20947265625	118.9375	1.5625	-18.4375
18	11	28	12	28	16	-0.352966885837	-0.514344102879	-0.318481966159	-0.767578125	0.306640625	0.2451171875	93.375	3.625	-15.4375
18	11	28	12	28	16	-0.347475423412	-0.520206048436	-0.307252991649	-0.73974609375	0.337890625	0.26318359375	72.0	5.3125	-12.1875
18	11	28	12	28	16	-0.344233269789	-0.524772633625	-0.298335500484	-0.72412109375	0.3564453125	0.26904296875	50.8125	5.5625	-10.125
18	11	28	12	28	16	-0.34338416387	-0.527649501716	-0.292236647104	-0.7001953125	0.36083984375	0.2900390625	26.5625	4.875	-8.875
18	11	28	12	28	16	-0.34442279233	-0.528932822671	-0.288819538066	-0.6669921875	0.34423828125	0.29931640625	5.6875	4.375	-8.8125
18	11	28	12	28	16	-0.346491176931	-0.528983447325	-0.287959375156	-0.65234375	0.31884765625	0.30029296875	-11.125	4.875	-10.9375
18	11	28	12	28	16	-0.349365633932	-0.528015740592	-0.289123865817	-0.69921875	0.29638671875	0.30615234375	-23.8125	3.9375	-13.4375
18	11	28	12	28	16	-0.352585823652	-0.526284846348	-0.291614170921	-0.7734375	0.27734375	0.30419921875	-32.125	1.9375	-15.6875
18	11	28	12	28	16	-0.356442894487	-0.523739122876	-0.295469187023	-0.86083984375	0.2451171875	0.32080078125	-41.25	0.8125	-16.3125
18	11	28	12	28	16	-0.361073623187	-0.520859077126	-0.300101251726	-0.93115234375	0.2109375	0.33544921875	-47.75	0.4375	-13.3125
18	11	28	12	28	16	-0.365840893529	-0.518183047391	-0.304684307724	-0.97607421875	0.1591796875	0.33740234375	-47.0	1.125	-8.0625
18	11	28	12	28	16	-0.370304194879	-0.516301827011	-0.308535965899	-1.07080078125	0.0849609375	0.3447265625	-40.5	2.75	-1.25
18	11	28	12	28	17	-0.373467763713	-0.516348632295	-0.310968827605	-1.21337890625	-0.0048828125	0.34765625	-25.1875	8.0	7.3125
18	11	28	12	28	17	-0.375365437653	-0.518858794389	-0.310973480462	-1.3271484375	-0.0634765625	0.37255859375	-5.375	15.625	18.0625
18	11	28	12	28	17	-0.376396950555	-0.524526575818	-0.308343991277	-1.4130859375	-0.04052734375	0.37548828125	12.875	25.875	28.9375
18	11	28	12	28	17	-0.377498180371	-0.532891934166	-0.304745095326	-1.5419921875	0.0263671875	0.330078125	18.6875	35.375	37.6875
18	11	28	12	28	17	-0.381525307548	-0.541068925198	-0.302302807276	-1.61181640625	0.1142578125	0.29443359375	0.125	36.9375	45.5625
18	11	28	12	28	17	-0.389707071433	-0.54693266517	-0.303159753141	-1.58984375	0.1533203125	0.2822265625	-35.125	35.6875	52.0
18	11	28	12	28	17	-0.4028278287	-0.549371710019	-0.30761397828	-1.4521484375	0.12744140625	0.26953125	-74.6875	30.5625	61.75
18	11	28	12	28	17	-0.420579468792	-0.548688060432	-0.314381779676	-1.27294921875	0.0771484375	0.24609375	-107.4375	24.6875	76.625
18	11	28	12	28	17	-0.442672700709	-0.546245783999	-0.321522099453	-1.12060546875	-0.013671875	0.2109375	-131.0625	19.3125	96.6875
18	11	28	12	28	17	-0.46703181376	-0.543507357753	-0.327691297448	-1.0712890625	-0.04931640625	0.16748046875	-139.4375	18.25	114.1875
18	11	28	12	28	17	-0.491924845341	-0.541117329875	-0.332323918472	-1.1015625	-0.05712890625	0.09912109375	-137.4375	17.75	126.125
18	11	28	12	28	17	-0.516956641392	-0.538501587604	-0.335197860038	-1.11328125	-0.02587890625	0.0380859375	-134.125	13.0625	134.0625
18	11	28	12	28	17	-0.542226469844	-0.535268588533	-0.336297596673	-1.08740234375	-0.001953125	0.01513671875	-132.25	6.3125	140.5625
18	11	28	12	28	17	-0.566711575674	-0.531860492237	-0.335510342647	-1.04833984375	-0.00048828125	-0.0205078125	-124.125	0.4375	144.0625
18	11	28	12	28	17	-0.589564658501	-0.529021372659	-0.332377756749	-0.99853515625	-0.0068359375	-0.01708984375	-108.4375	-4.5625	145.1875
18	11	28	12	28	17	-0.609728746666	-0.528004343084	-0.326592444786	-0.9375	-0.017578125	-0.013671875	-84.375	-6.625	145.25
18	11	28	12	28	17	-0.626571108502	-0.529832826116	-0.31804617635	-0.86572265625	0.0107421875	0.0009765625	-53.8125	-5.8125	144.25
18	11	28	12	28	17	-0.640254394469	-0.534298090485	-0.30749300661	-0.78271484375	0.07177734375	0.00732421875	-27.0	-3.3125	141.25
18	11	28	12	28	17	-0.651463954311	-0.540201186023	-0.296253141674	-0.70068359375	0.14892578125	0.00341796875	-11.1875	-0.625	134.6875
18	11	28	12	28	17	-0.661359474239	-0.545700909853	-0.285759049316	-0.6337890625	0.23583984375	-0.00634765625	-9.375	0.75	123.875
18	11	28	12	28	17	-0.671071629543	-0.549003120304	-0.277156550228	-0.578125	0.2890625	-0.009765625	-21.0	0.5625	109.9375
18	11	28	12	28	17	-0.680401100783	-0.550216713631	-0.271782032812	-0.52294921875	0.2919921875	-0.013671875	-38.625	-0.125	95.4375
18	11	28	12	28	17	-0.690035390954	-0.548683722331	-0.268909953347	-0.49072265625	0.265625	0.0029296875	-54.125	1.5625	82.0625
18	11	28	12	28	17	-0.700004108808	-0.544427295367	-0.268856752925	-0.5185546875	0.21435546875	0.05126953125	-68.375	6.375	71.875
18	11	28	12	28	17	-0.709686639817	-0.539161659455	-0.271045611234	-0.5888671875	0.21337890625	0.06884765625	-76.375	13.5625	66.875
18	11	28	12	28	17	-0.719019409912	-0.533908988873	-0.274583509481	-0.6298828125	0.26171875	0.06396484375	-80.6875	21.875	66.875
18	11	28	12	28	17	-0.727576353294	-0.528791336712	-0.279287760479	-0.6484375	0.33642578125	0.05224609375	-83.1875	28.1875	60.6875
18	11	28	12	28	17	-0.7349774155	-0.522455296187	-0.286373860947	-0.72119140625	0.39990234375	0.03271484375	-89.1875	30.125	42.375
18	11	28	12	28	17	-0.740150250787	-0.51530374927	-0.296316439974	-0.822265625	0.4931640625	0.0341796875	-88.125	33.125	15.0625
18	11	28	12	28	17	-0.742140371854	-0.50808541083	-0.309184467419	-0.953125	0.56787109375	0.0234375	-79.6875	35.8125	-17.0
18	11	28	12	28	17	-0.740883596438	-0.500046075098	-0.325185583806	-1.11083984375	0.591796875	0.01025390625	-71.4375	35.0625	-52.0625
18	11	28	12	28	17	-0.736226713536	-0.491367095306	-0.343181862739	-1.255859375	0.48046875	0.06005859375	-52.4375	32.625	-81.8125
18	11	28	12	28	17	-0.728585858769	-0.485805280264	-0.357457478205	-1.330078125	0.36474609375	0.10888671875	-8.1875	31.25	-103.125
18	11	28	12	28	17	-0.714625443296	-0.486243138333	-0.370221021354	-1.40478515625	0.36279296875	0.1015625	48.3125	34.5	-120.75
18	11	28	12	28	17	-0.695179410409	-0.490470741181	-0.381646782554	-1.494140625	0.34326171875	0.056640625	92.5	32.625	-141.625
18	11	28	12	28	17	-0.672707042301	-0.4945513667	-0.391710560469	-1.53955078125	0.33642578125	0.029296875	112.875	21.3125	-162.625
18	11	28	12	28	17	-0.648478367413	-0.496322454946	-0.400988505779	-1.48974609375	0.298828125	0.1103515625	118.4375	10.1875	-182.9375
18	11	28	12	28	17	-0.622738987281	-0.495847450031	-0.41064274296	-1.3935546875	0.2529296875	0.1806640625	116.5625	8.8125	-197.9375
18	11	28	12	28	17	-0.595125658701	-0.493873123803	-0.420817497358	-1.31005859375	0.11083984375	0.25048828125	115.4375	13.125	-206.9375
18	11	28	12	28	17	-0.568050348892	-0.49108553854	-0.430111830734	-1.17138671875	-0.0458984375	0.3408203125	108.125	15.5	-195.375
18	11	28	12	28	17	-0.542781531761	-0.489193070624	-0.437191511526	-0.98486328125	-0.0927734375	0.4033203125	102.5	19.0625	-169.875
18	11	28	12	28	17	-0.517999841569	-0.48919155534	-0.441401538143	-0.9228515625	-0.10400390625	0.36328125	110.3125	19.9375	-149.875
18	11	28	12	28	17	-0.495884327484	-0.488743593168	-0.443457910584	-1.00537109375	-0.0986328125	0.23828125	102.3125	9.125	-130.8125
18	11	28	12	28	17	-0.48001022702	-0.485991282614	-0.44467317407	-1.0625	-0.0419921875	0.13525390625	70.6875	-7.0	-104.5
18	11	28	12	28	17	-0.468735546251	-0.481613567118	-0.446336334601	-1.03369140625	-0.08154296875	0.0810546875	43.3125	-17.625	-84.625
18	11	28	12	28	17	-0.458248824857	-0.477413733089	-0.446957398032	-0.9853515625	-0.17431640625	0.109375	44.8125	-18.8125	-72.9375
18	11	28	12	28	17	-0.445676912032	-0.476987820807	-0.443418620366	-0.9140625	-0.22265625	0.162109375	77.875	-10.9375	-59.25
18	11	28	12	28	17	-0.430420649838	-0.482910972989	-0.433594483331	-0.85888671875	-0.1748046875	0.17431640625	124.875	-0.6875	-44.25
18	11	28	12	28	17	-0.413089398451	-0.49261887336	-0.418826751207	-0.83544921875	-0.05078125	0.150390625	159.375	3.0625	-33.0625
18	11	28	12	28	17	-0.396361812992	-0.502868028525	-0.40179393516	-0.79443359375	0.0869140625	0.13037109375	165.8125	-0.1875	-23.5625
18	11	28	12	28	18	-0.382257118034	-0.511649596117	-0.385186759047	-0.72119140625	0.185546875	0.13623046875	148.5	-5.25	-15.625
18	11	28	12	28	18	-0.371582835502	-0.518250633418	-0.370789376754	-0.65185546875	0.236328125	0.1748046875	119.5	-8.375	-9.0
18	11	28	12	28	18	-0.366320487361	-0.523480643135	-0.356616229199	-0.6015625	0.26806640625	0.22607421875	89.6875	-10.3125	-3.4375
18	11	28	12	28	18	-0.363265777035	-0.527199224131	-0.343247098462	-0.57177734375	0.31396484375	0.27734375	74.75	-13.1875	-0.75
18	11	28	12	28	18	-0.361565192937	-0.529896861087	-0.329156158931	-0.556640625	0.4208984375	0.32470703125	69.4375	-18.8125	-1.9375
18	11	28	12	28	18	-0.360536731654	-0.531314076358	-0.315553564017	-0.5478515625	0.50927734375	0.337890625	61.125	-24.1875	-8.625
18	11	28	12	28	18	-0.358947138134	-0.531249088645	-0.303832486589	-0.59326171875	0.46484375	0.32666015625	53.5	-27.8125	-16.5
18	11	28	12	28	18	-0.356372313964	-0.530560802413	-0.293142014724	-0.68115234375	0.38037109375	0.31103515625	53.0	-30.875	-19.6875
18	11	28	12	28	18	-0.352786773915	-0.530339840578	-0.282595633776	-0.78271484375	0.30322265625	0.294921875	57.1875	-30.375	-17.875
18	11	28	12	28	18	-0.348266302514	-0.531371614035	-0.272094492921	-0.91748046875	0.23583984375	0.2763671875	62.6875	-26.0625	-13.4375
18	11	28	12	28	18	-0.343620242862	-0.533801535359	-0.262384267152	-1.09375	0.1748046875	0.2529296875	61.5625	-19.6875	-7.0625
18	11	28	12	28	18	-0.340325407636	-0.536915819759	-0.254267512233	-1.2060546875	0.12109375	0.265625	50.3125	-11.6875	3.0
18	11	28	12	28	18	-0.33910544325	-0.540884168122	-0.248286706829	-1.26025390625	0.06640625	0.28271484375	34.9375	0.6875	15.3125
18	11	28	12	28	18	-0.340203220573	-0.545887621959	-0.245112331148	-1.359375	-0.0048828125	0.31103515625	15.625	16.5	29.625
18	11	28	12	28	18	-0.344541196125	-0.551693157091	-0.243650744895	-1.39013671875	-0.01025390625	0.3505859375	-3.875	30.875	45.9375
18	11	28	12	28	18	-0.351550023416	-0.558390827123	-0.243521630803	-1.35986328125	0.0791015625	0.3525390625	-20.5625	44.0625	54.75
18	11	28	12	28	18	-0.360833928597	-0.565664555183	-0.246150750006	-1.4462890625	0.1552734375	0.30908203125	-43.125	55.125	58.1875
18	11	28	12	28	18	-0.373527482216	-0.571704563058	-0.252008982691	-1.45703125	0.22998046875	0.2470703125	-73.5625	57.3125	61.4375
18	11	28	12	28	18	-0.390369878555	-0.574019497781	-0.261772421689	-1.32177734375	0.26171875	0.22412109375	-111.1875	54.4375	67.6875
18	11	28	12	28	18	-0.411068289712	-0.573969739636	-0.273862422559	-1.22802734375	0.25146484375	0.19091796875	-141.0	51.9375	76.8125
18	11	28	12	28	18	-0.434440903531	-0.57195078772	-0.286616252175	-1.19873046875	0.15625	0.1416015625	-159.8125	47.625	87.625
18	11	28	12	28	18	-0.459095816137	-0.568895520103	-0.298149835394	-1.185546875	0.0849609375	0.1005859375	-163.5625	41.5	99.0
18	11	28	12	28	18	-0.483995658716	-0.565353314841	-0.30736470836	-1.1474609375	0.02197265625	0.0576171875	-158.4375	34.5625	109.375
18	11	28	12	28	18	-0.508479227875	-0.56164036189	-0.313778863342	-1.0869140625	-0.03466796875	0.044921875	-147.5625	26.875	118.0
18	11	28	12	28	18	-0.531172874694	-0.558637863044	-0.317312165406	-1.0634765625	-0.0419921875	0.02978515625	-129.125	21.0625	120.875
18	11	28	12	28	18	-0.551559529028	-0.556381173688	-0.318655781903	-1.07080078125	-0.05712890625	0.0068359375	-110.25	16.875	119.625
18	11	28	12	28	18	-0.570222832856	-0.554781713653	-0.317855133631	-1.06884765625	-0.078125	0.0166015625	-94.0625	12.375	119.6875
18	11	28	12	28	18	-0.58695546906	-0.554424818648	-0.314686742069	-1.02197265625	-0.060546875	0.0439453125	-74.875	8.625	120.4375
18	11	28	12	28	18	-0.601413357948	-0.555700083633	-0.309495345865	-0.9501953125	-0.0341796875	0.080078125	-54.4375	8.0	119.375
18	11	28	12	28	18	-0.613625450084	-0.558756812763	-0.302845582188	-0.8681640625	0.03173828125	0.099609375	-35.875	10.0	117.1875
18	11	28	12	28	18	-0.624163822526	-0.562705626644	-0.295695093394	-0.78466796875	0.10791015625	0.09423828125	-25.1875	11.8125	112.5625
18	11	28	12	28	18	-0.634068442432	-0.566078044427	-0.289050740529	-0.71142578125	0.17822265625	0.0712890625	-26.0625	11.4375	105.1875
18	11	28	12	28	18	-0.643471774209	-0.567668687463	-0.284536224164	-0.63525390625	0.22607421875	0.05810546875	-35.6875	8.9375	96.5625
18	11	28	12	28	18	-0.653353305725	-0.567297428932	-0.281176896728	-0.57421875	0.240234375	0.05126953125	-47.1875	6.0	86.6875
18	11	28	12	28	18	-0.663055243845	-0.565281449603	-0.279222914266	-0.537109375	0.23291015625	0.0439453125	-54.5	4.5625	75.3125
18	11	28	12	28	18	-0.671911951077	-0.56229673951	-0.278615501559	-0.51318359375	0.2158203125	0.0380859375	-56.8125	4.1875	63.0625
18	11	28	12	28	18	-0.679357262139	-0.559000374084	-0.279042440257	-0.50830078125	0.21044921875	0.03271484375	-53.0625	3.875	50.375
18	11	28	12	28	18	-0.684904847678	-0.556126623778	-0.280321508232	-0.5087890625	0.2275390625	0.0263671875	-44.6875	4.4375	36.0625
18	11	28	12	28	18	-0.688267008655	-0.553506562161	-0.282826045766	-0.546875	0.27392578125	0.02392578125	-36.5625	4.75	17.25
18	11	28	12	28	18	-0.689592020593	-0.550196660381	-0.287640250735	-0.64111328125	0.3154296875	0.0283203125	-33.6875	5.0	-6.4375
18	11	28	12	28	18	-0.688519206043	-0.545883855939	-0.295524332565	-0.79052734375	0.3486328125	0.02490234375	-31.625	5.75	-33.375
18	11	28	12	28	18	-0.684911063842	-0.5397748573	-0.306873358492	-0.97509765625	0.3291015625	0.04638671875	-30.3125	5.1875	-62.875
18	11	28	12	28	18	-0.678016517063	-0.532330548368	-0.32146124722	-1.20263671875	0.302734375	0.072265625	-24.0625	5.4375	-93.625
18	11	28	12	28	18	-0.668844087178	-0.525236993727	-0.335184937201	-1.41015625	0.240234375	0.10302734375	-5.5625	8.9375	-121.25
18	11	28	12	28	18	-0.654818215883	-0.519997315624	-0.349472374326	-1.56787109375	0.16943359375	0.1318359375	22.25	13.875	-144.0
18	11	28	12	28	18	-0.635789748395	-0.516712682145	-0.364066991377	-1.6962890625	0.107421875	0.14599609375	50.0	20.5625	-164.125
18	11	28	12	28	18	-0.613073595628	-0.51474989602	-0.378524882039	-1.78955078125	0.0576171875	0.16552734375	69.1875	27.9375	-176.1875
18	11	28	12	28	18	-0.588861517961	-0.512568307197	-0.392208137896	-1.78759765625	-0.02197265625	0.13671875	75.3125	27.125	-179.0
18	11	28	12	28	18	-0.567556228161	-0.507864864451	-0.404289972614	-1.59326171875	-0.10595703125	0.1748046875	58.375	15.4375	-166.6875
18	11	28	12	28	18	-0.550207448632	-0.500771172049	-0.414837496212	-1.33203125	-0.1484375	0.23486328125	38.125	3.75	-148.625
18	11	28	12	28	19	-0.535577380898	-0.493036362723	-0.424128458104	-1.111328125	-0.19091796875	0.2783203125	25.875	-0.125	-131.375
18	11	28	12	28	19	-0.521599554119	-0.486504802935	-0.431756991088	-0.998046875	-0.20263671875	0.2607421875	29.0625	1.0	-117.9375
18	11	28	12	28	19	-0.507334165744	-0.481943042916	-0.436837178084	-1.00927734375	-0.189453125	0.19384765625	43.125	0.125	-106.6875
18	11	28	12	28	19	-0.493043911576	-0.478456452444	-0.43945483577	-1.0107421875	-0.18505859375	0.14208984375	55.9375	-6.4375	-91.125
18	11	28	12	28	19	-0.480208834067	-0.476790977597	-0.43852319176	-0.9873046875	-0.13330078125	0.099609375	66.625	-15.0625	-74.9375
18	11	28	12	28	19	-0.468010257335	-0.476738148153	-0.434685583299	-0.9716796875	-0.1162109375	0.06005859375	78.6875	-21.4375	-63.3125
18	11	28	12	28	19	-0.455190727372	-0.478810841543	-0.428152715542	-0.978515625	-0.08984375	0.04541015625	95.4375	-22.25	-55.8125
18	11	28	12	28	19	-0.441339023968	-0.48210993643	-0.418939435835	-0.9921875	-0.0390625	0.0478515625	112.75	-18.25	-52.1875
18	11	28	12	28	19	-0.426083152022	-0.487056804632	-0.407589641771	-0.97265625	0.02587890625	0.05712890625	129.0625	-15.125	-49.5625
18	11	28	12	28	19	-0.409843918228	-0.493033383685	-0.394524361493	-0.9404296875	0.09375	0.06005859375	140.3125	-13.1875	-47.25
18	11	28	12	28	19	-0.393660886924	-0.49930848309	-0.380355759273	-0.8837890625	0.158203125	0.0712890625	143.125	-12.5625	-42.875
18	11	28	12	28	19	-0.378660748128	-0.505430311935	-0.366209621014	-0.830078125	0.205078125	0.091796875	136.1875	-11.0	-35.8125
18	11	28	12	28	19	-0.365235612476	-0.511354271611	-0.352540256962	-0.7763671875	0.2109375	0.12548828125	125.0625	-8.1875	-27.25
18	11	28	12	28	19	-0.353518305679	-0.517154800417	-0.339724255768	-0.72216796875	0.220703125	0.1650390625	112.4375	-4.0	-19.4375
18	11	28	12	28	19	-0.345091570792	-0.523618780656	-0.326475913012	-0.6953125	0.232421875	0.20068359375	97.125	1.0625	-14.4375
18	11	28	12	28	19	-0.338982958344	-0.529042902939	-0.316034166061	-0.68798828125	0.2421875	0.20947265625	72.875	4.5625	-11.0625
18	11	28	12	28	19	-0.335625812076	-0.53294864358	-0.30870983042	-0.6826171875	0.2509765625	0.23291015625	45.375	6.25	-9.0
18	11	28	12	28	19	-0.33545245163	-0.534978300316	-0.305178722371	-0.65576171875	0.24755859375	0.240234375	13.5	6.9375	-6.6875
18	11	28	12	28	19	-0.338613661935	-0.534897284282	-0.305167323301	-0.64794921875	0.20703125	0.26904296875	-17.4375	5.9375	-1.8125
18	11	28	12	28	19	-0.344237305357	-0.533506788321	-0.30694493061	-0.67529296875	0.19189453125	0.2939453125	-35.9375	3.4375	3.5
18	11	28	12	28	19	-0.351187010255	-0.531296997614	-0.309684200562	-0.73681640625	0.16845703125	0.31494140625	-46.4375	1.9375	6.9375
18	11	28	12	28	19	-0.358458099241	-0.529172777186	-0.312987082054	-0.81103515625	0.146484375	0.32275390625	-49.9375	3.8125	9.0625
18	11	28	12	28	19	-0.364729731682	-0.527747320926	-0.316392056399	-0.8955078125	0.10205078125	0.3212890625	-45.1875	7.6875	9.1875
18	11	28	12	28	19	-0.3690738579	-0.52751866278	-0.319208909677	-0.98583984375	0.068359375	0.32666015625	-33.75	13.0625	7.25
18	11	28	12	28	19	-0.370837881496	-0.529219103103	-0.320607536455	-1.06689453125	0.041015625	0.3486328125	-14.5	21.25	5.0625
18	11	28	12	28	19	-0.369808009001	-0.532770112324	-0.320492136535	-1.16357421875	0.01513671875	0.375	5.625	29.4375	2.375
18	11	28	12	28	19	-0.366860368777	-0.538847146221	-0.317852071301	-1.2978515625	0.10791015625	0.392578125	25.875	36.8125	0.125
18	11	28	12	28	19	-0.363337727144	-0.545708486208	-0.314327111505	-1.41162109375	0.19775390625	0.3623046875	31.4375	36.5	-3.875
18	11	28	12	28	19	-0.364380204522	-0.54986620813	-0.312500275905	-1.3896484375	0.2880859375	0.36181640625	2.4375	25.6875	1.0625
18	11	28	12	28	19	-0.370970612115	-0.55023035015	-0.314086010191	-1.341796875	0.2724609375	0.3154296875	-38.9375	10.625	10.0625
18	11	28	12	28	19	-0.383047144312	-0.546251106053	-0.319266987236	-1.24853515625	0.119140625	0.28076171875	-79.125	-6.0625	26.625
18	11	28	12	28	19	-0.400080826716	-0.539483512944	-0.326412244284	-1.13720703125	0.0126953125	0.26123046875	-110.4375	-16.5625	48.0
18	11	28	12	28	19	-0.420091637021	-0.532087591392	-0.333241368318	-1.1103515625	-0.07373046875	0.205078125	-123.0625	-20.0	65.5625
18	11	28	12	28	19	-0.441395070377	-0.524766982177	-0.338797571303	-1.17041015625	-0.13818359375	0.11376953125	-123.75	-23.6875	78.5625
18	11	28	12	28	19	-0.462952118908	-0.517761743533	-0.341247896746	-1.22119140625	-0.23876953125	0.0556640625	-111.6875	-32.6875	91.125
18	11	28	12	28	19	-0.483618356868	-0.512181379459	-0.339155377223	-1.18701171875	-0.26611328125	0.0615234375	-86.6875	-41.0	102.4375
18	11	28	12	28	19	-0.501633243468	-0.509933781381	-0.332326683378	-1.14892578125	-0.23583984375	0.0693359375	-50.4375	-40.125	110.1875
18	11	28	12	28	19	-0.516589859107	-0.511524055904	-0.321709020245	-1.13916015625	-0.20556640625	0.05712890625	-16.1875	-33.9375	116.0625
18	11	28	12	28	19	-0.529293770453	-0.516293358425	-0.308347800776	-1.10888671875	-0.1669921875	0.05419921875	9.4375	-26.9375	122.4375
18	11	28	12	28	19	-0.54016329902	-0.523866846948	-0.292664747887	-1.07275390625	-0.10400390625	0.0693359375	30.3125	-20.0	128.375
18	11	28	12	28	19	-0.549049017453	-0.533790874461	-0.275195867018	-1.017578125	-0.01806640625	0.08837890625	49.125	-12.8125	131.25
18	11	28	12	28	19	-0.556137092609	-0.54521209924	-0.257011994839	-0.97509765625	0.1025390625	0.080078125	60.3125	-5.8125	129.3125
18	11	28	12	28	19	-0.562692330887	-0.556283534407	-0.239811060641	-0.921875	0.20703125	0.05859375	56.6875	-1.375	124.9375
18	11	28	12	28	19	-0.57022968617	-0.565163961676	-0.224966993816	-0.83837890625	0.294921875	0.04638671875	37.125	0.5625	118.5625
18	11	28	12	28	19	-0.579508651874	-0.570841961135	-0.213615616805	-0.74072265625	0.3369140625	0.03466796875	8.8125	1.9375	110.125
18	11	28	12	28	19	-0.58982035742	-0.573890813413	-0.206778908417	-0.63720703125	0.32763671875	0.04248046875	-21.25	3.875	98.25
18	11	28	12	28	19	-0.601295631637	-0.573647750888	-0.203727651076	-0.56689453125	0.2890625	0.04931640625	-46.4375	6.4375	85.8125
18	11	28	12	28	19	-0.613175196103	-0.571064030052	-0.203842455955	-0.513671875	0.251953125	0.06640625	-63.75	9.9375	73.75
18	11	28	12	28	19	-0.62449280294	-0.567182527142	-0.206353612856	-0.4970703125	0.22998046875	0.07421875	-72.125	13.75	61.4375
18	11	28	12	28	19	-0.634506927557	-0.562853297993	-0.210688525772	-0.4990234375	0.22607421875	0.0703125	-73.8125	17.3125	48.8125
18	11	28	12	28	20	-0.643037138697	-0.558202132737	-0.216542878521	-0.529296875	0.228515625	0.0810546875	-72.375	19.9375	36.1875
18	11	28	12	28	20	-0.64951980764	-0.553635987136	-0.223871326294	-0.5966796875	0.236328125	0.08056640625	-67.875	20.875	21.8125
18	11	28	12	28	20	-0.653836524508	-0.54910549902	-0.232532171976	-0.67431640625	0.26416015625	0.10205078125	-62.1875	22.3125	5.25
18	11	28	12	28	20	-0.655816310245	-0.544184106296	-0.243588915234	-0.8046875	0.2685546875	0.125	-58.8125	25.125	-14.25
18	11	28	12	28	20	-0.655256660576	-0.538621463262	-0.257317630494	-0.95556640625	0.2412109375	0.1640625	-55.375	28.5	-34.0
18	11	28	12	28	20	-0.651636491369	-0.53347893332	-0.27250697143	-1.09130859375	0.2021484375	0.20361328125	-42.625	32.0	-51.125
18	11	28	12	28	20	-0.643957784021	-0.529826321969	-0.2881971999	-1.2392578125	0.1923828125	0.22119140625	-20.6875	34.3125	-70.1875
18	11	28	12	28	20	-0.631271471821	-0.527880398315	-0.304375019817	-1.427734375	0.1806640625	0.21826171875	4.8125	35.25	-93.625
18	11	28	12	28	20	-0.616742715841	-0.527084620881	-0.317923088255	-1.60791015625	0.1240234375	0.21630859375	23.875	35.9375	-114.125
18	11	28	12	28	20	-0.599938833371	-0.526457006781	-0.331583690916	-1.6572265625	0.07080078125	0.224609375	33.1875	37.0	-125.9375
18	11	28	12	28	20	-0.58152788133	-0.52549906153	-0.346060357593	-1.62646484375	0.0791015625	0.234375	35.4375	41.6875	-136.5
18	11	28	12	28	20	-0.561372865898	-0.523471958122	-0.362164229859	-1.64990234375	0.06494140625	0.16748046875	32.875	45.125	-151.0625
18	11	28	12	28	20	-0.543626023529	-0.517991923396	-0.379995017682	-1.55126953125	-0.07275390625	0.15771484375	5.625	41.375	-150.0
18	11	28	12	28	20	-0.529209117411	-0.510777430932	-0.397318804561	-1.2978515625	-0.23828125	0.2177734375	-13.3125	37.3125	-132.4375
18	11	28	12	28	20	-0.514448108059	-0.506147604713	-0.410752849357	-1.04736328125	-0.26708984375	0.23291015625	6.75	36.625	-116.125
18	11	28	12	28	20	-0.497597285903	-0.504921175797	-0.419903020608	-0.97119140625	-0.21826171875	0.16748046875	39.1875	35.625	-107.0
18	11	28	12	28	20	-0.479908124123	-0.504565746168	-0.427541194134	-1.06591796875	-0.197265625	0.07080078125	50.375	30.5	-95.1875
18	11	28	12	28	20	-0.465364960081	-0.504486132463	-0.433018280888	-1.06201171875	-0.1708984375	0.021484375	44.3125	20.25	-76.5625
18	11	28	12	28	20	-0.453909759736	-0.503957628901	-0.436881277422	-0.98681640625	-0.14697265625	-0.017578125	36.1875	9.0625	-62.375
18	11	28	12	28	20	-0.443600877349	-0.503170835563	-0.439145337442	-0.93505859375	-0.17822265625	-0.02294921875	38.375	0.625	-53.875
18	11	28	12	28	20	-0.433033790792	-0.503588697368	-0.438526819851	-0.880859375	-0.2080078125	0.0087890625	54.75	-2.25	-44.6875
18	11	28	12	28	20	-0.421001004252	-0.506934523241	-0.433817793306	-0.81640625	-0.19970703125	0.0546875	83.0625	1.5	-34.4375
18	11	28	12	28	20	-0.407276899087	-0.514207683921	-0.423755958394	-0.78662109375	-0.16455078125	0.07373046875	118.25	5.8125	-24.0625
18	11	28	12	28	20	-0.392380354992	-0.523784135408	-0.409896790189	-0.771484375	-0.08544921875	0.0537109375	142.0	5.8125	-14.5625
18	11	28	12	28	20	-0.378472753779	-0.533560524679	-0.393914393305	-0.75244140625	0.009765625	0.03125	145.8125	0.125	-4.5
18	11	28	12	28	20	-0.36693222454	-0.542097807446	-0.377429952853	-0.72412109375	0.0732421875	0.01904296875	135.75	-7.75	4.25
18	11	28	12	28	20	-0.357352271414	-0.549181167922	-0.361319461447	-0.68896484375	0.08984375	0.03662109375	123.0625	-13.625	8.9375
18	11	28	12	28	20	-0.348441400289	-0.555589782244	-0.345328681526	-0.66015625	0.09326171875	0.05224609375	117.9375	-15.625	11.125
18	11	28	12	28	20	-0.338849539563	-0.561982449621	-0.328901327216	-0.6552734375	0.11083984375	0.06396484375	121.6875	-14.4375	9.8125
18	11	28	12	28	20	-0.327996214909	-0.568530841435	-0.311944297432	-0.67333984375	0.1513671875	0.080078125	127.8125	-12.625	6.1875
18	11	28	12	28	20	-0.316216052482	-0.574694142091	-0.294915260682	-0.7197265625	0.16943359375	0.09521484375	130.375	-12.75	2.0
18	11	28	12	28	20	-0.303460173481	-0.58061476877	-0.277398730586	-0.7666015625	0.17919921875	0.134765625	135.3125	-12.75	-1.1875
18	11	28	12	28	20	-0.28935602677	-0.586402173636	-0.25920587338	-0.80810546875	0.169921875	0.166015625	142.5	-12.1875	-4.3125
18	11	28	12	28	20	-0.27392695784	-0.592226664867	-0.240418513131	-0.84716796875	0.162109375	0.2080078125	149.1875	-9.875	-7.125
18	11	28	12	28	20	-0.257142647891	-0.598331207519	-0.221253761834	-0.88525390625	0.16943359375	0.23828125	154.8125	-5.3125	-10.125
18	11	28	12	28	20	-0.239498171118	-0.604543676077	-0.202511450502	-0.912109375	0.18603515625	0.28662109375	155.125	0.6875	-14.125
18	11	28	12	28	20	-0.221917700238	-0.610578843008	-0.185358651161	-0.927734375	0.212890625	0.3212890625	146.25	7.25	-17.75
18	11	28	12	28	20	-0.205323108916	-0.616274503783	-0.170593962372	-0.9443359375	0.24462890625	0.3515625	130.5	13.3125	-21.1875
18	11	28	12	28	20	-0.190911956695	-0.621135224834	-0.159357774594	-0.94140625	0.28564453125	0.36279296875	105.75	16.9375	-24.1875
18	11	28	12	28	20	-0.18158064408	-0.62427120257	-0.150208391623	-0.93310546875	0.31640625	0.34423828125	73.3125	18.8125	-27.875
18	11	28	12	28	20	-0.175231345107	-0.626157565117	-0.145934568495	-0.92236328125	0.29248046875	0.33740234375	39.9375	18.6875	-31.1875
18	11	28	12	28	20	-0.171326330132	-0.626894455572	-0.145508361609	-0.8759765625	0.25048828125	0.35888671875	13.6875	18.875	-32.3125
18	11	28	12	28	20	-0.168336215772	-0.627446083442	-0.14691271623	-0.84375	0.21435546875	0.36572265625	2.5	21.75	-32.5
18	11	28	12	28	20	-0.164671408124	-0.628595564221	-0.148375164251	-0.88720703125	0.17431640625	0.35986328125	5.125	25.375	-32.625
18	11	28	12	28	20	-0.16015328275	-0.630420448754	-0.148373715841	-1.01708984375	0.19677734375	0.37060546875	15.0	28.125	-32.25
18	11	28	12	28	20	-0.151790841237	-0.634994737529	-0.146541942023	-1.482421875	0.2314453125	0.203125	37.75	29.8125	-42.6875
18	11	28	12	28	20	-0.145873289822	-0.636349338779	-0.146605708013	-1.56494140625	-0.07373046875	0.185546875	22.75	7.375	-22.9375
18	11	28	12	28	20	-0.146120166703	-0.633919820961	-0.144716338869	-1.1640625	-0.06591796875	0.3466796875	6.875	-9.4375	6.0
18	11	28	12	28	20	-0.146847392026	-0.633348041168	-0.139279197258	-1.09912109375	-0.08154296875	0.318359375	21.5625	-2.8125	25.25
18	11	28	12	28	20	-0.148862472709	-0.63445076007	-0.132932540205	-1.26318359375	-0.111328125	0.19140625	21.8125	-2.6875	39.625
18	11	28	12	28	21	-0.154292516759	-0.634747695526	-0.127315739699	-1.32470703125	-0.09765625	0.1484375	5.4375	-11.0625	51.6875
18	11	28	12	28	21	-0.161186851457	-0.634432912116	-0.120966429227	-1.32666015625	-0.0703125	0.15234375	2.75	-16.375	59.3125
18	11	28	12	28	21	-0.167727163084	-0.634348037094	-0.113527119118	-1.28955078125	-0.0673828125	0.1005859375	9.125	-19.5	63.875
18	11	28	12	28	21	-0.176083525796	-0.633717590413	-0.105467013024	-1.1943359375	-0.0400390625	0.10498046875	4.375	-22.8125	73.0625
18	11	28	12	28	21	-0.185544799313	-0.632866455289	-0.0960682612234	-1.09619140625	-0.06591796875	0.11669921875	6.4375	-23.625	85.875
18	11	28	12	28	21	-0.19556016195	-0.632030423532	-0.0841079597901	-0.94921875	-0.0712890625	0.16552734375	15.5625	-21.125	99.1875
18	11	28	12	28	21	-0.205990518027	-0.632436666012	-0.0677479925954	-0.84423828125	-0.01611328125	0.19921875	32.625	-15.75	108.125
18	11	28	12	28	21	-0.21520536643	-0.634019667179	-0.049254319543	-0.7607421875	0.08984375	0.19140625	46.5625	-9.0	110.875
18	11	28	12	28	21	-0.224058911323	-0.636105141326	-0.0318601884256	-0.6943359375	0.2119140625	0.13623046875	43.125	-2.5625	105.0
18	11	28	12	28	21	-0.234800925298	-0.637508620935	-0.0177611305593	-0.6572265625	0.3310546875	0.0849609375	18.75	-2.0625	93.0625
18	11	28	12	28	21	-0.247737801863	-0.637563212185	-0.00927719780319	-0.64501953125	0.32373046875	0.05517578125	-14.875	-2.4375	83.3125
18	11	28	12	28	21	-0.262518514934	-0.635696427119	-0.00555433268054	-0.65185546875	0.291015625	0.0380859375	-44.1875	-7.3125	76.125
18	11	28	12	28	21	-0.278080913377	-0.632701217749	-0.00469978716638	-0.67236328125	0.265625	0.04296875	-60.5	-9.3125	72.0
18	11	28	12	28	21	-0.293578714405	-0.629393701236	-0.00463866575775	-0.71533203125	0.23291015625	0.05908203125	-63.125	-9.375	72.875
18	11	28	12	28	21	-0.308104537903	-0.626279846161	-0.00354002836735	-0.77197265625	0.25927734375	0.080078125	-54.9375	-9.5625	73.5
18	11	28	12	28	21	-0.31982507361	-0.624025105456	-0.00134277702661	-0.84033203125	0.287109375	0.0908203125	-38.8125	-9.375	67.0
18	11	28	12	28	21	-0.326729850422	-0.623490644884	0.00152591934627	-0.95849609375	0.3359375	0.07861328125	-17.0	-7.875	50.125
18	11	28	12	28	21	-0.328354187778	-0.62442224817	0.00366194261462	-1.1337890625	0.34912109375	0.06494140625	1.3125	-8.3125	28.75
18	11	28	12	28	21	-0.325745758674	-0.626222875023	0.00488282943488	-1.2734375	0.35595703125	0.0810546875	14.625	-7.9375	9.4375
18	11	28	12	28	21	-0.31902833962	-0.62871837123	0.00482174073655	-1.396484375	0.3251953125	0.1083984375	26.5	-7.125	-9.4375
18	11	28	12	28	21	-0.308224854519	-0.631830434452	0.0041503544767	-1.46435546875	0.27294921875	0.138671875	41.6875	-6.125	-26.3125
18	11	28	12	28	21	-0.293207548316	-0.635608536255	0.00274653198881	-1.48291015625	0.15087890625	0.16259765625	57.375	-3.4375	-42.0
18	11	28	12	28	21	-0.275454242467	-0.640692041476	0.0025024648662	-1.43310546875	0.21875	0.1884765625	74.25	5.6875	-55.9375
18	11	28	12	28	21	-0.253045841218	-0.647873035343	0.00134274204216	-1.498046875	0.29052734375	0.10400390625	87.8125	13.8125	-83.3125
18	11	28	12	28	21	-0.23150574784	-0.65276930481	-0.00262450491883	-1.51953125	0.26416015625	0.08544921875	70.1875	12.5	-104.125
18	11	28	12	28	21	-0.213008286574	-0.655748146404	-0.0107419651682	-1.36474609375	0.107421875	0.1484375	39.875	11.75	-106.125
18	11	28	12	28	21	-0.193544910291	-0.657662065085	-0.0206911777321	-1.142578125	-0.078125	0.2353515625	39.1875	13.0625	-98.75
18	11	28	12	28	21	-0.173032379024	-0.659659242502	-0.0267330448016	-0.962890625	-0.13134765625	0.2421875	59.25	13.0625	-90.1875
18	11	28	12	28	21	-0.152708390544	-0.661614289966	-0.0300900225972	-0.93017578125	-0.076171875	0.19921875	68.1875	10.375	-84.375
18	11	28	12	28	21	-0.1350719888	-0.662847626918	-0.0331423813459	-1.00439453125	-0.041015625	0.1533203125	56.9375	4.5	-75.375
18	11	28	12	28	21	-0.121951992773	-0.662618034807	-0.0377208866535	-1.0263671875	-0.052734375	0.10400390625	32.125	-5.125	-63.1875
18	11	28	12	28	21	-0.11175569874	-0.661378892161	-0.0432130173173	-1.0029296875	-0.091796875	0.05224609375	16.0	-13.3125	-53.8125
18	11	28	12	28	21	-0.100951472824	-0.659602519229	-0.0476071032663	-0.994140625	-0.18603515625	0.02978515625	23.6875	-20.0	-47.625
18	11	28	12	28	21	-0.0868548279707	-0.657606406575	-0.0473032267585	-0.95947265625	-0.26806640625	0.0615234375	56.75	-22.9375	-39.8125
18	11	28	12	28	21	-0.0701895869535	-0.656303155227	-0.037353067144	-0.9140625	-0.27001953125	0.11181640625	106.3125	-19.5	-30.6875
18	11	28	12	28	21	-0.0487063863709	-0.656010326709	-0.0191651695745	-0.8994140625	-0.20068359375	0.1318359375	160.0	-13.75	-21.125
18	11	28	12	28	21	-0.0247810746671	-0.655416698953	0.00469985898858	-0.89892578125	-0.0732421875	0.09814453125	193.375	-14.5	-12.5
18	11	28	12	28	21	-0.00164795388755	-0.653139057431	0.0296631699758	-0.88671875	0.087890625	0.06201171875	194.5	-22.125	-7.3125
18	11	28	12	28	21	0.0184324086498	-0.648796370687	0.0519403303344	-0.8525390625	0.1962890625	0.0546875	170.875	-32.375	-5.625
18	11	28	12	28	21	0.0354013633219	-0.642839928459	0.0698871741441	-0.80810546875	0.22021484375	0.06787109375	140.1875	-41.25	-8.0625
18	11	28	12	28	21	0.050660356493	-0.635695919126	0.0843525453896	-0.763671875	0.19189453125	0.08642578125	118.8125	-48.5625	-11.9375
18	11	28	12	28	21	0.0655534546974	-0.627762831995	0.0974756677391	-0.70068359375	0.1416015625	0.111328125	111.9375	-52.75	-14.25
18	11	28	12	28	21	0.0817241649065	-0.619309261618	0.111996895148	-0.64599609375	0.107421875	0.13134765625	123.3125	-53.0	-14.1875
18	11	28	12	28	21	0.100097650284	-0.610595666731	0.129150382927	-0.64013671875	0.1142578125	0.10986328125	143.5625	-50.375	-15.0
18	11	28	12	28	21	0.119810359423	-0.601737306952	0.147886144106	-0.65966796875	0.1328125	0.099609375	156.375	-46.9375	-16.4375
18	11	28	12	28	21	0.140195370554	-0.592702326275	0.167416587475	-0.65478515625	0.1728515625	0.0947265625	163.0	-43.5625	-17.8125
18	11	28	12	28	21	0.161071858349	-0.583801563133	0.186645601679	-0.6630859375	0.220703125	0.099609375	164.625	-39.5	-22.8125
18	11	28	12	28	21	0.182010300422	-0.575267297612	0.2045937381	-0.68701171875	0.27001953125	0.10693359375	159.4375	-35.375	-29.5625
18	11	28	12	28	21	0.203070216997	-0.567522355768	0.220648883211	-0.73095703125	0.3212890625	0.111328125	151.875	-30.4375	-39.125
18	11	28	12	28	21	0.224789624093	-0.560722855428	0.234616159385	-0.78857421875	0.33056640625	0.11474609375	145.0	-25.875	-51.5625
18	11	28	12	28	22	0.246764806701	-0.554808828323	0.246581701477	-0.822265625	0.30810546875	0.13623046875	137.8125	-21.0625	-61.375
18	11	28	12	28	22	0.269105883094	-0.54986956244	0.257631193591	-0.85546875	0.2861328125	0.15869140625	135.75	-14.0	-69.3125
18	11	28	12	28	22	0.292725684053	-0.54516801709	0.268738779584	-0.9228515625	0.189453125	0.15380859375	142.5625	-9.75	-75.5625
18	11	28	12	28	22	0.316972500921	-0.539457531896	0.281326065231	-0.9375	0.09765625	0.212890625	154.4375	-8.0625	-72.9375
18	11	28	12	28	22	0.340883504571	-0.533206498824	0.295839274245	-0.8642578125	0.15283203125	0.26806640625	164.8125	-0.1875	-68.1875
18	11	28	12	28	22	0.364089975002	-0.528037279756	0.310926124503	-0.86572265625	0.20458984375	0.275390625	166.375	12.8125	-70.5625
18	11	28	12	28	22	0.385698145477	-0.524131978986	0.324294072942	-0.99267578125	0.234375	0.234375	152.875	18.5625	-73.9375
18	11	28	12	28	22	0.404308540429	-0.521438384796	0.333871937824	-1.1044921875	0.2421875	0.19482421875	123.5625	15.125	-72.3125
18	11	28	12	28	22	0.418951501565	-0.519050636554	0.341679852238	-1.10791015625	0.2138671875	0.23095703125	97.375	12.4375	-67.875
18	11	28	12	28	22	0.433237781225	-0.517224141744	0.349617640301	-1.203125	0.197265625	0.23828125	97.4375	17.875	-69.1875
18	11	28	12	28	22	0.448862832901	-0.516125117625	0.357918364446	-1.47705078125	0.16650390625	0.18505859375	107.9375	25.5	-70.1875
18	11	28	12	28	22	0.463087122877	-0.514113989192	0.365977380885	-1.49462890625	0.1748046875	0.1708984375	103.3125	21.5	-61.5625
18	11	28	12	28	22	0.473413309154	-0.511562267151	0.374531210027	-1.45654296875	0.1953125	0.21484375	87.1875	18.5625	-51.6875
18	11	28	12	28	22	0.481644772089	-0.508623227198	0.382032014765	-1.36572265625	0.134765625	0.23193359375	74.6875	15.6875	-36.5
18	11	28	12	28	22	0.48584802649	-0.50531856926	0.388068059349	-1.1865234375	0.1806640625	0.26123046875	49.0	11.4375	-16.6875
18	11	28	12	28	22	0.484874550877	-0.503429669642	0.392648286228	-1.12353515625	0.259765625	0.23828125	15.625	12.25	-0.5625
18	11	28	12	28	22	0.478651075097	-0.504408631038	0.394176057508	-1.1396484375	0.3173828125	0.19921875	-26.8125	11.375	9.3125
18	11	28	12	28	22	0.468136535507	-0.507931192763	0.39239241027	-1.19921875	0.33447265625	0.18212890625	-65.0	9.875	17.5625
18	11	28	12	28	22	0.45521169804	-0.512891378202	0.388254439693	-1.28857421875	0.236328125	0.17041015625	-86.6875	6.9375	28.6875
18	11	28	12	28	22	0.441780416614	-0.516000503186	0.383429756448	-1.1875	0.08984375	0.20263671875	-88.125	-1.875	48.375
18	11	28	12	28	22	0.428424845599	-0.515525893421	0.38069322724	-0.98681640625	0.03759765625	0.24365234375	-72.3125	-8.1875	69.6875
18	11	28	12	28	22	0.414931571096	-0.511919842127	0.381971428643	-0.84912109375	0.048828125	0.25048828125	-50.0	-6.8125	88.5
18	11	28	12	28	22	0.400212505903	-0.507025360155	0.386357352809	-0.78369140625	0.08251953125	0.20947265625	-38.125	-4.9375	102.875
18	11	28	12	28	22	0.383983933614	-0.501052950411	0.391369413818	-0.78173828125	0.12646484375	0.15771484375	-39.125	-7.75	114.4375
18	11	28	12	28	22	0.366285253077	-0.49403646699	0.395827339811	-0.7783203125	0.18994140625	0.10791015625	-46.4375	-13.875	122.875
18	11	28	12	28	22	0.347783843481	-0.486396884644	0.399054188957	-0.767578125	0.23046875	0.0625	-54.0625	-20.0625	125.625
18	11	28	12	28	22	0.329413768767	-0.478037546226	0.401436790287	-0.77685546875	0.2548828125	0.0263671875	-56.375	-25.875	124.375
18	11	28	12	28	22	0.312266226719	-0.469009711906	0.403822000777	-0.79296875	0.251953125	0.00732421875	-49.6875	-29.875	120.3125
18	11	28	12	28	22	0.296823935607	-0.458755644668	0.407362316727	-0.787109375	0.21240234375	0.00634765625	-35.0	-33.25	117.9375
18	11	28	12	28	22	0.282958232802	-0.446959262038	0.413573120247	-0.751953125	0.20556640625	0.015625	-12.6875	-33.8125	119.0625
18	11	28	12	28	22	0.270996011473	-0.434387075147	0.42279039898	-0.7509765625	0.21630859375	0.00830078125	12.25	-30.6875	117.0
18	11	28	12	28	22	0.260800162758	-0.42144280923	0.434260041662	-0.798828125	0.26123046875	-0.0107421875	31.625	-27.875	112.5625
18	11	28	12	28	22	0.253300749628	-0.411567940902	0.446785900549	-0.91455078125	0.3134765625	-0.029296875	42.375	-25.8125	99.25
18	11	28	12	28	22	0.249089124409	-0.404182352815	0.458016365981	-1.10693359375	0.36083984375	-0.04150390625	44.9375	-24.0	77.9375
18	11	28	12	28	22	0.248178050765	-0.399367679822	0.466630889843	-1.25341796875	0.3662109375	-0.03173828125	41.0625	-24.25	55.8125
18	11	28	12	28	22	0.249887048502	-0.396376769168	0.472246236996	-1.30908203125	0.31103515625	0.03662109375	34.9375	-24.1875	38.4375
18	11	28	12	28	22	0.254950576829	-0.395396178286	0.47651404197	-1.38134765625	0.30224609375	0.1201171875	41.125	-18.875	16.5625
18	11	28	12	28	22	0.263191362083	-0.396679188816	0.480421894933	-1.44873046875	0.32177734375	0.16357421875	50.625	-11.125	-6.25
18	11	28	12	28	22	0.274175109523	-0.399970946728	0.483834838198	-1.49755859375	0.30224609375	0.16943359375	57.8125	-5.625	-26.75
18	11	28	12	28	22	0.289193517675	-0.404492495068	0.486282134934	-1.515625	0.2412109375	0.1611328125	66.6875	-8.125	-50.0625
18	11	28	12	28	22	0.307383796632	-0.40772910276	0.488786624985	-1.4189453125	0.2529296875	0.17529296875	80.4375	-15.875	-68.25
18	11	28	12	28	22	0.32789193789	-0.410109071236	0.49037301359	-1.30419921875	0.2509765625	0.16162109375	84.3125	-24.6875	-84.6875
18	11	28	12	28	22	0.350352691261	-0.411817004867	0.488784730247	-1.18701171875	0.138671875	0.19580078125	77.0	-36.6875	-95.375
18	11	28	12	28	22	0.372272657871	-0.411581330059	0.485742877741	-0.9921875	0.04541015625	0.3076171875	73.4375	-40.1875	-89.75
18	11	28	12	28	22	0.393927163215	-0.41034588136	0.48413855882	-0.8798828125	0.033203125	0.35498046875	84.1875	-33.25	-88.8125
18	11	28	12	28	22	0.415592756475	-0.408451567974	0.486455319299	-0.96337890625	-0.001953125	0.333984375	104.3125	-27.375	-98.0
18	11	28	12	28	22	0.437991168454	-0.405520251283	0.488955859878	-1.126953125	-0.04638671875	0.27099609375	111.5625	-32.3125	-99.375
18	11	28	12	28	22	0.460467963912	-0.400406925141	0.491169897349	-1.2138671875	-0.056640625	0.18212890625	114.625	-43.4375	-92.9375
18	11	28	12	28	22	0.483160865708	-0.393071750272	0.492804551506	-1.1455078125	-0.0966796875	0.1357421875	117.1875	-55.6875	-87.4375
18	11	28	12	28	22	0.506167978855	-0.383608555059	0.495303647463	-1.03271484375	-0.0908203125	0.1708984375	129.9375	-58.625	-83.9375
18	11	28	12	28	23	0.529064309704	-0.371956380173	0.500804414066	-0.9677734375	-0.03955078125	0.17724609375	152.9375	-51.125	-79.5625
18	11	28	12	28	23	0.551477266598	-0.358536520642	0.508262445928	-0.93408203125	0.0302734375	0.14306640625	169.0	-46.0625	-76.125
18	11	28	12	28	23	0.573138477268	-0.344127234807	0.515458406872	-0.90087890625	0.11962890625	0.11376953125	170.25	-47.4375	-74.6875
18	11	28	12	28	23	0.593478153041	-0.32991354697	0.520781199398	-0.8447265625	0.19970703125	0.09326171875	157.8125	-51.5	-72.5
18	11	28	12	28	23	0.612323207882	-0.31690411636	0.523514369419	-0.77734375	0.2509765625	0.07421875	137.3125	-55.5	-71.5625
18	11	28	12	28	23	0.629795243564	-0.305863923774	0.523710330469	-0.71533203125	0.27099609375	0.0703125	115.8125	-57.8125	-73.4375
18	11	28	12	28	23	0.645115067054	-0.296036339787	0.523587571689	-0.666015625	0.28466796875	0.05908203125	99.0625	-57.6875	-78.0
18	11	28	12	28	23	0.659641923609	-0.288101219527	0.522305537181	-0.63916015625	0.287109375	0.05517578125	87.0	-55.1875	-84.5625
18	11	28	12	28	23	0.673798572194	-0.281690407707	0.520349019654	-0.6171875	0.2880859375	0.0625	80.5625	-50.9375	-92.1875
18	11	28	12	28	23	0.687746506687	-0.276185032194	0.518068188566	-0.591796875	0.29150390625	0.0908203125	78.625	-45.625	-99.75
18	11	28	12	28	23	0.702480597111	-0.272898666234	0.514301982036	-0.5634765625	0.31982421875	0.1171875	77.875	-39.75	-107.0
18	11	28	12	28	23	0.716762003752	-0.270578724571	0.510333570073	-0.57421875	0.3427734375	0.17138671875	75.3125	-34.5625	-113.4375
18	11	28	12	28	23	0.730238681887	-0.26935333527	0.506174305323	-0.62158203125	0.38525390625	0.19921875	70.5625	-30.0	-118.25
18	11	28	12	28	23	0.742719358957	-0.269486026446	0.501616345489	-0.74072265625	0.38525390625	0.23486328125	62.0	-26.0625	-121.25
18	11	28	12	28	23	0.753771125228	-0.271440618179	0.49612533046	-0.91650390625	0.33740234375	0.259765625	45.9375	-25.375	-117.875
18	11	28	12	28	23	0.763192661917	-0.273684892517	0.490606415266	-1.02734375	0.25634765625	0.30712890625	35.875	-23.875	-105.8125
18	11	28	12	28	23	0.769727479937	-0.273808379589	0.48822853953	-1.10693359375	0.1494140625	0.337890625	33.25	-16.3125	-89.75
18	11	28	12	28	23	0.773897424063	-0.273510084173	0.488729132776	-1.21240234375	0.01416015625	0.36474609375	36.0625	-0.5625	-67.5625
18	11	28	12	28	23	0.775170321546	-0.271797908807	0.492996117096	-1.31201171875	-0.08154296875	0.39697265625	40.0	18.375	-38.125
18	11	28	12	28	23	0.773532994515	-0.267040704727	0.501670297634	-1.4111328125	-0.01416015625	0.40478515625	47.0	36.3125	-10.4375
18	11	28	12	28	23	0.768613711159	-0.261372610481	0.513894443635	-1.64599609375	0.06298828125	0.35009765625	41.9375	48.375	10.125
18	11	28	12	28	23	0.761182365573	-0.257023409624	0.526315094085	-1.73046875	0.205078125	0.3232421875	16.8125	50.625	22.75
18	11	28	12	28	23	0.751860599151	-0.25672395519	0.53590973052	-1.61865234375	0.2177734375	0.35595703125	-25.625	48.9375	37.25
18	11	28	12	28	23	0.741485687243	-0.258128331524	0.54293012743	-1.40185546875	0.18701171875	0.38232421875	-53.0625	44.5625	57.3125
18	11	28	12	28	23	0.730724307454	-0.258671033661	0.547738050041	-1.08544921875	0.20458984375	0.41455078125	-67.5625	37.3125	78.9375
18	11	28	12	28	23	0.718587088353	-0.259894998914	0.551773318501	-0.861328125	0.2412109375	0.38037109375	-77.375	30.9375	100.5
18	11	28	12	28	23	0.704732668944	-0.261055051539	0.554947984241	-0.85986328125	0.30712890625	0.31005859375	-92.125	27.1875	115.8125
18	11	28	12	28	23	0.689000776311	-0.264357048388	0.555937196194	-1.015625	0.29833984375	0.2080078125	-117.875	21.0	123.5625
18	11	28	12	28	23	0.671958260536	-0.269601202361	0.553301992167	-1.107421875	0.21826171875	0.14306640625	-146.75	8.5625	130.75
18	11	28	12	28	23	0.65442915426	-0.275150776665	0.547310784019	-1.1591796875	0.12890625	0.11181640625	-162.25	-5.875	135.8125
18	11	28	12	28	23	0.637099856457	-0.279181332002	0.539563396348	-1.14013671875	0.06201171875	0.10400390625	-159.875	-17.0625	138.125
18	11	28	12	28	23	0.620028645803	-0.280898978931	0.531705998581	-1.10693359375	0.025390625	0.09912109375	-146.0625	-22.125	139.75
18	11	28	12	28	23	0.603238653852	-0.280286542395	0.52486584888	-1.111328125	-0.0078125	0.08447265625	-126.6875	-22.75	140.25
18	11	28	12	28	23	0.586953975391	-0.277240532054	0.519505541239	-1.126953125	-0.03076171875	0.06591796875	-105.5	-23.125	140.5
18	11	28	12	28	23	0.571258533463	-0.271804065553	0.515835651918	-1.111328125	-0.01904296875	0.05615234375	-83.5	-23.25	140.375
18	11	28	12	28	23	0.55612562267	-0.264420612162	0.513886688318	-1.06396484375	0.02783203125	0.03173828125	-63.625	-22.125	138.5
18	11	28	12	28	23	0.541037339653	-0.255991719597	0.512960040889	-0.955078125	0.0791015625	0.01318359375	-52.5625	-20.0	137.25
18	11	28	12	28	23	0.526099926866	-0.247210198841	0.512671224707	-0.8623046875	0.12353515625	0.0068359375	-45.0	-17.4375	133.375
18	11	28	12	28	23	0.511559529324	-0.238292375908	0.512902365459	-0.76513671875	0.1376953125	0.009765625	-37.625	-14.8125	128.0625
18	11	28	12	28	23	0.497219954894	-0.229443875576	0.513761399502	-0.66943359375	0.15478515625	0.01123046875	-31.4375	-10.8125	123.0
18	11	28	12	28	23	0.483184460456	-0.221327293281	0.515107840044	-0.60546875	0.171875	0.01318359375	-26.5	-4.875	115.75
18	11	28	12	28	23	0.469440238299	-0.214608227521	0.516622308798	-0.56884765625	0.20751953125	0.01123046875	-25.75	1.8125	106.4375
18	11	28	12	28	23	0.456135927902	-0.211374109237	0.518577658699	-0.5576171875	0.23388671875	0.0185546875	-30.25	7.875	94.875
18	11	28	12	28	23	0.443684190408	-0.21051957253	0.519249058716	-0.5732421875	0.27783203125	0.03125	-39.3125	12.5625	80.0625
18	11	28	12	28	23	0.432686448171	-0.212894672199	0.517832109788	-0.63232421875	0.30908203125	0.03271484375	-52.9375	15.125	61.625
18	11	28	12	28	23	0.423849426524	-0.218699956111	0.513636653831	-0.7197265625	0.3046875	0.04248046875	-67.875	14.75	41.625
18	11	28	12	28	23	0.41774943522	-0.227064275134	0.506866059332	-0.83544921875	0.2705078125	0.08837890625	-76.625	10.875	23.625
18	11	28	12	28	23	0.414585302703	-0.237324448897	0.498149389776	-0.96435546875	0.23046875	0.14501953125	-79.0	6.0625	6.0
18	11	28	12	28	23	0.414448282385	-0.248913121586	0.489280917761	-1.1181640625	0.189453125	0.2158203125	-68.5625	4.9375	-9.625
18	11	28	12	28	23	0.417138667395	-0.260879523624	0.482511145121	-1.2353515625	0.15625	0.26904296875	-44.4375	8.1875	-23.625
18	11	28	12	28	24	0.42347768303	-0.273386644896	0.479021743502	-1.3310546875	0.1171875	0.27734375	-12.75	13.8125	-44.0
18	11	28	12	28	24	0.433483033848	-0.285957197068	0.478650232531	-1.37060546875	0.0673828125	0.2998046875	20.125	20.5625	-64.5625
18	11	28	12	28	24	0.447111447288	-0.297870834508	0.482269972017	-1.412109375	0.10546875	0.33154296875	58.1875	29.6875	-88.0625
18	11	28	12	28	24	0.463638065004	-0.305918112401	0.489822995215	-1.44140625	0.19091796875	0.2939453125	93.5625	35.75	-119.75
18	11	28	12	28	24	0.483658865496	-0.315318235633	0.496293568318	-1.45166015625	0.2373046875	0.2958984375	101.75	35.1875	-150.25
18	11	28	12	28	24	0.504354737142	-0.325880423768	0.499532756719	-1.3134765625	0.23193359375	0.35595703125	88.4375	31.625	-164.5
18	11	28	12	28	24	0.523636488292	-0.336985319019	0.499832055324	-1.05224609375	0.2041015625	0.4404296875	70.1875	29.1875	-163.875
18	11	28	12	28	24	0.542061955354	-0.347967031582	0.498726296273	-0.89501953125	0.2275390625	0.45654296875	62.625	27.9375	-163.625
18	11	28	12	28	24	0.559823437552	-0.359380767587	0.495247205876	-0.92578125	0.1953125	0.375	49.25	20.9375	-165.5625
18	11	28	12	28	24	0.575447528534	-0.371037921718	0.48834913829	-1.05419921875	0.05126953125	0.3232421875	23.25	8.1875	-153.1875
18	11	28	12	28	24	0.588634585684	-0.380378550185	0.48060024136	-1.072265625	-0.07421875	0.28759765625	12.9375	-4.125	-127.1875
18	11	28	12	28	24	0.601586630244	-0.386429074277	0.473956999173	-1.033203125	-0.1240234375	0.25	24.3125	-11.3125	-111.9375
18	11	28	12	28	24	0.615436553568	-0.388928068961	0.47022941671	-1.041015625	-0.201171875	0.25537109375	52.875	-10.125	-104.9375
18	11	28	12	28	24	0.631256834971	-0.38759242913	0.47060435096	-1.0283203125	-0.22314453125	0.251953125	96.8125	-3.375	-97.125
18	11	28	12	28	24	0.648401091153	-0.379408941223	0.476397488134	-1.00634765625	-0.17626953125	0.24365234375	145.0	1.75	-91.8125
18	11	28	12	28	24	0.666570975538	-0.366275288362	0.484928706222	-0.97607421875	-0.0458984375	0.212890625	179.25	1.375	-87.0
18	11	28	12	28	24	0.684177421998	-0.350603542864	0.49343298059	-0.93408203125	0.10791015625	0.1767578125	186.375	-4.375	-80.4375
18	11	28	12	28	24	0.699605975329	-0.335825517035	0.499953982195	-0.88330078125	0.23046875	0.1640625	166.0625	-9.125	-73.9375
18	11	28	12	28	24	0.712430799303	-0.323621324358	0.504109490357	-0.83349609375	0.29931640625	0.1611328125	135.25	-11.5625	-67.75
18	11	28	12	28	24	0.722933718976	-0.314223470558	0.506309962758	-0.771484375	0.33349609375	0.1845703125	106.0625	-12.375	-61.9375
18	11	28	12	28	24	0.730430987144	-0.304514096671	0.508744236471	-0.6962890625	0.373046875	0.1923828125	80.625	-12.875	-56.5625
18	11	28	12	28	24	0.736245094323	-0.297256973085	0.509914733707	-0.6474609375	0.4052734375	0.18701171875	56.25	-13.1875	-53.125
18	11	28	12	28	24	0.740800727216	-0.292914450845	0.509411128726	-0.61279296875	0.41162109375	0.19970703125	31.0625	-14.0	-51.6875
18	11	28	12	28	24	0.744360509132	-0.291579348268	0.507227210405	-0.6123046875	0.40673828125	0.22119140625	7.4375	-15.25	-52.8125
18	11	28	12	28	24	0.747238761774	-0.292925895912	0.50363233323	-0.63232421875	0.3701171875	0.23046875	-11.1875	-16.5	-54.3125
18	11	28	12	28	24	0.749742119699	-0.296100221661	0.498688685007	-0.69677734375	0.3037109375	0.26513671875	-24.75	-19.3125	-52.625
18	11	28	12	28	24	0.752049636294	-0.299147412343	0.493370441536	-0.76513671875	0.25146484375	0.29638671875	-27.5625	-22.625	-46.0
18	11	28	12	28	24	0.753988848832	-0.301278147643	0.488661436392	-0.85888671875	0.22705078125	0.31591796875	-24.6875	-22.875	-38.125
18	11	28	12	28	24	0.755234998601	-0.302631142251	0.485564892417	-0.9697265625	0.17626953125	0.31201171875	-18.375	-18.5625	-30.75
18	11	28	12	28	24	0.755684125228	-0.303653058962	0.484196927989	-1.10400390625	0.05810546875	0.31640625	-11.125	-11.8125	-21.375
18	11	28	12	28	24	0.755581650674	-0.302928486331	0.485247121969	-1.2275390625	-0.10302734375	0.37060546875	5.4375	-1.0	-5.0
18	11	28	12	28	24	0.755347643241	-0.297072887245	0.490441883914	-1.25634765625	-0.125	0.4345703125	38.4375	13.8125	13.5
18	11	28	12	28	24	0.753835016421	-0.286640424058	0.500522035194	-1.318359375	-0.01953125	0.412109375	64.9375	29.4375	28.3125
18	11	28	12	28	24	0.749671913801	-0.275526707287	0.512904501846	-1.40625	0.14208984375	0.35400390625	58.375	37.0625	40.8125
18	11	28	12	28	24	0.742763013515	-0.26770963738	0.523700111427	-1.392578125	0.2470703125	0.337890625	19.25	36.8125	52.375
18	11	28	12	28	24	0.733238411057	-0.26459573062	0.531510870181	-1.3408203125	0.21435546875	0.3447265625	-26.75	33.1875	69.5625
18	11	28	12	28	24	0.721665381164	-0.264177262089	0.536594803841	-1.24462890625	0.13134765625	0.33056640625	-61.3125	27.3125	93.4375
18	11	28	12	28	24	0.707957798908	-0.264835665959	0.539559181166	-1.123046875	0.07568359375	0.29931640625	-86.375	21.4375	121.125
18	11	28	12	28	24	0.691634893461	-0.264910020088	0.541905796853	-1.07861328125	0.072265625	0.2392578125	-101.875	18.875	145.25
18	11	28	12	28	24	0.672693954611	-0.265696106018	0.543294518645	-1.12841796875	0.07763671875	0.13330078125	-118.8125	19.0	158.6875
18	11	28	12	28	24	0.651686495201	-0.267889109997	0.542614305735	-1.17333984375	0.052734375	0.072265625	-138.875	16.875	165.375
18	11	28	12	28	24	0.629990598423	-0.270039570528	0.540567458544	-1.236328125	0.02587890625	0.0302734375	-141.5	13.25	164.8125
18	11	28	12	28	24	0.608746513961	-0.270648956473	0.538123861133	-1.26025390625	-0.01806640625	0.02490234375	-130.0625	9.0625	161.9375
18	11	28	12	28	24	0.588528360763	-0.26856718392	0.536768139862	-1.25927734375	-0.0400390625	0.03466796875	-105.625	7.0	159.0
18	11	28	12	28	24	0.569536912125	-0.263130814293	0.538163857487	-1.23193359375	-0.04345703125	0.04345703125	-71.0625	8.25	156.75
18	11	28	12	28	24	0.551344900899	-0.254156998488	0.542799756858	-1.142578125	-0.017578125	0.0615234375	-36.5	11.4375	157.625
18	11	28	12	28	24	0.533775026891	-0.24225878579	0.550743518312	-1.05224609375	0.05126953125	0.0732421875	-4.3125	16.0625	157.1875
18	11	28	12	28	24	0.516460859148	-0.228839588813	0.560776020919	-0.93115234375	0.12060546875	0.07470703125	16.0	20.875	154.625
18	11	28	12	28	24	0.498800962776	-0.215585536041	0.57131387807	-0.80908203125	0.22021484375	0.0810546875	20.9375	26.875	150.0
18	11	28	12	28	25	0.480910272115	-0.204717991201	0.580522604149	-0.69482421875	0.29833984375	0.06884765625	10.4375	33.125	138.75
18	11	28	12	28	25	0.462908666748	-0.197517463818	0.586692788078	-0.60205078125	0.35107421875	0.05712890625	-13.5625	37.4375	124.3125
18	11	28	12	28	25	0.445254982969	-0.194581615587	0.588566662203	-0.53466796875	0.380859375	0.04638671875	-45.6875	38.9375	107.5625
18	11	28	12	28	25	0.428005203457	-0.196118185783	0.586462349518	-0.4892578125	0.37890625	0.044921875	-79.0	38.3125	90.125
18	11	28	12	28	25	0.411873911982	-0.200687821962	0.579602055155	-0.46337890625	0.3427734375	0.04833984375	-105.9375	36.8125	74.4375
18	11	28	12	28	25	0.39685974558	-0.207463284409	0.570325663289	-0.4482421875	0.2900390625	0.05419921875	-118.6875	35.75	60.5625
18	11	28	12	28	25	0.383677121832	-0.215520826788	0.560500637891	-0.46728515625	0.28173828125	0.05908203125	-115.875	35.5625	45.0625
18	11	28	12	28	25	0.373425478921	-0.224922015335	0.551104715458	-0.55712890625	0.341796875	0.07666015625	-103.75	36.0625	22.9375
18	11	28	12	28	25	0.367202434741	-0.238229904055	0.542258382687	-0.71337890625	0.384765625	0.056640625	-96.375	35.6875	-5.5625
18	11	28	12	28	25	0.365486583541	-0.254827402519	0.532238311369	-0.9033203125	0.36083984375	0.0546875	-92.1875	32.9375	-34.6875
18	11	28	12	28	25	0.368003004795	-0.273759077211	0.520355882548	-1.060546875	0.255859375	0.1064453125	-87.9375	27.8125	-57.375
18	11	28	12	28	25	0.374769943069	-0.293651172004	0.509906857394	-1.21435546875	0.197265625	0.10400390625	-63.625	26.0625	-79.0625
18	11	28	12	28	25	0.384650985252	-0.309149038448	0.50257318511	-1.40478515625	0.09130859375	0.08544921875	-27.5	23.8125	-102.0
18	11	28	12	28	25	0.398934557788	-0.323615517961	0.498301978241	-1.5458984375	0.025390625	0.1025390625	9.5625	22.125	-121.25
18	11	28	12	28	25	0.416205961232	-0.337286133124	0.49768931044	-1.5849609375	0.01611328125	0.10986328125	45.375	28.3125	-136.125
18	11	28	12	28	25	0.436605373447	-0.350663759325	0.499352517849	-1.54931640625	-0.01904296875	0.1533203125	74.875	33.9375	-155.3125
18	11	28	12	28	25	0.458873317008	-0.362679602243	0.501843098223	-1.466796875	0.00439453125	0.185546875	93.625	33.0625	-165.8125
18	11	28	12	28	25	0.481708036452	-0.373000229442	0.502827015242	-1.34375	0.0400390625	0.224609375	93.6875	22.625	-168.9375
18	11	28	12	28	25	0.503322273182	-0.382466330798	0.500270355445	-1.1923828125	0.06103515625	0.29150390625	73.8125	10.6875	-164.9375
18	11	28	12	28	25	0.523516643554	-0.3914930339	0.495622612296	-1.087890625	0.05517578125	0.30224609375	60.3125	3.875	-159.8125
18	11	28	12	28	25	0.543484849487	-0.399190354408	0.490442583741	-1.09228515625	-0.03955078125	0.2529296875	61.375	-2.25	-155.875
18	11	28	12	28	25	0.563007203998	-0.404066315098	0.48561202461	-1.11279296875	-0.1103515625	0.19921875	68.5	-11.0625	-142.9375
18	11	28	12	28	25	0.58181945616	-0.4052959703	0.482265581528	-1.0859375	-0.10302734375	0.15478515625	81.125	-18.125	-126.25
18	11	28	12	28	25	0.60084766048	-0.403759373636	0.480421773226	-1.09619140625	-0.091796875	0.1123046875	97.5	-20.75	-118.875
18	11	28	12	28	25	0.620146474922	-0.399738116561	0.480613518065	-1.1318359375	-0.0947265625	0.10498046875	117.6875	-17.4375	-115.625
18	11	28	12	28	25	0.639852367942	-0.392896088185	0.483536245239	-1.1611328125	-0.08203125	0.1181640625	143.5625	-10.0	-113.625
18	11	28	12	28	25	0.659860646412	-0.382512873098	0.48908180184	-1.16650390625	-0.0341796875	0.12646484375	171.3125	-4.125	-109.6875
18	11	28	12	28	25	0.679342640058	-0.368969115827	0.496048305099	-1.11376953125	0.05615234375	0.1201171875	188.5	-2.1875	-102.625
18	11	28	12	28	25	0.697144636366	-0.353943420267	0.503113573592	-1.02685546875	0.15576171875	0.1181640625	188.3125	-2.375	-92.9375
18	11	28	12	28	25	0.712372243208	-0.339187092409	0.509177384358	-0.92041015625	0.236328125	0.1416015625	171.6875	-2.6875	-80.9375
18	11	28	12	28	25	0.724737849406	-0.32617475722	0.513920556847	-0.81689453125	0.2822265625	0.181640625	145.75	-2.125	-69.5625
18	11	28	12	28	25	0.734146138095	-0.316351798615	0.517039568989	-0.732421875	0.32080078125	0.201171875	111.8125	-1.3125	-59.875
18	11	28	12	28	25	0.739830932217	-0.30799330781	0.51973107729	-0.6591796875	0.34716796875	0.193359375	71.125	-1.5625	-51.8125
18	11	28	12	28	25	0.742946857549	-0.304576472163	0.520160460075	-0.595703125	0.36328125	0.1875	26.9375	-2.8125	-46.0
18	11	28	12	28	25	0.743884797379	-0.306172654768	0.518283893866	-0.55078125	0.33349609375	0.18212890625	-14.4375	-5.5	-40.8125
18	11	28	12	28	25	0.743446592909	-0.311356409723	0.514369822533	-0.50634765625	0.27490234375	0.205078125	-44.6875	-7.8125	-34.5625
18	11	28	12	28	25	0.742049713297	-0.318378819162	0.509186370677	-0.4921875	0.19580078125	0.2373046875	-62.375	-9.1875	-25.1875
18	11	28	12	28	25	0.740467279163	-0.323630163558	0.504733651916	-0.51123046875	0.18310546875	0.26708984375	-56.5625	-8.5	-14.3125
18	11	28	12	28	25	0.738672600159	-0.32679334831	0.50221435747	-0.62255859375	0.2060546875	0.236328125	-42.875	-6.3125	-10.4375
18	11	28	12	28	25	0.736180217425	-0.32954456462	0.501427782618	-0.8232421875	0.1826171875	0.19482421875	-36.0	-2.625	-8.8125
18	11	28	12	28	25	0.733008964389	-0.332170437522	0.502040030985	-1.03759765625	0.087890625	0.18603515625	-30.5	1.6875	-3.1875
18	11	28	12	28	25	0.729887494135	-0.333204200576	0.504353601274	-1.1689453125	-0.0341796875	0.22216796875	-14.75	8.4375	5.8125
18	11	28	12	28	25	0.727094032687	-0.330769187637	0.509918027961	-1.3017578125	-0.17919921875	0.29248046875	14.6875	22.375	20.625
18	11	28	12	28	25	0.72353833812	-0.323254516508	0.520527665555	-1.4501953125	-0.169921875	0.34228515625	47.625	41.0	40.3125
18	11	28	12	28	25	0.718040190817	-0.312082582085	0.535417252112	-1.55908203125	0.021484375	0.2998046875	63.6875	55.0625	52.9375
18	11	28	12	28	25	0.70932512687	-0.30342097975	0.548855652768	-1.4482421875	0.22314453125	0.2705078125	23.8125	53.9375	63.5
18	11	28	12	28	25	0.696887479532	-0.300985562019	0.557534399408	-1.36962890625	0.29248046875	0.2587890625	-45.4375	43.75	78.6875
18	11	28	12	28	25	0.681701491277	-0.306396408471	0.559814314441	-1.34375	0.21142578125	0.2177734375	-113.8125	29.75	98.875
18	11	28	12	28	25	0.662557189072	-0.315317405688	0.557878646534	-1.36669921875	0.09228515625	0.14111328125	-169.0	17.6875	123.1875
18	11	28	12	28	25	0.639955862609	-0.325196455506	0.552614247026	-1.337890625	-0.02294921875	0.07080078125	-204.0	6.75	146.5
18	11	28	12	28	25	0.615398614564	-0.3328475149	0.545691689566	-1.32275390625	-0.13134765625	0.02490234375	-209.875	-3.0	165.4375
18	11	28	12	28	26	0.590060577106	-0.336261892963	0.539032270241	-1.32177734375	-0.19580078125	0.017578125	-193.125	-9.625	180.875
18	11	28	12	28	26	0.56497491084	-0.335041841573	0.53415032895	-1.3359375	-0.16455078125	0.015625	-162.5625	-12.3125	188.125
18	11	28	12	28	26	0.541539561803	-0.329306349856	0.53140705873	-1.33154296875	-0.130859375	-0.00927734375	-125.375	-17.0625	188.5
18	11	28	12	28	26	0.520605667635	-0.319297484746	0.53110445704	-1.33935546875	-0.09375	-0.01220703125	-86.0625	-22.4375	183.9375
18	11	28	12	28	26	0.502208096214	-0.304999253376	0.533824988999	-1.2587890625	-0.08544921875	0.015625	-44.75	-27.0625	181.375
18	11	28	12	28	26	0.485437825447	-0.28657495165	0.540738550942	-1.11865234375	-0.04248046875	0.046875	-1.1875	-25.6875	182.125
18	11	28	12	28	26	0.469309744347	-0.265081573638	0.5518311092	-0.96240234375	0.05078125	0.06494140625	36.25	-18.9375	182.75
18	11	28	12	28	26	0.45283471509	-0.242805835911	0.564837909886	-0.82861328125	0.1533203125	0.048828125	52.4375	-11.1875	180.25
18	11	28	12	28	26	0.43508290496	-0.221875190731	0.576509264499	-0.69384765625	0.24951171875	0.04296875	41.8125	-5.3125	177.375
18	11	28	12	28	26	0.416275949554	-0.203987422787	0.584373305136	-0.59423828125	0.32177734375	0.05615234375	13.25	-0.8125	169.125
18	11	28	12	28	26	0.397166812719	-0.190312912564	0.587113504156	-0.53466796875	0.35546875	0.05029296875	-24.0625	1.125	154.8125
18	11	28	12	28	26	0.378555437665	-0.180976599916	0.584130206136	-0.5146484375	0.365234375	0.0419921875	-64.1875	0.75	137.6875
18	11	28	12	28	26	0.360850192774	-0.175481106939	0.575639067668	-0.5048828125	0.33935546875	0.0439453125	-100.625	-1.3125	120.5
18	11	28	12	28	26	0.344133994006	-0.173531916452	0.562406991977	-0.505859375	0.3203125	0.0634765625	-130.5625	-1.125	103.5625
18	11	28	12	28	26	0.32857846201	-0.174696555503	0.54649135619	-0.5048828125	0.29150390625	0.060546875	-145.6875	2.5625	85.625
18	11	28	12	28	26	0.315018154833	-0.177987393817	0.5304219658	-0.509765625	0.24658203125	0.0498046875	-141.25	7.125	66.4375
18	11	28	12	28	26	0.304202508571	-0.182619162449	0.515691612142	-0.525390625	0.228515625	0.05810546875	-125.25	10.375	46.1875
18	11	28	12	28	26	0.297737226999	-0.190983965412	0.504895929014	-0.57373046875	0.27734375	0.06396484375	-96.75	16.0	21.75
18	11	28	12	28	26	0.29536716373	-0.201672475504	0.497650028083	-0.6455078125	0.32666015625	0.06201171875	-68.5625	23.375	-7.125
18	11	28	12	28	26	0.297066446473	-0.215216003752	0.493116873034	-0.7373046875	0.38720703125	0.07470703125	-45.5	31.9375	-37.3125
18	11	28	12	28	26	0.303111257981	-0.231819685423	0.490556822472	-0.84716796875	0.435546875	0.09912109375	-25.25	40.875	-69.4375
