18	12	13	15	01	49	0.063720441892	-0.558530425051	0.144408587659	-0.79296875	0.20947265625	0.2578125	2.1875	38.1875	-37.3125
18	12	13	15	01	49	0.0687268505968	-0.566477709049	0.140505515163	-0.8056640625	0.21826171875	0.24951171875	-3.0625	46.25	-50.25
18	12	13	15	01	49	0.075012506176	-0.575685889546	0.135193410236	-0.830078125	0.20947265625	0.25439453125	-5.3125	55.3125	-62.75
18	12	13	15	01	49	0.0832505781636	-0.586110925297	0.129575496658	-0.85986328125	0.17041015625	0.24755859375	1.3125	63.3125	-72.4375
18	12	13	15	01	49	0.0944248491557	-0.597006754746	0.125126658545	-0.90478515625	0.1279296875	0.24853515625	17.5	69.0625	-81.6875
18	12	13	15	01	49	0.108643473793	-0.607854132305	0.122498568484	-0.9501953125	0.07958984375	0.24755859375	37.6875	72.0625	-87.8125
18	12	13	15	01	49	0.125058460735	-0.617968235696	0.122128833544	-0.974609375	0.05078125	0.24658203125	56.25	72.6875	-89.0625
18	12	13	15	01	49	0.142881738294	-0.627251441454	0.12365587432	-1.01904296875	0.046875	0.2431640625	70.4375	72.0625	-89.875
18	12	13	15	01	49	0.161193024686	-0.635738941737	0.126220058709	-1.07080078125	0.03466796875	0.2333984375	77.125	70.625	-89.3125
18	12	13	15	01	49	0.178716299027	-0.64326880992	0.128604932394	-1.09423828125	0.0234375	0.244140625	74.25	68.0625	-86.3125
18	12	13	15	01	49	0.194402411877	-0.650103638588	0.129886446617	-1.14990234375	-0.01611328125	0.24560546875	62.6875	63.75	-80.9375
18	12	13	15	01	49	0.207272529442	-0.655935769702	0.12945377943	-1.18212890625	-0.0751953125	0.26318359375	45.375	56.5	-71.0
18	12	13	15	01	49	0.215516722378	-0.661137676804	0.126954059061	-1.1826171875	-0.1103515625	0.26171875	18.625	48.3125	-56.25
18	12	13	15	01	49	0.217897442177	-0.666082573242	0.122376574668	-1.19775390625	-0.15673828125	0.24951171875	-13.5	40.625	-35.375
18	12	13	15	01	49	0.215090547268	-0.670418436773	0.116456516512	-1.27197265625	-0.208984375	0.236328125	-39.5625	30.25	-13.75
18	12	13	15	01	49	0.209358744862	-0.673305047979	0.111881801554	-1.41650390625	-0.17431640625	0.2431640625	-45.1875	21.1875	2.4375
18	12	13	15	01	49	0.203862007077	-0.674392609638	0.11096440984	-1.56787109375	-0.126953125	0.22900390625	-27.9375	12.9375	14.3125
18	12	13	15	01	49	0.200255206266	-0.673641179993	0.114074056846	-1.65380859375	-0.060546875	0.201171875	-2.75	4.375	19.5625
18	12	13	15	01	49	0.198732691624	-0.671211120943	0.119569208505	-1.6171875	-0.02099609375	0.15625	16.75	-6.5625	21.0625
18	12	13	15	01	49	0.198792342962	-0.666750861072	0.125916058806	-1.44873046875	-0.0478515625	0.146484375	28.25	-20.8125	25.0625
18	12	13	15	01	49	0.200138724374	-0.659865736264	0.133608925787	-1.2490234375	-0.04296875	0.18212890625	40.25	-33.4375	30.8125
18	12	13	15	01	49	0.202096848441	-0.65115348208	0.143256207578	-1.05712890625	0.0048828125	0.19775390625	51.375	-41.1875	36.875
18	12	13	15	01	49	0.203247778634	-0.641603798499	0.153503952932	-0.88525390625	0.05810546875	0.20556640625	51.1875	-44.875	42.0625
18	12	13	15	01	49	0.202391587037	-0.632260087491	0.163085138891	-0.77978515625	0.12109375	0.2158203125	40.5625	-43.3125	44.8125
18	12	13	15	01	49	0.199283270327	-0.623973314719	0.171389716104	-0.76806640625	0.22021484375	0.22021484375	24.75	-37.8125	42.8125
18	12	13	15	01	49	0.194158436937	-0.617327391129	0.17700706291	-0.79443359375	0.27490234375	0.19140625	4.5	-33.125	37.125
18	12	13	15	01	49	0.187015424812	-0.611950603513	0.179507951818	-0.78662109375	0.26708984375	0.17724609375	-17.5625	-31.125	34.4375
18	12	13	15	01	49	0.177983794175	-0.607806111933	0.179021422605	-0.78955078125	0.2421875	0.142578125	-37.8125	-30.0	33.5625
18	12	13	15	01	49	0.167419934416	-0.604493995791	0.176270058546	-0.771484375	0.193359375	0.1103515625	-53.375	-30.0	35.4375
18	12	13	15	01	49	0.155644049908	-0.601396401467	0.171940897486	-0.72705078125	0.1513671875	0.103515625	-64.4375	-30.375	38.6875
18	12	13	15	01	49	0.142944379337	-0.598632994252	0.166748097502	-0.7021484375	0.1435546875	0.091796875	-71.3125	-29.3125	39.8125
18	12	13	15	01	49	0.130006633614	-0.596565651146	0.160829802616	-0.74951171875	0.14306640625	0.078125	-75.5625	-26.25	38.3125
18	12	13	15	01	49	0.116825562677	-0.595358692972	0.154241482176	-0.8369140625	0.14208984375	0.0625	-79.4375	-23.25	36.9375
18	12	13	15	01	49	0.103639188897	-0.594918241567	0.147035810397	-0.94775390625	0.1328125	0.041015625	-81.875	-21.375	35.5
18	12	13	15	01	49	0.0911867766821	-0.594423037555	0.139892966637	-1.00244140625	0.07763671875	0.0185546875	-78.0625	-23.4375	36.625
18	12	13	15	01	49	0.0798338982765	-0.593077973664	0.134216163846	-0.9609375	0.02587890625	0.0380859375	-66.5625	-26.0	40.875
18	12	13	15	01	49	0.07031314738	-0.591069895163	0.13140990131	-0.95263671875	-0.005859375	0.06298828125	-45.3125	-26.1875	45.25
18	12	13	15	01	49	0.0627463812611	-0.588705104342	0.13245101881	-0.9560546875	0.00927734375	0.0908203125	-21.125	-24.4375	49.0625
18	12	13	15	01	49	0.0562748127992	-0.586429936415	0.136719718731	-0.95166015625	0.08251953125	0.10107421875	-3.125	-20.25	50.6875
18	12	13	15	01	49	0.0500494201961	-0.584601642242	0.142213596411	-0.94970703125	0.14599609375	0.10302734375	2.5625	-16.375	50.0625
18	12	13	15	01	49	0.0430917088504	-0.583325016265	0.14654843194	-0.953125	0.1904296875	0.10986328125	-5.8125	-12.0625	47.25
18	12	13	15	01	49	0.0350347989204	-0.582590863581	0.148623232354	-0.93359375	0.19921875	0.123046875	-19.8125	-7.875	43.875
18	12	13	15	01	50	0.0265502875288	-0.582458376753	0.148681610161	-0.89599609375	0.1728515625	0.14453125	-29.5	-2.6875	40.9375
18	12	13	15	01	50	0.0185546748853	-0.583007416134	0.148071188394	-0.87060546875	0.15673828125	0.1728515625	-30.0625	4.0	36.8125
18	12	13	15	01	50	0.0114135340174	-0.584470597595	0.14764352293	-0.8505859375	0.1669921875	0.19775390625	-25.5625	12.0	32.25
18	12	13	15	01	50	0.00494387143311	-0.586916885195	0.147156469447	-0.833984375	0.18603515625	0.20654296875	-22.5625	19.9375	27.0
18	12	13	15	01	50	-0.000854523289369	-0.590353518199	0.145879332971	-0.853515625	0.19677734375	0.20556640625	-23.875	26.4375	20.1875
18	12	13	15	01	50	-0.00628682787462	-0.594624050044	0.143315260676	-0.86279296875	0.20361328125	0.20556640625	-27.9375	31.4375	13.1875
18	12	13	15	01	50	-0.0109255095189	-0.599560223489	0.139284987275	-0.88818359375	0.1943359375	0.203125	-31.4375	35.25	5.0
18	12	13	15	01	50	-0.0143439573577	-0.60507084803	0.134222817998	-0.9208984375	0.177734375	0.203125	-31.3125	37.9375	-3.375
18	12	13	15	01	50	-0.0162356210441	-0.61097205508	0.128664244966	-0.962890625	0.16259765625	0.21142578125	-27.1875	40.25	-11.0625
18	12	13	15	01	50	-0.0164182772746	-0.617424880707	0.123350700268	-1.00537109375	0.1474609375	0.19873046875	-19.9375	43.0	-17.1875
18	12	13	15	01	50	-0.0142826913347	-0.624654115895	0.118717242077	-1.09912109375	0.1298828125	0.162109375	-8.3125	45.125	-23.875
18	12	13	15	01	50	-0.0086673329491	-0.631738704389	0.115299943245	-1.1669921875	0.09619140625	0.15673828125	9.9375	42.5625	-32.375
18	12	13	15	01	50	-0.000244141101122	-0.638184838333	0.113464576746	-1.13427734375	0.09423828125	0.1787109375	27.25	40.375	-40.3125
18	12	13	15	01	50	0.0100098623175	-0.644354368817	0.11322130853	-1.1171875	0.103515625	0.2177734375	41.25	42.875	-44.4375
18	12	13	15	01	50	0.0200808592779	-0.650583218976	0.112794613816	-1.15234375	0.15673828125	0.2431640625	39.625	47.3125	-49.0
18	12	13	15	01	50	0.0286259712581	-0.65711557903	0.109865134893	-1.2099609375	0.22509765625	0.26806640625	22.625	51.9375	-57.375
18	12	13	15	01	50	0.0351566231316	-0.663886440629	0.102967401429	-1.2998046875	0.24169921875	0.30029296875	-1.875	55.6875	-66.1875
18	12	13	15	01	50	0.0410155383654	-0.670713915324	0.0928342765682	-1.49658203125	0.21875	0.33203125	-18.625	57.75	-75.5
18	12	13	15	01	50	0.0474252377637	-0.677503396625	0.0815445529631	-1.724609375	0.2333984375	0.32470703125	-21.375	57.4375	-85.0
18	12	13	15	01	50	0.0542601271679	-0.684019398393	0.069457845576	-1.712890625	0.19384765625	0.25439453125	-23.4375	53.0625	-90.8125
18	12	13	15	01	50	0.060607925961	-0.689392269617	0.0560913232207	-1.52294921875	0.02978515625	0.1875	-30.5625	41.6875	-85.0
18	12	13	15	01	50	0.0665876743981	-0.692426366678	0.0426014635471	-1.2265625	-0.14501953125	0.14697265625	-32.1875	23.0625	-72.1875
18	12	13	15	01	50	0.0725727781822	-0.692462715288	0.0310677410385	-0.9443359375	-0.2880859375	0.10400390625	-23.25	-0.875	-54.0625
18	12	13	15	01	50	0.0772112854937	-0.689286203225	0.0232549405321	-0.74755859375	-0.31494140625	0.07763671875	-12.25	-25.5625	-30.0625
18	12	13	15	01	50	0.0802629439224	-0.683669380133	0.0191044117473	-0.7421875	-0.3046875	0.04443359375	-2.25	-45.9375	-9.0
18	12	13	15	01	50	0.0833120416839	-0.676200813052	0.0191037868477	-0.8740234375	-0.2939453125	-0.0107421875	16.375	-63.3125	6.3125
18	12	13	15	01	50	0.0884405332951	-0.666386295732	0.0245973325866	-0.95556640625	-0.29541015625	-0.02099609375	48.625	-79.875	19.75
18	12	13	15	01	50	0.0966172695127	-0.654348544817	0.0371698781637	-0.98193359375	-0.25146484375	-0.0068359375	92.0	-91.375	32.0
18	12	13	15	01	50	0.106687819249	-0.639028299506	0.0575552709106	-0.9833984375	-0.169921875	0.00830078125	131.875	-98.8125	44.25
18	12	13	15	01	50	0.117309187055	-0.621885175286	0.0822140868692	-0.92724609375	-0.05419921875	0.02490234375	153.375	-103.875	56.625
18	12	13	15	01	50	0.125798243994	-0.603477553795	0.107670112764	-0.865234375	0.0537109375	0.0537109375	150.0625	-107.0625	68.0
18	12	13	15	01	50	0.130252702254	-0.584245016859	0.130802034175	-0.82666015625	0.13525390625	0.09326171875	125.75	-110.1875	77.8125
18	12	13	15	01	50	0.130311794086	-0.564826858302	0.150087448084	-0.7802734375	0.15625	0.13818359375	93.75	-111.125	85.4375
18	12	13	15	01	50	0.127201366256	-0.54591603637	0.165471642956	-0.73974609375	0.1533203125	0.177734375	64.875	-108.25	87.1875
18	12	13	15	01	50	0.122556568015	-0.528128477608	0.177670403134	-0.7021484375	0.1435546875	0.21630859375	45.5625	-101.5	83.5
18	12	13	15	01	50	0.116946957558	-0.512466939276	0.187444732077	-0.68505859375	0.1474609375	0.240234375	30.25	-91.4375	77.9375
18	12	13	15	01	50	0.110412901622	-0.498658599366	0.19494682575	-0.6796875	0.18310546875	0.2734375	16.375	-79.0625	71.8125
18	12	13	15	01	50	0.103516699756	-0.487004568013	0.200197391037	-0.6640625	0.21484375	0.30078125	4.1875	-66.25	63.125
18	12	13	15	01	50	0.0969264932881	-0.477613230466	0.203069548595	-0.64453125	0.24169921875	0.3203125	-7.5	-53.0	50.9375
18	12	13	15	01	50	0.0910659124075	-0.470771704021	0.203372399559	-0.6328125	0.27001953125	0.3486328125	-18.4375	-38.875	35.125
18	12	13	15	01	50	0.0865473294147	-0.466855093578	0.201353765683	-0.638671875	0.2802734375	0.36767578125	-26.25	-23.375	18.4375
18	12	13	15	01	50	0.0835612775713	-0.465843440777	0.197702686672	-0.63134765625	0.265625	0.39453125	-29.4375	-6.5	2.6875
18	12	13	15	01	50	0.0828871934608	-0.467781627897	0.193484833042	-0.62451171875	0.236328125	0.42724609375	-23.6875	12.0	-12.9375
18	12	13	15	01	50	0.0852052593688	-0.472718290696	0.190246986714	-0.62646484375	0.203125	0.44189453125	-8.9375	31.0	-27.5625
18	12	13	15	01	50	0.0903971799712	-0.480368539077	0.188790329271	-0.650390625	0.2060546875	0.44189453125	8.5625	48.375	-41.9375
18	12	13	15	01	50	0.0984555567246	-0.490385581355	0.188304645068	-0.6826171875	0.22021484375	0.4287109375	21.375	62.5	-57.6875
18	12	13	15	01	50	0.108889617328	-0.502821001989	0.187504991273	-0.732421875	0.2119140625	0.40185546875	26.8125	75.125	-73.4375
18	12	13	15	01	50	0.121216513695	-0.517336943646	0.185731042887	-0.78759765625	0.17041015625	0.35302734375	28.75	85.25	-87.0625
18	12	13	15	01	50	0.134951932427	-0.533215776427	0.183048776729	-0.84765625	0.12158203125	0.30859375	29.8125	91.75	-96.8125
18	12	13	15	01	50	0.149599870355	-0.549082184298	0.17975178221	-0.9169921875	0.07763671875	0.29296875	30.1875	93.8125	-103.9375
18	12	13	15	01	51	0.164852591053	-0.564563667991	0.175838694863	-0.99609375	0.0380859375	0.27392578125	30.25	92.0	-108.75
18	12	13	15	01	51	0.179998519356	-0.579181400531	0.171636431478	-1.048828125	-0.021484375	0.26904296875	29.5625	88.6875	-107.875
18	12	13	15	01	51	0.195009433163	-0.59265777653	0.167848494898	-1.10009765625	-0.07373046875	0.263671875	32.5	84.75	-104.625
18	12	13	15	01	51	0.21063209235	-0.604918767685	0.164672670287	-1.169921875	-0.10888671875	0.26611328125	39.9375	80.3125	-98.625
18	12	13	15	01	51	0.2261414649	-0.61512919926	0.16351767462	-1.24609375	-0.10791015625	0.2861328125	48.9375	74.875	-91.5
18	12	13	15	01	51	0.241221028297	-0.623378128035	0.164191438795	-1.3193359375	-0.09521484375	0.30126953125	56.625	68.9375	-83.8125
18	12	13	15	01	51	0.255736558254	-0.629697869094	0.166930665113	-1.4169921875	-0.0830078125	0.31396484375	63.8125	63.0625	-74.4375
18	12	13	15	01	51	0.269290715853	-0.634102730507	0.172365589658	-1.6064453125	-0.0478515625	0.3212890625	72.8125	56.75	-62.8125
18	12	13	15	01	51	0.282098423314	-0.63670505236	0.179866735938	-1.7265625	-0.041015625	0.27783203125	79.8125	47.625	-52.1875
18	12	13	15	01	51	0.29425519589	-0.637400334096	0.187441963613	-1.65478515625	-0.07421875	0.24560546875	80.0	34.25	-42.75
18	12	13	15	01	51	0.304809300063	-0.635985764248	0.194457835403	-1.4404296875	-0.08203125	0.22265625	72.875	18.125	-30.0
18	12	13	15	01	51	0.312263075226	-0.633315416056	0.200383048469	-1.2041015625	-0.068359375	0.22216796875	56.3125	6.4375	-14.9375
18	12	13	15	01	51	0.315496372449	-0.630382382405	0.205142833778	-1.0263671875	-0.02001953125	0.22412109375	34.0625	1.0	0.375
18	12	13	15	01	51	0.314267445675	-0.6280466141	0.207761970301	-0.8837890625	0.04296875	0.21875	5.625	-2.4375	10.8125
18	12	13	15	01	51	0.308231079138	-0.626533074724	0.207888129811	-0.79736328125	0.11865234375	0.24072265625	-26.1875	-3.875	18.9375
18	12	13	15	01	51	0.298035445713	-0.62616130198	0.205505907376	-0.80859375	0.1826171875	0.24462890625	-55.375	-4.375	24.0
18	12	13	15	01	51	0.284851932165	-0.626527765946	0.200562127511	-0.841796875	0.19677734375	0.232421875	-78.5	-7.375	26.9375
18	12	13	15	01	51	0.269901039895	-0.627083510602	0.193545046926	-0.900390625	0.15966796875	0.20849609375	-93.4375	-13.125	30.625
18	12	13	15	01	51	0.255077989147	-0.62686071992	0.185982922453	-0.9521484375	0.07275390625	0.181640625	-93.75	-21.0625	35.875
18	12	13	15	01	51	0.242131273954	-0.625134486473	0.179935214423	-0.9990234375	-0.005859375	0.1572265625	-77.125	-29.0	41.375
18	12	13	15	01	51	0.23193222429	-0.621517326303	0.177245047195	-1.02490234375	-0.046875	0.11865234375	-49.375	-37.5	47.0625
18	12	13	15	01	51	0.223874700507	-0.615899564563	0.177793621204	-1.02001953125	-0.0673828125	0.07177734375	-25.75	-47.8125	54.375
18	12	13	15	01	51	0.216490584652	-0.608456340117	0.180357958175	-0.95263671875	-0.0791015625	0.0537109375	-12.375	-57.0625	63.25
18	12	13	15	01	51	0.208677307076	-0.599664972805	0.184141396738	-0.873046875	-0.09765625	0.0439453125	-7.4375	-63.9375	74.375
18	12	13	15	01	51	0.199827764967	-0.589900839465	0.188902545074	-0.8173828125	-0.1083984375	0.05126953125	-5.6875	-67.3125	85.6875
18	12	13	15	01	51	0.190122154997	-0.579521624944	0.194943872572	-0.7919921875	-0.099609375	0.056640625	-2.375	-68.25	95.0625
18	12	13	15	01	51	0.178894859354	-0.567324366323	0.202759714355	-0.77490234375	-0.0654296875	0.0751953125	0.25	-67.25	102.0625
18	12	13	15	01	51	0.166995971829	-0.555249399023	0.211247462902	-0.77978515625	0.00830078125	0.109375	1.0	-62.875	105.875
18	12	13	15	01	51	0.1546649974	-0.543829963234	0.219363062611	-0.8212890625	0.11376953125	0.11328125	-1.75	-57.625	103.8125
18	12	13	15	01	51	0.141608553539	-0.534328136933	0.226207456645	-0.8544921875	0.19580078125	0.13623046875	-12.0625	-53.3125	98.75
18	12	13	15	01	51	0.127813214351	-0.525718822927	0.230661956559	-0.86083984375	0.25732421875	0.1640625	-26.9375	-48.8125	91.5
18	12	13	15	01	51	0.114319384896	-0.518435053555	0.232422967264	-0.86767578125	0.2802734375	0.19580078125	-38.625	-42.4375	80.1875
18	12	13	15	01	51	0.102419277074	-0.51276778707	0.232243950696	-0.8857421875	0.283203125	0.22900390625	-42.125	-34.9375	65.5625
18	12	13	15	01	51	0.0924069954037	-0.508726754749	0.231139558516	-0.87109375	0.2705078125	0.25390625	-39.375	-25.4375	52.25
18	12	13	15	01	51	0.084414148819	-0.506545929898	0.23017046652	-0.84521484375	0.263671875	0.27001953125	-31.8125	-13.5625	40.4375
18	12	13	15	01	51	0.0783687240188	-0.506405999365	0.2294299327	-0.80322265625	0.2509765625	0.2734375	-22.9375	-0.3125	28.75
18	12	13	15	01	51	0.0744034461898	-0.508433721707	0.228825692999	-0.77587890625	0.25244140625	0.27685546875	-15.1875	12.9375	14.9375
18	12	13	15	01	51	0.0722054804631	-0.512701636425	0.227297725482	-0.7705078125	0.26904296875	0.29052734375	-13.6875	26.1875	-1.125
18	12	13	15	01	51	0.0713502802614	-0.519654650253	0.223938561402	-0.7958984375	0.2841796875	0.28125	-18.5	40.0625	-17.4375
18	12	13	15	01	51	0.0712891926309	-0.529175770642	0.217651764488	-0.83984375	0.2763671875	0.263671875	-29.5	51.6875	-33.4375
18	12	13	15	01	51	0.0717186262208	-0.540788960269	0.208075571733	-0.88330078125	0.26025390625	0.26953125	-42.9375	62.3125	-47.9375
18	12	13	15	01	51	0.0728766258256	-0.554387263294	0.196046668469	-0.92578125	0.2236328125	0.25830078125	-50.9375	73.25	-60.8125
18	12	13	15	01	51	0.0745885679782	-0.570095928737	0.182442904817	-0.990234375	0.20458984375	0.2626953125	-55.4375	87.625	-71.1875
18	12	13	15	01	51	0.0768460709761	-0.587729005106	0.167120367222	-1.10009765625	0.25439453125	0.24755859375	-60.625	102.625	-84.25
18	12	13	15	01	51	0.0808748574883	-0.60646987472	0.149298038805	-1.30224609375	0.29296875	0.189453125	-65.4375	108.5	-102.75
18	12	13	15	01	51	0.0845348222799	-0.624520073334	0.127504147107	-1.44677734375	0.208984375	0.2177734375	-83.6875	103.75	-114.0
18	12	13	15	01	51	0.0879537334062	-0.640884247582	0.104494650653	-1.56884765625	0.08349609375	0.23828125	-89.1875	95.6875	-114.625
18	12	13	15	01	51	0.0933834787535	-0.654416770716	0.0842282357385	-1.7021484375	-0.08544921875	0.24267578125	-68.5625	81.4375	-109.5
18	12	13	15	01	51	0.102662909304	-0.66486746198	0.0703137167172	-1.734375	-0.14599609375	0.24755859375	-25.75	67.75	-100.3125
18	12	13	15	01	51	0.115845225875	-0.671572718811	0.0613405964197	-1.599609375	-0.20166015625	0.20263671875	11.9375	49.625	-89.875
18	12	13	15	01	51	0.129581973883	-0.674522088264	0.0543841444795	-1.34619140625	-0.271484375	0.18408203125	23.625	24.9375	-78.5
18	12	13	15	01	52	0.141908411997	-0.673408821318	0.0477910910081	-1.0810546875	-0.35546875	0.21826171875	21.6875	-2.0625	-61.25
18	12	13	15	01	52	0.151675268999	-0.668408801128	0.0432137184913	-0.85888671875	-0.39892578125	0.2705078125	22.125	-25.75	-35.3125
18	12	13	15	01	52	0.158082488673	-0.661321916901	0.04180946129	-0.7998046875	-0.36767578125	0.2724609375	23.75	-40.25	-8.8125
18	12	13	15	01	52	0.162535558761	-0.653316042426	0.0434567472167	-0.9169921875	-0.32568359375	0.18603515625	30.875	-53.0	7.9375
18	12	13	15	01	52	0.166562002162	-0.643360228946	0.0474845136249	-0.97998046875	-0.322265625	0.0908203125	42.125	-73.0	19.5625
18	12	13	15	01	52	0.170713666147	-0.631036322595	0.0547480009061	-0.95166015625	-0.28173828125	0.06494140625	58.875	-89.0625	31.375
18	12	13	15	01	52	0.174993106687	-0.616962093615	0.0662251554781	-0.9072265625	-0.2265625	0.06005859375	78.9375	-96.6875	44.6875
18	12	13	15	01	52	0.178961063029	-0.601704692816	0.0814846586436	-0.81689453125	-0.142578125	0.0634765625	94.75	-98.25	56.625
18	12	13	15	01	52	0.181091836822	-0.585878173796	0.0988772415407	-0.70458984375	-0.02783203125	0.0703125	96.625	-96.0	66.1875
18	12	13	15	01	52	0.180357317878	-0.570429608422	0.115294407266	-0.638671875	0.091796875	0.08349609375	80.25	-92.0	69.625
18	12	13	15	01	52	0.176697727202	-0.555911191486	0.128174517141	-0.63427734375	0.1923828125	0.10791015625	51.0	-88.25	65.375
18	12	13	15	01	52	0.170417941671	-0.542505252711	0.136053578791	-0.6796875	0.2314453125	0.1533203125	17.625	-86.1875	59.75
18	12	13	15	01	52	0.162414360799	-0.529235220776	0.139709309233	-0.6962890625	0.18212890625	0.2080078125	-6.5625	-88.5625	59.4375
18	12	13	15	01	52	0.154721902608	-0.515312435391	0.141721600732	-0.69384765625	0.10498046875	0.28466796875	-10.4375	-90.4375	59.875
18	12	13	15	01	52	0.149114246498	-0.501116645004	0.145452005487	-0.6923828125	0.0576171875	0.34033203125	6.75	-87.4375	58.125
18	12	13	15	01	52	0.146430876086	-0.487085615325	0.153084050531	-0.68115234375	0.04150390625	0.36767578125	36.3125	-80.0625	55.6875
18	12	13	15	01	52	0.146299869681	-0.473994488086	0.164671275928	-0.6572265625	0.07666015625	0.38330078125	63.4375	-68.4375	50.8125
18	12	13	15	01	52	0.147590095935	-0.462973894817	0.178231215935	-0.63525390625	0.1474609375	0.3876953125	75.25	-51.6875	42.25
18	12	13	15	01	52	0.149109223337	-0.455140187648	0.190735293872	-0.64111328125	0.21923828125	0.384765625	68.0	-33.0	30.4375
18	12	13	15	01	52	0.150521538947	-0.4510763069	0.19941357167	-0.67138671875	0.24609375	0.396484375	46.75	-14.875	15.25
18	12	13	15	01	52	0.151799990854	-0.451066317818	0.203742810403	-0.70556640625	0.228515625	0.41455078125	23.875	4.3125	0.875
18	12	13	15	01	52	0.153445953831	-0.454905606167	0.205021861145	-0.734375	0.17578125	0.42529296875	10.25	23.875	-11.125
18	12	13	15	01	52	0.15607418602	-0.461630453214	0.205148744315	-0.744140625	0.1220703125	0.4267578125	8.5	40.5	-20.75
18	12	13	15	01	52	0.160403294141	-0.470406464211	0.205631163608	-0.7470703125	0.1103515625	0.4306640625	14.875	54.4375	-31.5625
18	12	13	15	01	52	0.166756937052	-0.481043711899	0.206981249467	-0.76220703125	0.11767578125	0.41650390625	24.6875	67.0625	-44.0625
18	12	13	15	01	52	0.175299275604	-0.49354803013	0.208747744626	-0.80322265625	0.13916015625	0.3896484375	31.6875	77.9375	-58.9375
18	12	13	15	01	52	0.18555154676	-0.507398029017	0.209416893728	-0.85498046875	0.134765625	0.3896484375	31.8125	85.5625	-73.5
18	12	13	15	01	52	0.196836843436	-0.522395827276	0.208555502022	-0.91015625	0.1396484375	0.3984375	27.1875	92.5625	-87.0625
18	12	13	15	01	52	0.20941198541	-0.538331014666	0.20538365809	-0.99267578125	0.08642578125	0.419921875	21.4375	98.0625	-99.8125
18	12	13	15	01	52	0.222477740242	-0.555187249724	0.201114994266	-1.064453125	0.0205078125	0.45751953125	18.125	101.6875	-108.375
18	12	13	15	01	52	0.236267187102	-0.572021719845	0.197204671022	-1.1279296875	-0.03076171875	0.5029296875	23.125	106.375	-111.8125
18	12	13	15	01	52	0.251341997228	-0.588682264027	0.194213267406	-1.25	-0.033203125	0.541015625	33.0	110.9375	-116.9375
18	12	13	15	01	52	0.268013915791	-0.604938719973	0.192449983259	-1.5146484375	-0.0029296875	0.546875	45.9375	115.1875	-123.1875
18	12	13	15	01	52	0.286265361129	-0.620017812016	0.192511929425	-1.84033203125	-0.09912109375	0.47216796875	62.0	115.25	-123.875
18	12	13	15	01	52	0.307925223042	-0.631048341136	0.195314313922	-1.880859375	-0.154296875	0.322265625	91.75	97.75	-123.9375
18	12	13	15	01	52	0.330869592028	-0.637325268393	0.197020299404	-1.67529296875	-0.33935546875	0.162109375	98.375	63.625	-120.0625
18	12	13	15	01	52	0.355903338689	-0.636060485763	0.20099291619	-1.35107421875	-0.38720703125	0.23095703125	123.375	23.0625	-102.3125
18	12	13	15	01	52	0.374957798032	-0.632111827514	0.204783234966	-1.11279296875	-0.173828125	0.171875	100.6875	0.8125	-70.9375
18	12	13	15	01	52	0.385146679056	-0.628137000659	0.205818478887	-1.005859375	-0.1015625	0.21337890625	49.75	-9.8125	-43.0
18	12	13	15	01	52	0.390271700416	-0.623860971216	0.206122541806	-1.03759765625	-0.04931640625	0.28076171875	24.0	-15.25	-23.375
18	12	13	15	01	52	0.391853368439	-0.618725482223	0.207706699813	-1.1123046875	0.07080078125	0.2939453125	14.0625	-21.375	-8.3125
18	12	13	15	01	52	0.39156302968	-0.612645070756	0.209545733576	-1.10498046875	0.154296875	0.30859375	6.75	-28.6875	0.0625
18	12	13	15	01	52	0.389114968799	-0.606531050189	0.209908451404	-0.98388671875	0.1875	0.31689453125	-8.5625	-34.5625	7.25
18	12	13	15	01	52	0.384218363266	-0.600955362148	0.208741350655	-0.87060546875	0.185546875	0.29541015625	-25.0625	-38.25	15.75
18	12	13	15	01	52	0.377080085219	-0.596382245496	0.205080784451	-0.7392578125	0.15283203125	0.27392578125	-45.0625	-40.875	21.25
18	12	13	15	01	52	0.367688469429	-0.593038042658	0.199164587607	-0.60693359375	0.13818359375	0.22265625	-63.9375	-42.875	25.0
18	12	13	15	01	52	0.355303434936	-0.591033011593	0.190622337623	-0.51953125	0.138671875	0.166015625	-87.375	-45.1875	29.375
18	12	13	15	01	52	0.340643373136	-0.591075152383	0.177676556029	-0.51953125	0.13671875	0.15478515625	-114.0625	-45.5	32.875
18	12	13	15	01	52	0.323126292429	-0.591930257645	0.162722836346	-0.60791015625	0.1083984375	0.13818359375	-133.875	-45.75	37.625
18	12	13	15	01	52	0.303597564052	-0.592607307878	0.146976866554	-0.693359375	0.06787109375	0.123046875	-143.6875	-47.5625	44.5
18	12	13	15	01	53	0.282958622818	-0.592406469601	0.131652663809	-0.78759765625	0.0498046875	0.10546875	-144.0625	-50.1875	51.625
18	12	13	15	01	53	0.262089108539	-0.590951734717	0.117799715762	-0.92578125	0.03564453125	0.10791015625	-136.25	-53.375	58.25
18	12	13	15	01	53	0.2421955315	-0.587665972096	0.106570916834	-1.060546875	0.0322265625	0.10009765625	-118.4375	-57.75	63.625
18	12	13	15	01	53	0.222970437879	-0.584007979641	0.100101702196	-1.12451171875	0.03173828125	0.09521484375	-94.75	-62.6875	67.5625
18	12	13	15	01	53	0.205506182217	-0.578737635813	0.0970462814746	-1.1337890625	0.03271484375	0.09521484375	-71.75	-66.5	72.9375
18	12	13	15	01	53	0.189271977585	-0.572881903132	0.0969248308303	-1.15234375	0.01806640625	0.08056640625	-52.625	-66.375	79.3125
18	12	13	15	01	53	0.174131896369	-0.566035473861	0.0994865023069	-1.13134765625	-0.00830078125	0.0791015625	-34.8125	-68.0625	87.3125
18	12	13	15	01	53	0.159362076411	-0.558591238342	0.104552752544	-1.0498046875	0.00732421875	0.0888671875	-21.4375	-65.8125	94.6875
18	12	13	15	01	53	0.144045018076	-0.549263185453	0.110536240566	-1.001953125	0.03955078125	0.09521484375	-18.0	-60.6875	103.3125
18	12	13	15	01	53	0.127138130199	-0.540657492702	0.11651785432	-0.970703125	0.06396484375	0.10107421875	-23.4375	-53.6875	109.1875
18	12	13	15	01	53	0.108888549425	-0.533028981015	0.121523039185	-0.9541015625	0.0830078125	0.12255859375	-32.25	-46.0	111.875
18	12	13	15	01	53	0.0895385190151	-0.526366862976	0.125793379475	-0.91650390625	0.1123046875	0.1416015625	-39.1875	-37.9375	113.4375
18	12	13	15	01	53	0.0693371379641	-0.520883041713	0.129091590488	-0.86962890625	0.14306640625	0.1533203125	-46.3125	-28.4375	113.25
18	12	13	15	01	53	0.048585837994	-0.516804384793	0.130925405147	-0.85986328125	0.15966796875	0.16748046875	-54.875	-18.5	110.125
18	12	13	15	01	53	0.0275877059953	-0.51403464578	0.131224707721	-0.86669921875	0.17236328125	0.19970703125	-62.75	-8.875	105.5625
18	12	13	15	01	53	0.00622573611188	-0.512646643173	0.129763872293	-0.87255859375	0.18798828125	0.22802734375	-71.375	1.5	101.0625
18	12	13	15	01	53	-0.0148318087371	-0.514474550801	0.12579571114	-0.95458984375	0.22265625	0.27197265625	-83.0	13.125	91.125
18	12	13	15	01	53	-0.0339976067162	-0.518387206178	0.118472809042	-1.15771484375	0.26708984375	0.2919921875	-93.8125	21.375	72.25
18	12	13	15	01	53	-0.051330868921	-0.520083631481	0.107483543603	-1.24853515625	0.19775390625	0.28564453125	-104.1875	18.375	52.4375
18	12	13	15	01	53	-0.0667114106216	-0.520385623934	0.0944213652622	-1.17626953125	0.07958984375	0.36328125	-108.5625	10.625	38.75
18	12	13	15	01	53	-0.0773310987494	-0.522641040719	0.0798945605864	-1.26611328125	0.0146484375	0.44677734375	-94.375	12.9375	25.8125
18	12	13	15	01	53	-0.0844124017461	-0.528264162771	0.0690314001264	-1.48046875	0.0478515625	0.4658203125	-64.3125	28.6875	19.5625
18	12	13	15	01	53	-0.0882577207041	-0.537786152921	0.060669553513	-1.6416015625	0.060546875	0.43505859375	-40.75	47.9375	11.5
18	12	13	15	01	53	-0.0885652985568	-0.548909531304	0.0518207708303	-1.58544921875	-0.041015625	0.40576171875	-28.5625	60.5625	-3.0
18	12	13	15	01	53	-0.0847165750128	-0.558897462098	0.0450438273483	-1.3408203125	-0.20556640625	0.4296875	-2.6875	60.9375	-10.1875
18	12	13	15	01	53	-0.0768440857414	-0.566839574488	0.0431523182042	-1.0791015625	-0.212890625	0.42724609375	31.75	51.3125	-17.375
18	12	13	15	01	53	-0.0675066435856	-0.573135066247	0.0435802382641	-0.85498046875	-0.123046875	0.4228515625	43.3125	45.8125	-25.4375
18	12	13	15	01	53	-0.0593281822588	-0.579365335391	0.0424819082841	-0.74609375	-0.0224609375	0.42529296875	29.875	50.5625	-33.3125
18	12	13	15	01	53	-0.0529181847404	-0.586616693817	0.0375371206636	-0.8095703125	0.0029296875	0.404296875	5.5625	58.0625	-39.9375
18	12	13	15	01	53	-0.0469371203152	-0.59382476404	0.029236515775	-0.91796875	-0.07568359375	0.36181640625	-11.0	55.25	-44.0
18	12	13	15	01	53	-0.0407713369708	-0.599485137316	0.0210570527768	-0.9404296875	-0.1376953125	0.3017578125	-9.875	41.1875	-41.5
18	12	13	15	01	53	-0.0341798886183	-0.602908821021	0.0147705947244	-0.92529296875	-0.150390625	0.24658203125	-1.125	22.3125	-37.25
18	12	13	15	01	53	-0.0276485771834	-0.604240428512	0.0103758457421	-0.88720703125	-0.1279296875	0.2158203125	6.0625	6.8125	-33.4375
18	12	13	15	01	53	-0.0209351921905	-0.604129831782	0.00756840767236	-0.82470703125	-0.1396484375	0.19775390625	13.375	-3.875	-29.0
18	12	13	15	01	53	-0.0133667695545	-0.602908445934	0.00640872512887	-0.7685546875	-0.177734375	0.17822265625	24.4375	-12.5625	-25.1875
18	12	13	15	01	53	-0.00476064910731	-0.600452127151	0.00805648310468	-0.73974609375	-0.18017578125	0.18310546875	40.75	-20.625	-20.6875
18	12	13	15	01	53	0.00476081318288	-0.597054801986	0.0133668985519	-0.7587890625	-0.13037109375	0.18603515625	59.25	-27.5625	-15.8125
18	12	13	15	01	53	0.0143429000457	-0.5927584904	0.0212396987911	-0.7822265625	-0.056640625	0.17919921875	70.375	-34.375	-11.875
18	12	13	15	01	53	0.0230718497598	-0.587782839119	0.0302131365902	-0.80029296875	0.01318359375	0.193359375	71.1875	-38.5	-8.875
18	12	13	15	01	53	0.0310678394781	-0.582720360505	0.0394299102217	-0.8447265625	0.0751953125	0.20654296875	68.375	-38.5	-8.25
18	12	13	15	01	53	0.0388184384767	-0.577943072227	0.0482789069734	-0.8955078125	0.1162109375	0.21923828125	64.8125	-37.0	-10.625
18	12	13	15	01	53	0.0465087972057	-0.57360849887	0.0564575294163	-0.927734375	0.1279296875	0.2265625	61.625	-34.75	-13.3125
18	12	13	15	01	53	0.0544423576879	-0.569508564558	0.0640857349465	-0.92041015625	0.119140625	0.248046875	60.375	-31.375	-15.375
18	12	13	15	01	53	0.0629279490207	-0.56592429032	0.0717171096986	-0.90771484375	0.1181640625	0.2724609375	61.875	-25.8125	-17.9375
18	12	13	15	01	53	0.0718983717617	-0.563163222619	0.0792835186065	-0.89208984375	0.11279296875	0.28369140625	63.5	-19.0625	-21.0
18	12	13	15	01	53	0.0811137925529	-0.561204907843	0.0865457922046	-0.85302734375	0.11572265625	0.287109375	62.9375	-11.9375	-23.4375
18	12	13	15	01	53	0.0901470260458	-0.560290926947	0.0930766518076	-0.82958984375	0.126953125	0.2861328125	58.5	-4.3125	-26.9375
18	12	13	15	01	53	0.0990013084176	-0.56055981289	0.0980857599428	-0.83154296875	0.1298828125	0.28076171875	50.3125	2.75	-32.25
18	12	13	15	01	54	0.1076644819	-0.56175957563	0.101561053221	-0.8330078125	0.11181640625	0.28369140625	42.75	8.6875	-36.25
18	12	13	15	01	54	0.116456022582	-0.563786310583	0.104370963635	-0.83349609375	0.1025390625	0.28125	40.4375	14.1875	-39.625
18	12	13	15	01	54	0.126101568643	-0.566480473656	0.107302302843	-0.84326171875	0.0869140625	0.27734375	43.5625	19.125	-43.375
18	12	13	15	01	54	0.136660397571	-0.569591259549	0.110842019646	-0.853515625	0.09326171875	0.27880859375	49.25	23.875	-47.25
18	12	13	15	01	54	0.147890095345	-0.573066489971	0.1150527568	-0.85986328125	0.1103515625	0.287109375	54.1875	28.5	-50.5625
18	12	13	15	01	54	0.159979094196	-0.576742640618	0.119511280594	-0.86865234375	0.09375	0.2919921875	58.8125	32.3125	-54.125
18	12	13	15	01	54	0.173038934441	-0.580580721128	0.124209605498	-0.89306640625	0.07861328125	0.3076171875	63.5625	35.625	-57.75
18	12	13	15	01	54	0.187196374807	-0.58435542628	0.129395603062	-0.95361328125	0.0537109375	0.32470703125	70.0625	38.0	-60.875
18	12	13	15	01	54	0.202817994271	-0.587580147711	0.135435789734	-1.00927734375	0.00634765625	0.32421875	80.375	36.625	-62.5
18	12	13	15	01	54	0.219121848326	-0.589736851957	0.142215572869	-1.04833984375	-0.02294921875	0.333984375	87.6875	32.875	-60.875
18	12	13	15	01	54	0.23565407832	-0.590874678119	0.149229272596	-1.119140625	-0.07421875	0.3486328125	90.875	27.875	-57.9375
18	12	13	15	01	54	0.252072726578	-0.590997629891	0.156553642536	-1.17041015625	-0.095703125	0.36767578125	93.1875	23.875	-54.25
18	12	13	15	01	54	0.267517352443	-0.590576751594	0.164306801911	-1.23193359375	-0.07177734375	0.37744140625	91.625	22.3125	-50.9375
18	12	13	15	01	54	0.281920167924	-0.58971913022	0.17175218717	-1.26220703125	-0.05517578125	0.39453125	86.5625	21.0	-48.375
18	12	13	15	01	54	0.294748749097	-0.588826088743	0.178839062923	-1.33251953125	-0.00830078125	0.4365234375	78.0625	22.5	-46.6875
18	12	13	15	01	54	0.305970175791	-0.588441744425	0.18652400902	-1.51708984375	0.0703125	0.44482421875	73.0	25.875	-45.75
18	12	13	15	01	54	0.317080325769	-0.588444931807	0.193544121851	-1.56787109375	0.02978515625	0.40087890625	70.25	24.625	-46.75
18	12	13	15	01	54	0.329056513795	-0.587613997088	0.200205039	-1.47314453125	-0.0703125	0.36279296875	74.875	18.75	-43.6875
18	12	13	15	01	54	0.342172808797	-0.584611338326	0.208074760112	-1.30224609375	-0.11962890625	0.32080078125	88.625	8.5625	-36.6875
18	12	13	15	01	54	0.35566561277	-0.579429150854	0.217049411191	-1.08203125	-0.10498046875	0.2900390625	97.1875	-0.375	-29.375
18	12	13	15	01	54	0.366513538886	-0.573421265252	0.226072630814	-0.90283203125	-0.0029296875	0.26904296875	86.75	-4.625	-19.6875
18	12	13	15	01	54	0.372561757483	-0.568730415503	0.232606955729	-0.794921875	0.12841796875	0.2568359375	53.8125	-3.9375	-14.25
18	12	13	15	01	54	0.373301670992	-0.5673990081	0.234259616296	-0.7685546875	0.21435546875	0.2578125	6.25	1.125	-15.25
18	12	13	15	01	54	0.369943363964	-0.569228149204	0.231329046267	-0.76806640625	0.208984375	0.26708984375	-33.5625	5.875	-15.375
18	12	13	15	01	54	0.364566664722	-0.572515539107	0.226015462827	-0.76416015625	0.15087890625	0.27197265625	-53.125	8.3125	-11.9375
18	12	13	15	01	54	0.358460558981	-0.576051550428	0.220703793849	-0.77392578125	0.0986328125	0.26025390625	-54.75	9.125	-5.875
18	12	13	15	01	54	0.352670035879	-0.578810998657	0.217107531606	-0.80029296875	0.05615234375	0.2333984375	-44.0625	7.3125	1.9375
18	12	13	15	01	54	0.347722107837	-0.579903062411	0.216067449841	-0.8232421875	0.04736328125	0.2060546875	-27.3125	2.8125	9.75
18	12	13	15	01	54	0.34290621919	-0.579791060179	0.217047795557	-0.818359375	0.078125	0.162109375	-16.9375	-2.25	16.75
18	12	13	15	01	54	0.336797852801	-0.579233712048	0.218570697876	-0.8291015625	0.09033203125	0.13037109375	-18.75	-6.3125	25.0625
18	12	13	15	01	54	0.32929210068	-0.578504268814	0.219609449166	-0.8564453125	0.04638671875	0.10400390625	-25.3125	-10.875	35.0625
18	12	13	15	01	54	0.320933993294	-0.576985362991	0.220832861875	-0.8857421875	-0.0263671875	0.10791015625	-25.5625	-16.5	47.25
18	12	13	15	01	54	0.312261487882	-0.574045991699	0.223819952319	-0.9287109375	-0.06201171875	0.11865234375	-17.0	-20.25	60.9375
18	12	13	15	01	54	0.302794098864	-0.570065890625	0.229369123872	-0.98095703125	-0.02392578125	0.1181640625	-7.4375	-21.0625	73.1875
18	12	13	15	01	54	0.292187640445	-0.565697733789	0.236216036876	-1.021484375	0.0234375	0.1103515625	-6.0625	-21.0	81.375
18	12	13	15	01	54	0.280224264099	-0.561119943337	0.242686054031	-1.01416015625	0.05126953125	0.12841796875	-12.375	-21.0625	87.3125
18	12	13	15	01	54	0.266852989516	-0.556472713956	0.248419869014	-0.96484375	0.064453125	0.146484375	-20.625	-20.6875	92.5625
18	12	13	15	01	54	0.251961228312	-0.552141780841	0.253487156294	-0.98291015625	0.10400390625	0.16845703125	-29.375	-17.25	96.1875
18	12	13	15	01	54	0.236580456415	-0.548114679724	0.257699351647	-1.0029296875	0.1005859375	0.177734375	-34.3125	-16.4375	97.625
18	12	13	15	01	54	0.220031944022	-0.544067891542	0.261108642587	-0.970703125	0.1455078125	0.197265625	-41.75	-15.0625	98.9375
18	12	13	15	01	54	0.2023308337	-0.540464414	0.262938531396	-0.95703125	0.18505859375	0.2060546875	-53.5625	-13.0	97.875
18	12	13	15	01	54	0.18402007646	-0.537594969638	0.262266755737	-0.94677734375	0.1611328125	0.189453125	-66.9375	-13.4375	94.8125
18	12	13	15	01	54	0.166015297528	-0.534605879063	0.25921579728	-0.9189453125	0.11181640625	0.2099609375	-75.6875	-16.5625	90.625
18	12	13	15	01	54	0.149171650414	-0.531439263565	0.255435088781	-0.89990234375	0.10986328125	0.228515625	-73.75	-17.6875	83.875
18	12	13	15	01	54	0.134035887011	-0.528391927984	0.252019206497	-0.89501953125	0.1064453125	0.240234375	-65.625	-16.5625	77.3125
18	12	13	15	01	54	0.120546343953	-0.525582059636	0.248966347841	-0.87939453125	0.1279296875	0.255859375	-57.9375	-14.3125	69.4375
18	12	13	15	01	54	0.10852080091	-0.523499949045	0.245850273377	-0.87060546875	0.1494140625	0.267578125	-52.9375	-10.1875	59.6875
18	12	13	15	01	54	0.0980259579171	-0.522357501777	0.242318214776	-0.88037109375	0.16943359375	0.28271484375	-49.9375	-5.0625	48.875
18	12	13	15	01	54	0.0895418777851	-0.522480213934	0.237923817046	-0.91748046875	0.19140625	0.29736328125	-47.25	0.125	34.3125
18	12	13	15	01	54	0.0837404886209	-0.524110477979	0.23272775737	-0.98046875	0.22705078125	0.31884765625	-42.8125	6.1875	15.6875
18	12	13	15	01	54	0.0809331326024	-0.527469179449	0.226686013941	-1.05615234375	0.25048828125	0.32861328125	-37.6875	12.5625	-4.375
18	12	13	15	01	55	0.0812409166382	-0.532491177123	0.219673973689	-1.11181640625	0.2177734375	0.3212890625	-31.375	17.875	-22.5625
18	12	13	15	01	55	0.0845964784797	-0.53846329953	0.212589851764	-1.12109375	0.16015625	0.32080078125	-20.375	22.0	-35.9375
18	12	13	15	01	55	0.0915560228871	-0.545429747013	0.207160761119	-1.20849609375	0.16162109375	0.3212890625	-0.6875	27.125	-50.0
18	12	13	15	01	55	0.103637649562	-0.554443114618	0.203430085978	-1.46728515625	0.20361328125	0.2705078125	23.0625	32.4375	-73.3125
18	12	13	15	01	55	0.119878353722	-0.564661227233	0.200631440268	-1.66064453125	0.20263671875	0.25	41.9375	37.5625	-92.5625
18	12	13	15	01	55	0.138186967445	-0.573561366202	0.19910154055	-1.6142578125	0.16259765625	0.23681640625	56.25	44.0625	-103.0625
18	12	13	15	01	55	0.158326078556	-0.581790354973	0.198426399918	-1.4697265625	0.013671875	0.19189453125	68.0625	42.5625	-106.9375
18	12	13	15	01	55	0.179627039321	-0.587709399124	0.199463528543	-1.23828125	-0.12255859375	0.173828125	81.875	32.125	-102.125
18	12	13	15	01	55	0.203002533794	-0.59173468585	0.20135458779	-1.02978515625	-0.2333984375	0.14453125	97.875	18.5	-89.875
18	12	13	15	01	55	0.224249809733	-0.591143006877	0.207647755229	-0.89306640625	-0.27490234375	0.12109375	109.3125	3.75	-73.125
18	12	13	15	01	55	0.244027762874	-0.588217996703	0.215340156934	-0.91455078125	-0.2431640625	0.10595703125	112.0	-7.4375	-58.25
18	12	13	15	01	55	0.262337065552	-0.583452770966	0.223578564709	-1.0400390625	-0.21826171875	0.06640625	110.3125	-17.5625	-46.9375
18	12	13	15	01	55	0.27966759507	-0.577035670841	0.232303550161	-1.0400390625	-0.1708984375	0.07080078125	110.0625	-25.5	-38.5625
18	12	13	15	01	55	0.29664199324	-0.569540419532	0.242135552918	-0.9736328125	-0.09814453125	0.09716796875	114.875	-27.375	-33.5
18	12	13	15	01	55	0.313067844298	-0.561251477543	0.253127773504	-0.9091796875	-0.03759765625	0.134765625	119.5625	-26.5	-27.4375
18	12	13	15	01	55	0.328550041166	-0.552303422349	0.26470769618	-0.82568359375	0.0478515625	0.13720703125	119.9375	-26.75	-21.875
18	12	13	15	01	55	0.342780265452	-0.543162674903	0.275396110705	-0.75927734375	0.1259765625	0.14306640625	111.0	-28.25	-19.9375
18	12	13	15	01	55	0.354807496706	-0.534133907393	0.284920246796	-0.71728515625	0.15478515625	0.1552734375	96.375	-31.4375	-20.0625
18	12	13	15	01	55	0.365850938036	-0.52527747293	0.292668543191	-0.68994140625	0.15087890625	0.169921875	84.125	-33.75	-19.75
18	12	13	15	01	55	0.376652642051	-0.516669034996	0.299686351073	-0.67431640625	0.1328125	0.18212890625	80.75	-32.875	-20.4375
18	12	13	15	01	55	0.387768254537	-0.508255352672	0.306833152142	-0.67138671875	0.12451171875	0.19482421875	83.25	-29.625	-22.8125
18	12	13	15	01	55	0.399366233621	-0.500077571764	0.314524560882	-0.673828125	0.13330078125	0.2080078125	87.8125	-24.9375	-25.875
18	12	13	15	01	55	0.411199326307	-0.492316129731	0.322697170578	-0.68896484375	0.15478515625	0.21875	91.0625	-19.4375	-29.875
18	12	13	15	01	55	0.423057426978	-0.485499751001	0.330645228963	-0.7275390625	0.17041015625	0.2275390625	89.3125	-13.75	-35.8125
18	12	13	15	01	55	0.434703176218	-0.480053423329	0.337899014819	-0.77880859375	0.17919921875	0.2421875	84.1875	-7.3125	-42.125
18	12	13	15	01	55	0.446132654944	-0.476224787778	0.344136805113	-0.8486328125	0.173828125	0.2578125	77.625	-1.0	-48.875
18	12	13	15	01	55	0.457299366487	-0.473657646014	0.349993935856	-0.892578125	0.16943359375	0.27880859375	73.75	6.25	-53.875
18	12	13	15	01	55	0.468219714668	-0.47224819872	0.355544236467	-0.896484375	0.14599609375	0.2939453125	71.25	14.125	-57.0
18	12	13	15	01	55	0.478478201918	-0.471947117901	0.360918689621	-0.88134765625	0.13427734375	0.30224609375	67.0	22.0625	-59.1875
18	12	13	15	01	55	0.48786973061	-0.473220820895	0.365856520114	-0.900390625	0.13232421875	0.3037109375	60.0625	30.75	-62.1875
18	12	13	15	01	55	0.496052373609	-0.475909973795	0.369948743257	-0.88818359375	0.12109375	0.29296875	49.5	36.375	-63.4375
18	12	13	15	01	55	0.502638148188	-0.480298674936	0.372873885523	-0.89013671875	0.11181640625	0.2802734375	35.4375	41.125	-63.75
18	12	13	15	01	55	0.507898762757	-0.486108129623	0.374652398245	-0.921875	0.087890625	0.26171875	23.125	43.875	-63.75
18	12	13	15	01	55	0.512278154228	-0.492502374177	0.375800857331	-0.9609375	0.0654296875	0.24755859375	16.0625	44.3125	-62.25
18	12	13	15	01	55	0.516199096669	-0.498620127787	0.376910183509	-0.98486328125	0.04248046875	0.2373046875	14.875	42.75	-58.8125
18	12	13	15	01	55	0.520000785883	-0.503886194091	0.378387706502	-0.99365234375	0.02490234375	0.228515625	17.6875	40.5625	-53.875
18	12	13	15	01	55	0.524255819376	-0.507775545627	0.380450171402	-1.005859375	-0.02001953125	0.2216796875	25.125	36.375	-48.3125
18	12	13	15	01	55	0.529366431425	-0.50952968633	0.383612132078	-0.9990234375	-0.03173828125	0.23291015625	37.0	31.5625	-42.4375
18	12	13	15	01	55	0.535214042205	-0.5091521884	0.388181241695	-1.0029296875	-0.033203125	0.23779296875	49.625	28.125	-36.0
18	12	13	15	01	55	0.541635443925	-0.506844796749	0.393927783986	-1.02685546875	-0.0400390625	0.22705078125	60.9375	23.25	-29.6875
18	12	13	15	01	55	0.548853527157	-0.502464661428	0.400409156823	-1.078125	-0.04345703125	0.22412109375	71.1875	15.75	-25.0
18	12	13	15	01	55	0.55684255908	-0.496049487849	0.407362407026	-1.16455078125	-0.06005859375	0.24169921875	80.625	7.8125	-19.75
18	12	13	15	01	55	0.565751180458	-0.487379779475	0.414745848658	-1.25341796875	-0.09228515625	0.26416015625	90.9375	-0.8125	-13.0
18	12	13	15	01	55	0.575029513737	-0.476698917555	0.422314956538	-1.333984375	-0.1005859375	0.29150390625	97.25	-9.25	-5.6875
18	12	13	15	01	55	0.583210700093	-0.46485951773	0.430129335798	-1.40283203125	-0.04150390625	0.35302734375	94.1875	-10.625	2.375
18	12	13	15	01	55	0.589052936121	-0.453737387538	0.437807140275	-1.48974609375	0.02294921875	0.38916015625	80.1875	-7.0	8.4375
18	12	13	15	01	55	0.591862786226	-0.444949954789	0.444461669516	-1.59033203125	0.0595703125	0.39501953125	56.1875	-2.875	13.75
18	12	13	15	01	55	0.592610508053	-0.439101863728	0.448623672282	-1.537109375	-0.0068359375	0.3701171875	30.6875	-3.5625	18.625
18	12	13	15	01	55	0.592054898788	-0.434397393266	0.450633125542	-1.359375	-0.08447265625	0.36474609375	12.3125	-8.375	28.8125
18	12	13	15	01	55	0.590651452257	-0.429514753491	0.451487939686	-1.12841796875	-0.1201171875	0.37841796875	3.4375	-12.0625	40.4375
18	12	13	15	01	56	0.588687930818	-0.423220540414	0.452822784731	-0.8994140625	-0.09619140625	0.3876953125	4.8125	-12.3125	51.1875
18	12	13	15	01	56	0.586505636377	-0.415174455056	0.455336876613	-0.70068359375	-0.04248046875	0.38671875	12.0	-11.6875	58.625
18	12	13	15	01	56	0.583523560292	-0.406513275266	0.458944942451	-0.64013671875	0.0771484375	0.3759765625	13.9375	-8.3125	58.75
18	12	13	15	01	56	0.579618707136	-0.399494991386	0.462913676803	-0.75927734375	0.15380859375	0.3310546875	8.25	-3.125	51.3125
18	12	13	15	01	56	0.574750589558	-0.395049470648	0.465916657827	-0.9130859375	0.12158203125	0.2607421875	-3.75	-2.8125	48.4375
18	12	13	15	01	56	0.569745188372	-0.3915701075	0.467320458772	-0.99365234375	0.0380859375	0.23974609375	-12.5	-9.3125	51.6875
18	12	13	15	01	56	0.565045189445	-0.387602565947	0.467930908748	-0.955078125	-0.02783203125	0.240234375	-12.625	-15.1875	57.5625
18	12	13	15	01	56	0.560214697192	-0.382774718467	0.468412245179	-0.87158203125	-0.04345703125	0.23828125	-12.125	-18.5625	63.5
18	12	13	15	01	56	0.554215302318	-0.377818581646	0.468519456012	-0.79052734375	0.0009765625	0.22412109375	-19.3125	-19.6875	68.9375
18	12	13	15	01	56	0.546409091746	-0.374527053949	0.467243252604	-0.783203125	0.02880859375	0.20068359375	-37.5625	-18.875	70.75
18	12	13	15	01	56	0.537506254062	-0.373678547282	0.463466385089	-0.84814453125	-0.0029296875	0.189453125	-58.4375	-20.625	69.9375
18	12	13	15	01	56	0.528510268641	-0.373417926267	0.458135821275	-0.8994140625	-0.0517578125	0.19140625	-65.8125	-25.75	71.25
18	12	13	15	01	56	0.520112009245	-0.371726573912	0.453152394864	-0.896484375	-0.05517578125	0.19189453125	-57.9375	-31.375	73.8125
18	12	13	15	01	56	0.512645054186	-0.36817180222	0.449472339448	-0.88623046875	-0.02001953125	0.18994140625	-43.625	-35.3125	73.6875
18	12	13	15	01	56	0.506131926961	-0.36342372083	0.446924501834	-0.8994140625	0.03076171875	0.1884765625	-32.1875	-37.1875	70.125
18	12	13	15	01	56	0.50037565148	-0.358222090575	0.445015720291	-0.900390625	0.07763671875	0.19580078125	-24.9375	-37.4375	64.6875
18	12	13	15	01	56	0.495143449099	-0.353168145523	0.443199776123	-0.873046875	0.12353515625	0.21923828125	-22.875	-35.3125	57.875
18	12	13	15	01	56	0.490427856033	-0.349067443516	0.441049369968	-0.84033203125	0.15283203125	0.228515625	-23.875	-31.0625	48.9375
18	12	13	15	01	56	0.48642471977	-0.346338795329	0.438691738109	-0.82275390625	0.1669921875	0.2373046875	-24.5	-25.625	38.1875
18	12	13	15	01	56	0.483480216418	-0.344741353658	0.436481129605	-0.8095703125	0.1787109375	0.2470703125	-21.4375	-19.75	26.6875
18	12	13	15	01	56	0.481526341152	-0.344130499609	0.434954583224	-0.77978515625	0.1953125	0.24658203125	-15.625	-12.8125	15.125
18	12	13	15	01	56	0.480728444435	-0.344371493588	0.434035039154	-0.73779296875	0.21044921875	0.26171875	-9.25	-5.25	3.875
18	12	13	15	01	56	0.48102194509	-0.345766948222	0.433963460169	-0.71240234375	0.23291015625	0.2666015625	-3.0	3.625	-8.875
18	12	13	15	01	56	0.48274733237	-0.348769535613	0.434466495361	-0.73046875	0.24365234375	0.27490234375	2.875	12.625	-24.0625
18	12	13	15	01	56	0.485746372348	-0.35353643989	0.435572519864	-0.77197265625	0.248046875	0.25732421875	8.6875	20.6875	-38.8125
18	12	13	15	01	56	0.490005373665	-0.359813362949	0.437269369325	-0.8232421875	0.2529296875	0.2431640625	13.75	28.4375	-52.75
18	12	13	15	01	56	0.495679152927	-0.367990347617	0.439037082502	-0.90576171875	0.24267578125	0.2255859375	17.625	34.9375	-68.75
18	12	13	15	01	56	0.50252816515	-0.377765919363	0.440635348502	-0.9931640625	0.20703125	0.2119140625	20.8125	40.3125	-81.4375
18	12	13	15	01	56	0.510154892072	-0.387956986601	0.442341768706	-1.02392578125	0.1572265625	0.2177734375	26.375	44.25	-87.75
