18	12	13	15	59	46	-0.780237803247	0.142693678347	-0.598727538317	-0.9755859375	-0.09716796875	0.23046875	-0.75	0.625	3.4375
18	12	13	15	59	46	-0.780000742797	0.142511872804	-0.598977096229	-0.97900390625	-0.09326171875	0.23974609375	-0.875	0.75	3.4375
18	12	13	15	59	46	-0.779751196978	0.142388818296	-0.599217067308	-0.97998046875	-0.09619140625	0.236328125	-1.625	1.0625	3.8125
18	12	13	15	59	46	-0.779456992187	0.142451853399	-0.599469624717	-0.98291015625	-0.09716796875	0.24072265625	-2.3125	1.1875	3.875
18	12	13	15	59	46	-0.779127069152	0.142569390063	-0.599755734651	-0.98486328125	-0.1044921875	0.236328125	-2.375	1.375	3.75
18	12	13	15	59	46	-0.778801227484	0.1426988456	-0.600030945721	-0.98095703125	-0.103515625	0.2392578125	-2.5	1.6875	3.5625
18	12	13	15	59	46	-0.778521661567	0.142875447611	-0.600247769011	-0.98095703125	-0.107421875	0.24267578125	-2.5625	1.6875	3.5
18	12	13	15	59	46	-0.778281246545	0.143059225369	-0.600433728318	-0.9833984375	-0.1044921875	0.2412109375	-2.0625	1.4375	3.1875
18	12	13	15	59	46	-0.7780405887	0.143242960596	-0.600619503718	-0.982421875	-0.10205078125	0.2421875	-2.1875	1.3125	2.625
18	12	13	15	59	46	-0.777821398541	0.143491690833	-0.600760830653	-0.990234375	-0.09912109375	0.2431640625	-2.4375	1.125	2.0
18	12	13	15	59	46	-0.777623487305	0.143855157333	-0.600871456912	-0.9892578125	-0.1064453125	0.23828125	-2.4375	0.8125	1.5625
18	12	13	15	59	46	-0.777549896863	0.144096962833	-0.60086175311	-0.99072265625	-0.10302734375	0.24072265625	-1.875	0.3125	1.375
18	12	13	15	59	46	-0.777522665696	0.144286331871	-0.600826840499	-0.990234375	-0.1015625	0.2392578125	-1.125	-0.25	1.0625
18	12	13	15	59	46	-0.777531256843	0.144520723407	-0.600725287371	-0.9931640625	-0.0986328125	0.24169921875	-1.375	-0.625	0.75
18	12	13	15	59	46	-0.777553333365	0.144891021461	-0.600559246492	-0.99072265625	-0.09521484375	0.244140625	-2.5	-0.75	0.25
18	12	13	15	59	46	-0.777615383959	0.145318438836	-0.600315902725	-0.9912109375	-0.09619140625	0.2412109375	-3.0	-1.25	0.125
18	12	13	15	59	46	-0.777644799083	0.145873249337	-0.600094471752	-0.98779296875	-0.10302734375	0.2353515625	-3.0	-1.4375	0.0
18	12	13	15	59	46	-0.777736023663	0.146294691103	-0.599826543244	-0.98828125	-0.0966796875	0.23876953125	-2.875	-1.6875	-0.25
18	12	13	15	59	47	-0.77784849074	0.146781139288	-0.599513983879	-0.986328125	-0.0966796875	0.24072265625	-2.875	-1.8125	-0.125
18	12	13	15	59	47	-0.777930914862	0.147273442457	-0.599225303791	-0.9892578125	-0.0966796875	0.23779296875	-3.0625	-1.875	-0.25
18	12	13	15	59	47	-0.778015674398	0.147693593665	-0.598952449682	-0.984375	-0.0908203125	0.2392578125	-3.0625	-1.875	-0.375
18	12	13	15	59	47	-0.778080353556	0.14818253184	-0.598711135649	-0.9814453125	-0.095703125	0.2294921875	-2.8125	-2.0	-0.625
18	12	13	15	59	47	-0.778180254427	0.148617170159	-0.598435874091	-0.982421875	-0.0966796875	0.23193359375	-2.5625	-2.0625	-0.6875
18	12	13	15	59	47	-0.778281246545	0.149040370457	-0.598175540887	-0.98095703125	-0.099609375	0.23095703125	-2.1875	-2.25	-0.5625
18	12	13	15	59	47	-0.778396217232	0.149344169952	-0.597925963637	-0.9814453125	-0.0947265625	0.2314453125	-1.9375	-2.25	-0.5625
18	12	13	15	59	47	-0.778526643644	0.149711967455	-0.597627225977	-0.9794921875	-0.09619140625	0.2314453125	-2.125	-2.4375	-0.5625
18	12	13	15	59	47	-0.778610134378	0.150082489648	-0.597400328862	-0.9794921875	-0.09912109375	0.23046875	-2.0625	-2.1875	-0.5
18	12	13	15	59	47	-0.77870910063	0.150322165911	-0.597199510124	-0.9814453125	-0.09814453125	0.2333984375	-1.1875	-2.0	-0.625
18	12	13	15	59	47	-0.778796814788	0.150510418908	-0.597036868515	-0.982421875	-0.0986328125	0.2333984375	-0.8125	-1.75	-0.4375
18	12	13	15	59	47	-0.778829192184	0.150626945091	-0.596953869505	-0.978515625	-0.09375	0.23095703125	-0.5625	-1.625	-0.125
18	12	13	15	59	47	-0.778889919536	0.150748950106	-0.5968315721	-0.98193359375	-0.1015625	0.23193359375	-0.5625	-1.6875	0.0
18	12	13	15	59	47	-0.7788910728	0.150932269475	-0.596771423745	-0.9755859375	-0.10107421875	0.2236328125	-0.875	-1.625	0.25
18	12	13	15	59	47	-0.77897586365	0.150997906971	-0.596606524107	-0.97607421875	-0.0966796875	0.2353515625	-0.8125	-1.6875	0.4375
18	12	13	15	59	47	-0.779002420948	0.151113286922	-0.596519089811	-0.978515625	-0.1005859375	0.23046875	-0.875	-1.75	0.625
18	12	13	15	59	47	-0.779027583698	0.151240234441	-0.59641629175	-0.9794921875	-0.09521484375	0.23779296875	-0.9375	-1.3125	0.5625
18	12	13	15	59	47	-0.779031540491	0.151302036108	-0.596358287538	-0.97705078125	-0.09814453125	0.240234375	-1.0625	-0.75	0.75
18	12	13	15	59	47	-0.778975918784	0.151425155097	-0.596362430654	-0.97900390625	-0.10400390625	0.23583984375	-0.9375	-0.4375	1.125
18	12	13	15	59	47	-0.778919259013	0.151364971192	-0.596426813906	-0.98046875	-0.1025390625	0.2353515625	0.25	-0.5	1.4375
18	12	13	15	59	47	-0.778943665898	0.151113728494	-0.596459801521	-0.97900390625	-0.10009765625	0.232421875	1.0625	-1.125	1.375
18	12	13	15	59	47	-0.778996376912	0.150867991517	-0.596453430865	-0.97021484375	-0.10009765625	0.21875	1.5	-2.0	1.3125
18	12	13	15	59	47	-0.779159500904	0.150570773048	-0.596301764361	-0.962890625	-0.10595703125	0.22802734375	1.6875	-2.5625	2.0
18	12	13	15	59	47	-0.779274340609	0.150142142692	-0.596235199985	-0.97265625	-0.10302734375	0.236328125	1.6875	-1.875	2.8125
18	12	13	15	59	47	-0.779376228719	0.149527937382	-0.59621976338	-0.9765625	-0.09423828125	0.2431640625	2.25	-1.0625	3.1875
18	12	13	15	59	47	-0.779304746832	0.148854591395	-0.596394861465	-0.974609375	-0.0849609375	0.25439453125	1.375	0.75	3.8125
18	12	13	15	59	47	-0.778976925709	0.148434684896	-0.596851473518	-0.98046875	-0.087890625	0.24365234375	0.8125	2.25	3.875
18	12	13	15	59	47	-0.778527961677	0.148247445823	-0.597384108568	-0.98388671875	-0.08740234375	0.24072265625	-0.6875	3.1875	3.6875
18	12	13	15	59	47	-0.777916570922	0.148247242333	-0.598054642905	-0.98681640625	-0.08837890625	0.24169921875	-2.25	4.0	3.9375
18	12	13	15	59	47	-0.777293897272	0.148427980384	-0.598655452131	-0.99072265625	-0.0888671875	0.24609375	-3.625	4.375	3.6875
18	12	13	15	59	47	-0.77665319134	0.148800037759	-0.599228371912	-0.9921875	-0.08984375	0.240234375	-4.5625	4.25	3.75
18	12	13	15	59	47	-0.776074083283	0.149282573743	-0.59969360981	-0.98974609375	-0.09765625	0.24267578125	-4.5625	3.625	3.5625
18	12	13	15	59	47	-0.775601198004	0.149651726275	-0.600071685456	-0.99169921875	-0.09912109375	0.2451171875	-4.0	3.125	3.6875
18	12	13	15	59	47	-0.77524726882	0.149898228013	-0.600325313818	-0.98974609375	-0.095703125	0.2431640625	-3.375	2.3125	3.375
18	12	13	15	59	47	-0.774998349818	0.150141434915	-0.600443673453	-0.98779296875	-0.09033203125	0.2431640625	-3.4375	1.375	3.0
18	12	13	15	59	47	-0.774822008674	0.150508946309	-0.6004489107	-0.99072265625	-0.0966796875	0.24755859375	-3.6875	0.8125	2.75
18	12	13	15	59	47	-0.774698041084	0.150874778032	-0.600386404329	-0.98828125	-0.099609375	0.24658203125	-3.75	0.375	2.5
18	12	13	15	59	47	-0.774603169061	0.151295403097	-0.600299146776	-0.98828125	-0.10009765625	0.2373046875	-3.3125	-0.0625	2.0625
18	12	13	15	59	47	-0.774578025613	0.151668615054	-0.600143859889	-0.99169921875	-0.0966796875	0.2431640625	-3.0625	-0.5	1.625
18	12	13	15	59	47	-0.774577024386	0.15203462042	-0.59995998343	-0.9873046875	-0.09375	0.2392578125	-2.875	-0.6875	1.125
18	12	13	15	59	47	-0.774640868546	0.152401374784	-0.599718025081	-0.98388671875	-0.09423828125	0.2431640625	-2.8125	-1.125	0.75
18	12	13	15	59	47	-0.774748966397	0.152886888359	-0.599402048132	-0.9833984375	-0.09912109375	0.23779296875	-2.8125	-1.6875	0.1875
18	12	13	15	59	47	-0.774856746004	0.153372322204	-0.599085839538	-0.9853515625	-0.09375	0.2353515625	-2.8125	-1.9375	-0.1875
18	12	13	15	59	47	-0.775058704447	0.153803286496	-0.598673189379	-0.984375	-0.091796875	0.23828125	-2.625	-2.3125	-0.625
18	12	13	15	59	47	-0.775238245851	0.154229810051	-0.598304245322	-0.9833984375	-0.091796875	0.23193359375	-2.5	-2.5625	-0.8125
18	12	13	15	59	47	-0.775418597266	0.154595459022	-0.597935930532	-0.982421875	-0.0888671875	0.2333984375	-2.1875	-2.8125	-0.9375
18	12	13	15	59	47	-0.775663753193	0.154961859262	-0.597509492781	-0.98095703125	-0.09033203125	0.23486328125	-1.75	-3.0	-1.0
18	12	13	15	59	47	-0.775923320981	0.155209077736	-0.597094143724	-0.98095703125	-0.08740234375	0.232421875	-1.375	-3.25	-0.8125
18	12	13	15	59	47	-0.776149273472	0.155388538984	-0.596713961369	-0.982421875	-0.0869140625	0.23046875	-1.375	-3.3125	-0.5625
18	12	13	15	59	47	-0.776349648389	0.155636132342	-0.596361038869	-0.98974609375	-0.0908203125	0.22900390625	-1.625	-3.3125	-0.5625
18	12	13	15	59	48	-0.776520464804	0.155938834204	-0.596046440248	-1.00146484375	-0.095703125	0.23193359375	-1.5625	-2.875	-0.5
18	12	13	15	59	48	-0.776455916408	0.156426388442	-0.595921676451	-1.01123046875	-0.083984375	0.236328125	-3.3125	-1.5	-0.5
18	12	13	15	59	48	-0.776146538485	0.15740205416	-0.595918440022	-1.01171875	-0.07275390625	0.2490234375	-7.5	1.0625	-1.3125
18	12	13	15	59	48	-0.775476081149	0.159172172174	-0.596102226081	-1.0068359375	-0.0732421875	0.25927734375	-11.9375	4.3125	-2.5625
18	12	13	15	59	48	-0.774613713282	0.161367684992	-0.596523355942	-0.990234375	-0.099609375	0.2509765625	-11.8125	6.5	-3.4375
18	12	13	15	59	48	-0.773911866352	0.163083005275	-0.597035163774	-0.97998046875	-0.14306640625	0.23193359375	-6.0625	6.0	-3.1875
18	12	13	15	59	48	-0.773579725206	0.163626606965	-0.597563636252	-0.98046875	-0.142578125	0.220703125	2.375	3.875	-2.75
18	12	13	15	59	48	-0.773585057485	0.163383605435	-0.597933949363	-0.9873046875	-0.1162109375	0.2021484375	6.625	0.6875	-3.75
18	12	13	15	59	48	-0.773774007007	0.163506906829	-0.597816406266	-0.99609375	-0.08837890625	0.21240234375	2.0625	-2.5	-4.875
18	12	13	15	59	48	-0.774183148053	0.164540620193	-0.597070062074	-0.9970703125	-0.09619140625	0.228515625	-3.8125	-4.375	-6.0625
18	12	13	15	59	48	-0.774612655811	0.166066895404	-0.596156352187	-1.00341796875	-0.1240234375	0.22802734375	-5.625	-4.9375	-6.9375
18	12	13	15	59	48	-0.77517517449	0.167351415515	-0.595251041398	-1.02197265625	-0.15087890625	0.23583984375	-2.125	-5.375	-6.6875
18	12	13	15	59	48	-0.775742113662	0.167660392308	-0.594715275808	-1.03857421875	-0.15234375	0.228515625	4.1875	-4.4375	-5.375
18	12	13	15	59	48	-0.776090704107	0.167412456855	-0.5945797137	-1.02685546875	-0.14697265625	0.22802734375	6.0625	-2.25	-2.75
18	12	13	15	59	48	-0.775993365122	0.167295722338	-0.594842798213	-0.9990234375	-0.13330078125	0.228515625	2.375	0.625	-0.0625
18	12	13	15	59	48	-0.775786738861	0.16783994429	-0.594946827977	-0.94140625	-0.12841796875	0.21337890625	-2.1875	0.4375	0.25
18	12	13	15	59	48	-0.775554504754	0.169185259084	-0.59471181981	-0.89892578125	-0.11474609375	0.205078125	-8.5	-0.9375	-0.9375
18	12	13	15	59	48	-0.775193613353	0.171810882733	-0.594166587354	-0.8876953125	-0.11376953125	0.193359375	-16.5625	-2.0	-3.1875
18	12	13	15	59	48	-0.774924309696	0.175467227721	-0.593170777817	-0.9013671875	-0.1240234375	0.19921875	-21.125	-3.6875	-6.5625
18	12	13	15	59	48	-0.775183328951	0.178583294269	-0.591900474307	-0.9189453125	-0.1650390625	0.20458984375	-13.5	-5.375	-8.875
18	12	13	15	59	48	-0.776344370548	0.179132918833	-0.590741915294	-0.9453125	-0.20068359375	0.21240234375	7.4375	-7.625	-9.75
18	12	13	15	59	48	-0.778257977054	0.176072323071	-0.590101660927	-0.97265625	-0.17431640625	0.22705078125	31.4375	-8.125	-9.0625
18	12	13	15	59	48	-0.780298716446	0.170463380136	-0.590182916545	-0.9951171875	-0.11669921875	0.2265625	45.8125	-6.625	-8.0625
18	12	13	15	59	48	-0.782026535451	0.164303085416	-0.590685460868	-0.99365234375	-0.08203125	0.23291015625	47.0625	-4.25	-7.4375
18	12	13	15	59	48	-0.783036737366	0.159292742364	-0.591458224615	-0.98828125	-0.05322265625	0.24072265625	36.25	-0.625	-5.5625
18	12	13	15	59	48	-0.78315722113	0.156484968437	-0.592433536901	-0.9853515625	-0.0576171875	0.23974609375	19.4375	3.125	-3.5
18	12	13	15	59	48	-0.782512144783	0.155757818695	-0.593552032448	-0.97509765625	-0.0703125	0.23388671875	4.1875	6.25	-1.6875
18	12	13	15	59	48	-0.781427580326	0.156554068854	-0.594661322746	-0.9677734375	-0.09130859375	0.24169921875	-6.5625	8.3125	-0.1875
18	12	13	15	59	48	-0.780174342826	0.158012311161	-0.595735098203	-0.9697265625	-0.1162109375	0.24853515625	-10.625	9.625	1.0
18	12	13	15	59	48	-0.778886120328	0.159048521358	-0.597011755919	-0.98291015625	-0.12548828125	0.24951171875	-7.75	10.4375	1.8125
18	12	13	15	59	48	-0.777758725799	0.159299244631	-0.598379231557	-0.9931640625	-0.123046875	0.25	-2.0	10.5625	2.0
18	12	13	15	59	48	-0.776663142403	0.158872625515	-0.599968462854	-0.9892578125	-0.12939453125	0.24169921875	2.875	11.3125	2.6875
18	12	13	15	59	48	-0.775707717753	0.158071045553	-0.601524411186	-0.97998046875	-0.14306640625	0.23974609375	6.0625	11.0	3.5625
18	12	13	15	59	48	-0.774890769641	0.157285248375	-0.602835234069	-0.9765625	-0.1318359375	0.24365234375	4.5625	9.75	4.1875
18	12	13	15	59	48	-0.773823416244	0.156913006007	-0.604215775757	-0.98193359375	-0.09716796875	0.23779296875	-0.4375	9.9375	4.25
18	12	13	15	59	48	-0.772671982675	0.157830153807	-0.60519868722	-1.00146484375	-0.08935546875	0.244140625	-10.0625	8.8125	2.6875
18	12	13	15	59	48	-0.771400979966	0.160212641222	-0.605817400676	-1.01513671875	-0.1240234375	0.2470703125	-18.5625	8.5	2.6875
18	12	13	15	59	48	-0.770271028045	0.162647356766	-0.606280991411	-1.0205078125	-0.17333984375	0.2529296875	-17.1875	8.0	3.9375
18	12	13	15	59	48	-0.769523067057	0.163816617384	-0.606744036296	-1.0	-0.18798828125	0.24853515625	-7.875	6.6875	5.75
18	12	13	15	59	48	-0.769330643624	0.163448430276	-0.607041854937	-0.96044921875	-0.15771484375	0.23388671875	1.3125	3.375	5.75
18	12	13	15	59	48	-0.769376365832	0.162895884532	-0.60702977428	-0.93359375	-0.10546875	0.21533203125	0.3125	0.0	4.0625
18	12	13	15	59	48	-0.769426237906	0.163564870119	-0.606532716134	-0.93310546875	-0.06884765625	0.21728515625	-8.6875	-2.375	0.5
18	12	13	15	59	48	-0.769636745669	0.165645846768	-0.605394677263	-0.9453125	-0.0927734375	0.22314453125	-15.6875	-4.625	-2.9375
18	12	13	15	59	48	-0.77029811362	0.167901918277	-0.603799955474	-0.97412109375	-0.1435546875	0.24462890625	-12.75	-6.4375	-4.8125
18	12	13	15	59	48	-0.771470039871	0.168209765023	-0.602405798539	-1.0029296875	-0.171875	0.2626953125	2.625	-6.8125	-4.3125
18	12	13	15	59	48	-0.773110093359	0.165583617532	-0.601545202506	-1.029296875	-0.18359375	0.27783203125	22.625	-5.75	-0.9375
18	12	13	15	59	48	-0.774817244891	0.160517475704	-0.601360717913	-1.0166015625	-0.13232421875	0.25634765625	35.625	-5.25	1.625
18	12	13	15	59	48	-0.776176249046	0.155271870533	-0.601495394696	-1.01318359375	-0.0751953125	0.22607421875	33.625	-5.6875	1.9375
18	12	13	15	59	48	-0.776870844068	0.152395828238	-0.60146611425	-1.00048828125	-0.04638671875	0.20947265625	15.125	-5.5	1.6875
18	12	13	15	59	49	-0.776706378362	0.152948780778	-0.601175375363	-0.9755859375	-0.04443359375	0.2021484375	-10.625	-4.25	2.5625
18	12	13	15	59	49	-0.776151667332	0.156731735607	-0.600194660418	-0.97509765625	-0.09716796875	0.20849609375	-31.4375	-5.125	3.25
18	12	13	15	59	49	-0.775726681387	0.161309647435	-0.598792641313	-0.97607421875	-0.16650390625	0.21533203125	-33.875	-6.8125	3.875
18	12	13	15	59	49	-0.775909493602	0.16436122601	-0.597205568701	-0.98046875	-0.18896484375	0.22314453125	-22.125	-8.75	4.8125
18	12	13	15	59	49	-0.776630430752	0.164969120183	-0.59585405858	-0.98828125	-0.1708984375	0.22802734375	-6.125	-10.1875	5.1875
18	12	13	15	59	49	-0.777903376647	0.163441490873	-0.594687784564	-0.97607421875	-0.14453125	0.21875	8.875	-11.875	3.6875
18	12	13	15	59	49	-0.779610800548	0.160572727121	-0.593527089035	-0.95849609375	-0.13330078125	0.20751953125	19.1875	-13.9375	2.6875
18	12	13	15	59	49	-0.781501872761	0.157154808462	-0.59230579267	-0.95458984375	-0.1162109375	0.19775390625	22.875	-16.0	1.6875
18	12	13	15	59	49	-0.783403250025	0.154044079391	-0.590909182514	-0.955078125	-0.0966796875	0.2021484375	19.875	-16.75	0.875
18	12	13	15	59	49	-0.785058117558	0.15178726101	-0.589449685095	-0.962890625	-0.09912109375	0.21728515625	13.625	-15.8125	1.1875
18	12	13	15	59	49	-0.7864648333	0.150262022318	-0.587987133634	-0.984375	-0.10009765625	0.24072265625	7.8125	-14.125	2.1875
18	12	13	15	59	49	-0.787386554936	0.149042552295	-0.587015261249	-0.9931640625	-0.107421875	0.24853515625	5.0	-10.75	3.75
18	12	13	15	59	49	-0.7878288321	0.14800781824	-0.586599233446	-0.994140625	-0.11083984375	0.251953125	3.4375	-6.125	5.5
18	12	13	15	59	49	-0.787740802786	0.147453457777	-0.586701196031	-0.99072265625	-0.1142578125	0.244140625	0.5625	-2.375	6.4375
18	12	13	15	59	49	-0.787209743018	0.147273771895	-0.587264083371	-0.99951171875	-0.11083984375	0.25048828125	-2.25	1.375	6.75
18	12	13	15	59	49	-0.786246024118	0.147459276065	-0.588250208077	-1.0205078125	-0.095703125	0.25048828125	-5.375	4.75	6.1875
18	12	13	15	59	49	-0.784882571075	0.148431913908	-0.589516388337	-1.0302734375	-0.09912109375	0.25634765625	-9.5	8.25	5.6875
18	12	13	15	59	49	-0.783102853337	0.150199993926	-0.591095872073	-1.029296875	-0.123046875	0.26220703125	-13.625	12.125	5.875
18	12	13	15	59	49	-0.781022993756	0.152457250793	-0.592862183429	-0.98974609375	-0.13330078125	0.26220703125	-16.6875	15.1875	6.4375
18	12	13	15	59	49	-0.778793110037	0.154843112866	-0.594775772517	-0.9677734375	-0.1220703125	0.24462890625	-17.25	16.125	5.6875
18	12	13	15	59	49	-0.776578934635	0.157769297865	-0.596471701367	-0.96630859375	-0.1064453125	0.2314453125	-20.375	14.75	3.125
18	12	13	15	59	49	-0.774251441274	0.161551597434	-0.597930109582	-0.98291015625	-0.1025390625	0.23046875	-26.375	14.5	1.6875
18	12	13	15	59	49	-0.772000644842	0.165886453687	-0.599156481177	-0.97802734375	-0.1318359375	0.23095703125	-27.6875	14.5	0.3125
18	12	13	15	59	49	-0.770295278682	0.169549186608	-0.600013698179	-0.95947265625	-0.16259765625	0.2392578125	-21.1875	12.4375	-0.125
18	12	13	15	59	49	-0.769390175571	0.17150455286	-0.600632136903	-0.94580078125	-0.1669921875	0.22607421875	-8.0	8.25	-1.1875
18	12	13	15	59	49	-0.769264138008	0.171625734376	-0.601056270319	-0.947265625	-0.1416015625	0.2060546875	4.8125	3.0625	-3.25
18	12	13	15	59	49	-0.769651231482	0.171006482484	-0.601085955028	-0.96142578125	-0.111328125	0.20703125	9.0	-0.8125	-4.6875
18	12	13	15	59	49	-0.770289828401	0.170280375663	-0.600802873844	-0.96826171875	-0.09814453125	0.21630859375	8.5625	-2.5625	-5.5625
18	12	13	15	59	49	-0.771218870937	0.169428900421	-0.600203100411	-0.96533203125	-0.1025390625	0.236328125	9.6875	-4.1875	-6.1875
18	12	13	15	59	49	-0.77248184966	0.168082090066	-0.599395136724	-0.99609375	-0.10791015625	0.2548828125	13.5	-5.25	-6.5
18	12	13	15	59	49	-0.773649853484	0.16582570621	-0.599035445877	-0.9990234375	-0.10986328125	0.25146484375	19.125	-3.75	-5.0
18	12	13	15	59	49	-0.774611190074	0.16319810292	-0.599023702377	-0.98779296875	-0.1123046875	0.23876953125	21.125	-2.1875	-2.625
18	12	13	15	59	49	-0.775300771716	0.160699593161	-0.599159857981	-0.978515625	-0.0771484375	0.236328125	17.3125	-1.625	-1.5625
18	12	13	15	59	49	-0.775479171971	0.15911177407	-0.599461390453	-0.955078125	-0.0498046875	0.22216796875	8.4375	-0.25	-0.75
18	12	13	15	59	49	-0.775122471829	0.159540956013	-0.599590800256	-0.95751953125	-0.04052734375	0.21435546875	-6.875	-0.125	-0.5625
18	12	13	15	59	49	-0.774443204353	0.16191960132	-0.599340552191	-0.9833984375	-0.06494140625	0.21826171875	-20.375	-0.0625	-0.0625
18	12	13	15	59	49	-0.773721548537	0.164729388617	-0.599043701103	-1.00537109375	-0.12744140625	0.22802734375	-20.9375	0.25	1.625
18	12	13	15	59	49	-0.773585341319	0.165824960344	-0.598727589613	-1.0	-0.16650390625	0.2275390625	-7.3125	-1.5	3.8125
18	12	13	15	59	49	-0.774205595756	0.164057125849	-0.598552170089	-0.99169921875	-0.14892578125	0.22021484375	11.4375	-4.625	5.3125
18	12	13	15	59	49	-0.775307549954	0.160395831007	-0.598432695214	-0.9775390625	-0.103515625	0.19384765625	22.6875	-8.4375	4.6875
18	12	13	15	59	49	-0.776572629984	0.156669438947	-0.598053693902	-0.97021484375	-0.07373046875	0.1865234375	21.8125	-10.75	3.75
18	12	13	15	59	49	-0.777727557225	0.154105162206	-0.597317711886	-0.98095703125	-0.0693359375	0.201171875	13.3125	-11.1875	3.3125
18	12	13	15	59	49	-0.778719986926	0.152582488229	-0.59641442999	-0.99169921875	-0.08251953125	0.2314453125	6.8125	-9.8125	2.9375
18	12	13	15	59	49	-0.77944929794	0.151483294768	-0.595679676446	-1.00048828125	-0.10498046875	0.2529296875	4.375	-7.0	4.5625
18	12	13	15	59	49	-0.779894873177	0.150510311258	-0.59520541581	-0.98974609375	-0.109375	0.26904296875	2.0625	-3.6875	6.6875
18	12	13	15	59	49	-0.779873218399	0.149895807199	-0.595188889171	-0.978515625	-0.10400390625	0.263671875	-0.3125	-0.125	7.4375
18	12	13	15	59	49	-0.779337345201	0.149837354724	-0.595626372607	-0.9599609375	-0.0908203125	0.25244140625	-4.625	3.125	7.1875
18	12	13	15	59	49	-0.778333705668	0.150747608641	-0.59633800973	-0.9580078125	-0.08740234375	0.23583984375	-10.375	5.25	6.25
18	12	13	15	59	49	-0.777428701275	0.152214412073	-0.596834296575	-0.9541015625	-0.11572265625	0.23193359375	-11.3125	4.6875	4.6875
18	12	13	15	59	49	-0.776761426295	0.153313797663	-0.597264659207	-0.9697265625	-0.13720703125	0.2314453125	-6.875	3.6875	3.6875
18	12	13	15	59	49	-0.776406955562	0.153560246851	-0.597700913121	-0.99462890625	-0.13916015625	0.23681640625	0.6875	2.9375	2.625
18	12	13	15	59	50	-0.776315078318	0.1526386801	-0.598226446358	-0.9990234375	-0.1220703125	0.24169921875	7.625	2.4375	2.375
18	12	13	15	59	50	-0.776286103122	0.151424311805	-0.598739419107	-0.9970703125	-0.10595703125	0.240234375	8.4375	1.8125	2.4375
18	12	13	15	59	50	-0.776195421652	0.150686153173	-0.599082737768	-0.98974609375	-0.09521484375	0.24267578125	4.3125	1.75	2.5625
18	12	13	15	59	50	-0.775924617336	0.150692824684	-0.599353397486	-0.986328125	-0.08984375	0.2451171875	-1.3125	2.125	2.5
18	12	13	15	59	50	-0.77547783598	0.151604513189	-0.599521390118	-0.99072265625	-0.1005859375	0.24267578125	-6.875	2.25	2.25
18	12	13	15	59	50	-0.775139790899	0.15270864227	-0.599482128048	-0.99609375	-0.103515625	0.2607421875	-8.1875	2.3125	1.5625
18	12	13	15	59	50	-0.774812782803	0.153680865466	-0.599526267465	-0.9921875	-0.1015625	0.25634765625	-6.6875	2.375	0.8125
18	12	13	15	59	50	-0.774626572073	0.154473672701	-0.599523858925	-0.9833984375	-0.109375	0.244140625	-4.125	1.6875	-0.3125
18	12	13	15	59	50	-0.774686948241	0.154900770081	-0.599401285644	-0.9833984375	-0.1142578125	0.23974609375	-0.3125	0.125	-1.375
18	12	13	15	59	50	-0.774936355454	0.154901824852	-0.599222268083	-0.99169921875	-0.10888671875	0.22900390625	2.875	-1.8125	-1.75
18	12	13	15	59	50	-0.775418992979	0.154473472745	-0.598851724448	-0.9951171875	-0.0966796875	0.23291015625	4.4375	-3.4375	-1.875
18	12	13	15	59	50	-0.775981809632	0.154048929331	-0.598373891901	-0.9931640625	-0.08837890625	0.23046875	4.25	-4.625	-2.5
18	12	13	15	59	50	-0.776518995397	0.153863427446	-0.597815260545	-0.9814453125	-0.0849609375	0.2294921875	2.3125	-4.9375	-2.5
18	12	13	15	59	50	-0.777115795318	0.1537997176	-0.597133506745	-0.97509765625	-0.09033203125	0.236328125	1.75	-5.125	-2.1875
18	12	13	15	59	50	-0.777681274496	0.15355878878	-0.596535612692	-0.97412109375	-0.09619140625	0.23974609375	2.4375	-4.8125	-1.625
18	12	13	15	59	50	-0.7781124946	0.153132343631	-0.596172472135	-0.9736328125	-0.09326171875	0.2333984375	3.5	-4.0	-0.9375
18	12	13	15	59	50	-0.778487544476	0.152584779396	-0.595874080496	-0.98681640625	-0.07763671875	0.2451171875	3.0	-2.9375	-0.625
18	12	13	15	59	50	-0.778695624649	0.152211528166	-0.595724429203	-0.994140625	-0.0810546875	0.24365234375	2.0625	-1.875	-0.25
18	12	13	15	59	50	-0.778760416529	0.151968137708	-0.595727306093	-0.99755859375	-0.0849609375	0.23974609375	1.4375	-1.125	-0.25
18	12	13	15	59	50	-0.778799840711	0.151792727574	-0.595757464356	-0.9892578125	-0.09130859375	0.22509765625	1.625	-1.8125	-0.1875
18	12	13	15	59	50	-0.779032006256	0.151607294229	-0.595565208167	-0.97705078125	-0.1064453125	0.21337890625	2.5625	-3.625	0.0625
18	12	13	15	59	50	-0.779410423498	0.151121394564	-0.595269370429	-0.9755859375	-0.10498046875	0.20947265625	4.0	-5.4375	0.5625
18	12	13	15	59	50	-0.779985872789	0.150382252782	-0.594754485941	-0.9775390625	-0.095703125	0.21826171875	4.8125	-6.75	0.875
18	12	13	15	59	50	-0.780679780763	0.149471095543	-0.594161337326	-0.9794921875	-0.09423828125	0.22412109375	5.5625	-7.1875	0.5
18	12	13	15	59	50	-0.78125892298	0.148732754887	-0.593649366755	-0.98583984375	-0.08935546875	0.23046875	4.75	-6.3125	0.3125
18	12	13	15	59	50	-0.781614724495	0.148315147628	-0.593321625552	-0.9892578125	-0.09130859375	0.24755859375	2.6875	-3.6875	0.4375
18	12	13	15	59	50	-0.781666748637	0.148069300554	-0.593314785937	-0.9775390625	-0.09033203125	0.26708984375	1.125	0.5	0.75
18	12	13	15	59	50	-0.78121512285	0.148125711184	-0.593845558229	-0.95849609375	-0.080078125	0.27392578125	-1.5	5.3125	1.1875
18	12	13	15	59	50	-0.780360133957	0.148613868777	-0.594821669447	-0.95654296875	-0.095703125	0.2626953125	-2.75	8.6875	1.0625
18	12	13	15	59	50	-0.779299247649	0.149219724372	-0.596085500179	-0.955078125	-0.1064453125	0.25439453125	-1.75	10.5	0.625
18	12	13	15	59	50	-0.778087813506	0.149709734609	-0.597618312797	-0.9658203125	-0.11083984375	0.2373046875	-0.5	11.375	0.5
18	12	13	15	59	50	-0.776985984411	0.149892198391	-0.599141576385	-0.96923828125	-0.10400390625	0.22900390625	2.0	10.6875	-0.5
18	12	13	15	59	50	-0.776149006043	0.149834537221	-0.600436732048	-0.97802734375	-0.109375	0.220703125	3.8125	8.5625	-1.0
18	12	13	15	59	50	-0.775607432734	0.149530863251	-0.601419235298	-0.99267578125	-0.111328125	0.2177734375	5.875	5.5625	-0.9375
18	12	13	15	59	50	-0.775407531992	0.148795243054	-0.602077552389	-0.99072265625	-0.103515625	0.2197265625	7.4375	2.75	-1.0
18	12	13	15	59	50	-0.775480570074	0.148065155281	-0.602331004727	-1.005859375	-0.09716796875	0.2255859375	6.75	0.1875	-0.4375
18	12	13	15	59	50	-0.775718831955	0.147270616956	-0.602326447881	-0.99755859375	-0.087890625	0.224609375	5.625	-1.8125	-0.25
18	12	13	15	59	50	-0.776160683536	0.146479959148	-0.602032632099	-0.98828125	-0.08544921875	0.23486328125	4.875	-3.0625	0.125
18	12	13	15	59	50	-0.776647542593	0.145747295223	-0.601665341837	-0.982421875	-0.0888671875	0.2294921875	5.0	-4.0	-0.0625
18	12	13	15	59	50	-0.777163227185	0.145008624768	-0.601273136032	-0.9912109375	-0.0947265625	0.23779296875	5.1875	-3.9375	0.1875
18	12	13	15	59	50	-0.777610963796	0.144035937097	-0.601044876498	-0.9912109375	-0.09765625	0.2421875	6.8125	-2.6875	0.8125
18	12	13	15	59	50	-0.778011284142	0.142749324883	-0.600963062044	-0.98974609375	-0.10009765625	0.25048828125	8.5	-1.4375	1.6875
18	12	13	15	59	50	-0.778217080863	0.141471821303	-0.601102660922	-0.98388671875	-0.087890625	0.24853515625	7.9375	-0.125	2.1875
18	12	13	15	59	50	-0.778195508431	0.140563471052	-0.601377281927	-0.9755859375	-0.08056640625	0.248046875	4.6875	1.625	2.375
18	12	13	15	59	50	-0.777806169564	0.140559291314	-0.601847664632	-0.974609375	-0.08740234375	0.236328125	-0.5	3.0	1.75
18	12	13	15	59	50	-0.777373111452	0.14110753189	-0.60220934998	-0.97900390625	-0.09423828125	0.24169921875	-3.8125	3.5625	1.1875
18	12	13	15	59	50	-0.776877437514	0.14183857057	-0.60263082866	-0.978515625	-0.111328125	0.2333984375	-3.9375	3.75	1.1875
18	12	13	15	59	50	-0.776471698589	0.14233076569	-0.603013707126	-0.98583984375	-0.11083984375	0.23583984375	-2.3125	3.3125	1.125
18	12	13	15	59	50	-0.776181674442	0.142566472047	-0.603344239152	-0.9892578125	-0.10888671875	0.23291015625	-0.1875	2.375	0.875
18	12	13	15	59	50	-0.776027236095	0.142632768443	-0.603549613664	-0.994140625	-0.10546875	0.228515625	0.1875	1.25	0.8125
18	12	13	15	59	51	-0.775967612767	0.142694059985	-0.603611742195	-0.99658203125	-0.09326171875	0.22021484375	-1.0	0.1875	0.75
18	12	13	15	59	51	-0.775967865682	0.143060301806	-0.603489873829	-0.9912109375	-0.09814453125	0.2314453125	-2.125	-0.5625	0.3125
18	12	13	15	59	51	-0.77604126344	0.143550849517	-0.603255355709	-0.98779296875	-0.10595703125	0.23388671875	-2.375	-1.3125	0.0
18	12	13	15	59	51	-0.776235139437	0.143796979754	-0.602958558145	-0.98193359375	-0.11279296875	0.23193359375	-0.5625	-2.0	0.1875
18	12	13	15	59	51	-0.776451844116	0.143730867229	-0.602754159133	-0.9814453125	-0.109375	0.22412109375	1.9375	-2.25	0.125
18	12	13	15	59	51	-0.776729589097	0.14343191375	-0.602536107462	-0.98046875	-0.1025390625	0.2275390625	2.6875	-2.25	0.0625
18	12	13	15	59	51	-0.77689458097	0.143306502955	-0.602399993257	-0.978515625	-0.09619140625	0.2314453125	1.6875	-1.4375	-0.1875
18	12	13	15	59	51	-0.776899988455	0.143307500424	-0.602404186193	-0.9794921875	-0.099609375	0.23583984375	0.8125	-0.4375	-0.5
18	12	13	15	59	51	-0.776893191856	0.143367280043	-0.602398916146	-0.98486328125	-0.10302734375	0.240234375	0.1875	0.875	-0.75
18	12	13	15	59	51	-0.776706093376	0.143610674031	-0.602639947037	-0.9892578125	-0.1015625	0.24365234375	0.1875	2.6875	-1.0
18	12	13	15	59	51	-0.776399545896	0.143976615735	-0.603005071413	-0.97998046875	-0.10107421875	0.2431640625	-0.5	3.9375	-1.25
18	12	13	15	59	51	-0.775955691356	0.144522815568	-0.603480405547	-0.97314453125	-0.09814453125	0.2392578125	-1.9375	4.5625	-1.375
18	12	13	15	59	51	-0.775419060857	0.14531859771	-0.603978514462	-0.97119140625	-0.09912109375	0.23193359375	-3.3125	4.9375	-1.5625
18	12	13	15	59	51	-0.774878634631	0.146296793258	-0.604412659006	-0.974609375	-0.09814453125	0.234375	-4.9375	4.6875	-1.6875
18	12	13	15	59	51	-0.774437740622	0.147270728042	-0.60470715849	-0.9775390625	-0.09765625	0.23974609375	-5.375	4.0625	-1.6875
18	12	13	15	59	51	-0.774082877773	0.148249413397	-0.60489910917	-0.98828125	-0.1015625	0.236328125	-4.8125	3.125	-1.8125
18	12	13	15	59	51	-0.773909046849	0.148922561066	-0.604967387411	-0.98779296875	-0.103515625	0.23046875	-2.8125	1.6875	-1.9375
18	12	13	15	59	51	-0.773955374215	0.149163862044	-0.604894859542	-0.98583984375	-0.09716796875	0.22509765625	-0.1875	-0.125	-2.0
18	12	13	15	59	51	-0.774197481886	0.148980374717	-0.604710181358	-0.986328125	-0.09619140625	0.21875	2.4375	-2.0	-1.75
18	12	13	15	59	51	-0.774733801272	0.148428596557	-0.604272834914	-0.990234375	-0.095703125	0.22412109375	4.625	-4.25	-1.5
18	12	13	15	59	51	-0.775426280559	0.147639210757	-0.603678972138	-1.001953125	-0.09228515625	0.2265625	5.8125	-5.75	-1.0
18	12	13	15	59	51	-0.776152018607	0.146661421775	-0.6030634659	-1.0068359375	-0.08740234375	0.2314453125	5.8125	-6.125	-0.25
18	12	13	15	59	51	-0.776840372576	0.145810154783	-0.602405285773	-1.015625	-0.08837890625	0.236328125	4.1875	-6.25	0.75
18	12	13	15	59	51	-0.777428795391	0.145012625047	-0.601839013295	-1.0087890625	-0.1015625	0.2353515625	3.8125	-5.4375	2.125
18	12	13	15	59	51	-0.777883061677	0.14416318491	-0.601432694372	-0.9921875	-0.10107421875	0.228515625	3.5	-4.9375	3.5
18	12	13	15	59	51	-0.778300659193	0.143551062612	-0.600936973841	-0.9736328125	-0.09130859375	0.22998046875	0.875	-4.9375	3.875
18	12	13	15	59	51	-0.778614032591	0.14361360968	-0.600332964221	-0.9658203125	-0.0888671875	0.2265625	-3.75	-5.375	3.4375
18	12	13	15	59	51	-0.778891764761	0.144340935877	-0.59957943089	-0.96044921875	-0.099609375	0.21923828125	-7.25	-6.0	2.625
18	12	13	15	59	51	-0.77934290906	0.145199841856	-0.598621290004	-0.95751953125	-0.11767578125	0.2177734375	-6.3125	-7.375	1.8125
18	12	13	15	59	51	-0.780113807551	0.145561839384	-0.59750541198	-0.95751953125	-0.13330078125	0.2216796875	-1.125	-8.875	0.875
18	12	13	15	59	51	-0.781111007549	0.144833288085	-0.596483659695	-0.9619140625	-0.1201171875	0.22314453125	5.75	-9.5	0.3125
18	12	13	15	59	51	-0.782138788831	0.143549780049	-0.595621727678	-0.97705078125	-0.103515625	0.234375	9.4375	-8.9375	-0.1875
18	12	13	15	59	51	-0.783037485503	0.142204001654	-0.594937600053	-0.9765625	-0.0908203125	0.2353515625	9.875	-7.5625	-0.6875
18	12	13	15	59	51	-0.783712762704	0.140862008903	-0.594574389398	-0.98486328125	-0.09326171875	0.23095703125	9.9375	-5.6875	-0.875
18	12	13	15	59	51	-0.784135646816	0.139640594638	-0.594510066597	-0.9794921875	-0.09619140625	0.23095703125	10.0	-3.625	-0.8125
18	12	13	15	59	51	-0.78432615684	0.138482300978	-0.594698783927	-0.9853515625	-0.0927734375	0.2392578125	8.8125	-1.3125	0.0
18	12	13	15	59	51	-0.784152095846	0.137507368613	-0.595254933903	-0.9814453125	-0.080078125	0.240234375	6.375	1.5625	0.75
18	12	13	15	59	51	-0.783724012322	0.137018955507	-0.595986681748	-0.9794921875	-0.0849609375	0.23486328125	3.125	3.5	1.1875
18	12	13	15	59	51	-0.78299131514	0.136957869762	-0.596962978672	-0.98681640625	-0.091796875	0.24560546875	0.6875	5.9375	1.8125
18	12	13	15	59	51	-0.782050063711	0.136953359058	-0.598163935885	-0.98291015625	-0.0869140625	0.2421875	-0.5625	8.0625	2.1875
18	12	13	15	59	51	-0.78105676024	0.137083182269	-0.599418492015	-0.97509765625	-0.09521484375	0.2470703125	-0.625	9.0625	2.3125
18	12	13	15	59	51	-0.779980683885	0.137320542937	-0.600731601837	-0.970703125	-0.09619140625	0.24365234375	-1.75	9.625	2.375
18	12	13	15	59	51	-0.77888218917	0.137747774718	-0.602013314055	-0.96826171875	-0.0966796875	0.24365234375	-2.75	10.0	2.1875
18	12	13	15	59	51	-0.777849545388	0.138297926234	-0.603176701221	-0.97265625	-0.10107421875	0.2431640625	-2.9375	9.5625	1.8125
18	12	13	15	59	51	-0.776954387257	0.138728776295	-0.604230041936	-0.9765625	-0.10595703125	0.23974609375	-1.75	8.375	1.375
18	12	13	15	59	51	-0.776282524616	0.138911787564	-0.605084122104	-0.98388671875	-0.1064453125	0.23681640625	0.25	6.625	1.125
18	12	13	15	59	51	-0.775883946399	0.138661867869	-0.605730210651	-0.990234375	-0.107421875	0.2333984375	3.0	4.5625	1.0625
18	12	13	15	59	51	-0.775780164653	0.138054813346	-0.606110676986	-0.9921875	-0.1015625	0.23291015625	5.0625	2.25	1.0
18	12	13	15	59	51	-0.775861129615	0.137325955132	-0.606248316588	-0.9970703125	-0.09228515625	0.23095703125	5.0	0.0	1.1875
18	12	13	15	59	51	-0.776078754756	0.136649916003	-0.606166576929	-1.0029296875	-0.087890625	0.23046875	4.0625	-1.75	1.125
18	12	13	15	59	52	-0.776406844213	0.136104650782	-0.605879313144	-1.00244140625	-0.08935546875	0.232421875	2.6875	-2.9375	1.4375
18	12	13	15	59	52	-0.776876673551	0.13561316432	-0.605376677269	-0.99609375	-0.0927734375	0.240234375	2.1875	-4.0	1.8125
18	12	13	15	59	52	-0.777374618671	0.13512659227	-0.604834927458	-0.98876953125	-0.0869140625	0.2373046875	2.0	-4.375	1.875
18	12	13	15	59	52	-0.777803808225	0.134638669252	-0.604348188092	-0.9833984375	-0.08447265625	0.2353515625	1.375	-4.375	1.875
18	12	13	15	59	52	-0.778164946246	0.134515728747	-0.603855998287	-0.97607421875	-0.08740234375	0.23388671875	-0.3125	-3.8125	1.875
18	12	13	15	59	52	-0.77842067924	0.134517733813	-0.603437765066	-0.97998046875	-0.0830078125	0.24267578125	-1.75	-2.75	1.875
18	12	13	15	59	52	-0.778527999377	0.134698282739	-0.603182205851	-0.978515625	-0.08544921875	0.24560546875	-2.4375	-1.4375	1.5625
18	12	13	15	59	52	-0.778482221629	0.134884022721	-0.603132992092	-0.98388671875	-0.087890625	0.2392578125	-2.0	-0.25	1.375
18	12	13	15	59	52	-0.778353567152	0.135004947114	-0.603249953558	-0.9814453125	-0.09228515625	0.2314453125	-0.9375	0.375	1.0625
18	12	13	15	59	52	-0.778207839748	0.135061873529	-0.603414705638	-0.98193359375	-0.0908203125	0.22314453125	0.0	0.3125	1.0
18	12	13	15	59	52	-0.778080117357	0.134999860349	-0.603593408162	-0.98876953125	-0.08642578125	0.2236328125	0.3125	0.0	1.0
18	12	13	15	59	52	-0.778056033465	0.13500627126	-0.603622071773	-0.9951171875	-0.08837890625	0.22412109375	0.4375	-0.5625	0.9375
18	12	13	15	59	52	-0.778045393897	0.134882359626	-0.603674850254	-0.99365234375	-0.0908203125	0.224609375	1.0625	-1.0625	1.0
18	12	13	15	59	52	-0.778106674456	0.134577238778	-0.603675042516	-0.9951171875	-0.08740234375	0.2255859375	2.0	-1.5	1.125
18	12	13	15	59	52	-0.778225487432	0.134149448779	-0.603672519504	-0.990234375	-0.09228515625	0.2197265625	3.125	-1.625	1.1875
18	12	13	15	59	52	-0.778316002475	0.133666251993	-0.603695387428	-0.9853515625	-0.09130859375	0.224609375	3.0625	-1.5	1.5
18	12	13	15	59	52	-0.778296687252	0.133296735019	-0.603802472317	-0.9892578125	-0.08251953125	0.22314453125	2.0	-0.875	1.625
18	12	13	15	59	52	-0.77822905161	0.133112505808	-0.603919415394	-0.98193359375	-0.08349609375	0.224609375	0.6875	-0.25	1.375
18	12	13	15	59	52	-0.778078145174	0.133168602461	-0.604080122436	-0.98046875	-0.0888671875	0.22705078125	-0.625	0.375	1.375
18	12	13	15	59	52	-0.777807215513	0.133418594877	-0.604350835531	-0.9814453125	-0.095703125	0.21826171875	-1.0	1.0	1.3125
18	12	13	15	59	52	-0.77754306744	0.133598255465	-0.604640437137	-0.97802734375	-0.091796875	0.2216796875	-0.5625	1.375	1.0625
18	12	13	15	59	52	-0.777301860845	0.1336597892	-0.604947867831	-0.984375	-0.09326171875	0.2275390625	0.125	1.625	0.8125
18	12	13	15	59	52	-0.777048530624	0.133658206257	-0.605306890255	-0.986328125	-0.08984375	0.23046875	0.8125	2.1875	0.625
18	12	13	15	59	52	-0.776729402466	0.133605269684	-0.605770809325	-0.982421875	-0.09033203125	0.220703125	1.375	2.5	0.375
18	12	13	15	59	52	-0.776528014449	0.133480057188	-0.606122747111	-0.9775390625	-0.091796875	0.228515625	2.3125	2.375	0.375
18	12	13	15	59	52	-0.776279719681	0.133296242455	-0.606546729632	-0.98193359375	-0.0888671875	0.22509765625	2.3125	2.1875	0.3125
18	12	13	15	59	52	-0.776037013963	0.133235454304	-0.606914043795	-0.99658203125	-0.0830078125	0.22900390625	1.1875	2.5625	0.0625
18	12	13	15	59	52	-0.775671063311	0.133418596616	-0.607341470691	-1.00537109375	-0.078125	0.2353515625	-0.875	3.375	-0.1875
18	12	13	15	59	52	-0.775303174548	0.133845537415	-0.607706345664	-0.99365234375	-0.08642578125	0.24072265625	-2.1875	3.5625	-0.25
18	12	13	15	59	52	-0.775003406272	0.134273704032	-0.608015745258	-0.9833984375	-0.1015625	0.23291015625	-1.125	3.1875	-0.25
18	12	13	15	59	52	-0.774739203475	0.134636417431	-0.608305155273	-0.97412109375	-0.10302734375	0.2216796875	-0.5625	2.25	0.0625
18	12	13	15	59	52	-0.774773062164	0.134642301492	-0.60827070565	-0.97265625	-0.0947265625	0.22509765625	0.0	0.5625	-0.125
18	12	13	15	59	52	-0.774791089666	0.134695859385	-0.608236943648	-0.97802734375	-0.087890625	0.232421875	-0.5	-0.875	-0.1875
18	12	13	15	59	52	-0.775007471138	0.134884746512	-0.607896866635	-0.99365234375	-0.08447265625	0.2412109375	-1.4375	-1.6875	-0.3125
18	12	13	15	59	52	-0.775306260429	0.135066736545	-0.607464631193	-0.998046875	-0.08251953125	0.24169921875	-1.0625	-2.3125	-0.6875
18	12	13	15	59	52	-0.775803553703	0.135068308107	-0.606861359017	-0.99169921875	-0.09326171875	0.23681640625	0.8125	-3.6875	-1.0
18	12	13	15	59	52	-0.776399872703	0.134821737191	-0.6062400704	-0.99658203125	-0.09521484375	0.2294921875	3.0625	-5.25	-1.125
18	12	13	15	59	52	-0.777180858097	0.134270291174	-0.605436949295	-1.0048828125	-0.08740234375	0.23291015625	3.9375	-6.625	-1.0
18	12	13	15	59	52	-0.777915656704	0.133904515205	-0.604584379045	-1.01318359375	-0.07177734375	0.2373046875	2.0625	-6.875	-0.875
18	12	13	15	59	52	-0.778612112481	0.133847798281	-0.603688359689	-0.99169921875	-0.07421875	0.234375	-0.125	-7.0	-1.3125
18	12	13	15	59	52	-0.779403925621	0.133969586276	-0.60264951931	-0.9736328125	-0.0888671875	0.23681640625	-0.375	-7.4375	-1.1875
18	12	13	15	59	52	-0.780131048653	0.133968678751	-0.601729933396	-0.9638671875	-0.095703125	0.22705078125	0.75	-7.25	-0.8125
18	12	13	15	59	52	-0.78085395733	0.133722918595	-0.600868157723	-0.9736328125	-0.0908203125	0.240234375	1.625	-6.625	-0.375
18	12	13	15	59	52	-0.781414187143	0.133297554067	-0.600266229052	-0.974609375	-0.0791015625	0.23583984375	2.5	-5.375	-0.5625
18	12	13	15	59	52	-0.781774110549	0.133052350769	-0.599895209039	-0.97607421875	-0.0791015625	0.23046875	2.125	-4.3125	-0.8125
18	12	13	15	59	52	-0.782011343818	0.132929111593	-0.599645785765	-0.97314453125	-0.08154296875	0.23779296875	1.125	-2.375	-0.625
18	12	13	15	59	52	-0.782021935629	0.132747811597	-0.599714941035	-0.97802734375	-0.0849609375	0.2353515625	1.75	-0.4375	-0.3125
18	12	13	15	59	52	-0.781847166299	0.132383021366	-0.600087536226	-0.9775390625	-0.0888671875	0.23779296875	3.1875	1.5	0.5
18	12	13	15	59	52	-0.781501465232	0.131765846422	-0.600727756523	-0.98583984375	-0.0830078125	0.23388671875	4.0625	2.9375	1.375
18	12	13	15	59	52	-0.781015041551	0.131216874215	-0.601522563845	-0.98291015625	-0.0771484375	0.22998046875	3.125	4.0	1.375
18	12	13	15	59	53	-0.780392671728	0.131092786335	-0.602367691401	-0.978515625	-0.08154296875	0.21630859375	1.3125	4.0	1.0625
18	12	13	15	59	53	-0.779894446106	0.131162401368	-0.603017461851	-0.984375	-0.09375	0.2294921875	0.1875	3.75	1.125
18	12	13	15	59	53	-0.779456010795	0.13109948408	-0.603619132939	-0.986328125	-0.09619140625	0.22705078125	1.0	3.25	1.3125
18	12	13	15	59	53	-0.779239019616	0.130788629311	-0.604020095327	-0.9853515625	-0.10009765625	0.23828125	2.75	2.5625	1.4375
18	12	13	15	59	53	-0.779142784601	0.130243670871	-0.604345280677	-0.9833984375	-0.10009765625	0.23388671875	4.625	1.6875	1.5
18	12	13	15	59	53	-0.779082357034	0.129572412376	-0.604650913525	-0.98388671875	-0.09423828125	0.2353515625	5.25	1.0625	1.4375
18	12	13	15	59	53	-0.779093063006	0.128902824055	-0.604842323101	-0.98486328125	-0.08642578125	0.2392578125	4.3125	0.8125	1.3125
18	12	13	15	59	53	-0.779005384985	0.128532226636	-0.605065762045	-0.9814453125	-0.08642578125	0.23193359375	2.625	0.8125	0.9375
18	12	13	15	59	53	-0.779019288702	0.128351423076	-0.605137593817	-0.9853515625	-0.09375	0.2451171875	2.1875	0.625	0.5625
18	12	13	15	59	53	-0.779010407822	0.128105832499	-0.605252758882	-0.990234375	-0.09521484375	0.2421875	2.375	1.0	0.5625
18	12	13	15	59	53	-0.778889751261	0.12792296808	-0.605497980118	-0.99267578125	-0.0888671875	0.24609375	1.8125	1.875	0.375
18	12	13	15	59	53	-0.778700058071	0.128043947161	-0.605736975966	-0.99169921875	-0.08935546875	0.2509765625	0.125	2.75	0.125
18	12	13	15	59	53	-0.77843907837	0.128356388726	-0.606015493895	-0.98388671875	-0.09716796875	0.24755859375	-0.9375	3.1875	0.25
18	12	13	15	59	53	-0.778177971622	0.128658757975	-0.606307448634	-0.984375	-0.09814453125	0.24267578125	-0.875	2.875	-0.0625
18	12	13	15	59	53	-0.778039000512	0.129083188428	-0.606416340531	-0.97900390625	-0.10107421875	0.2412109375	-1.0625	2.0625	-0.4375
18	12	13	15	59	53	-0.777928654552	0.129512365053	-0.606486508731	-0.9794921875	-0.099609375	0.23974609375	-1.1875	1.3125	-0.75
18	12	13	15	59	53	-0.777974734216	0.129815035669	-0.606413819657	-0.98388671875	-0.0966796875	0.23583984375	-0.1875	-0.0625	-1.375
18	12	13	15	59	53	-0.778201162755	0.129995175019	-0.6061559053	-0.9814453125	-0.103515625	0.2353515625	1.1875	-1.4375	-1.3125
18	12	13	15	59	53	-0.778590436825	0.129754900736	-0.605807688009	-0.98583984375	-0.095703125	0.2333984375	3.1875	-2.6875	-1.625
18	12	13	15	59	53	-0.779052680671	0.129445416036	-0.605360245952	-0.98828125	-0.08935546875	0.2353515625	3.5	-3.6875	-1.5
18	12	13	15	59	53	-0.779567160085	0.129144610564	-0.604831328305	-0.9853515625	-0.08447265625	0.22900390625	2.8125	-4.4375	-1.3125
18	12	13	15	59	53	-0.780049993195	0.128960616197	-0.604277832925	-0.98388671875	-0.08203125	0.2353515625	1.625	-4.5625	-1.0625
18	12	13	15	59	53	-0.780492967447	0.128841152196	-0.603740728338	-0.98486328125	-0.08203125	0.23583984375	0.5625	-4.5	-0.6875
18	12	13	15	59	53	-0.780885140603	0.128835367863	-0.603225379423	-0.98876953125	-0.0849609375	0.24169921875	-0.1875	-3.9375	-0.25
18	12	13	15	59	53	-0.781149549768	0.128777681851	-0.602874853708	-0.982421875	-0.08349609375	0.23046875	-0.1875	-3.5625	0.0625
18	12	13	15	59	53	-0.781378931813	0.128775251592	-0.602558321783	-0.98046875	-0.08251953125	0.228515625	-0.3125	-3.25	0.25
18	12	13	15	59	53	-0.781510198137	0.128898831587	-0.602321292106	-0.98193359375	-0.08447265625	0.2275390625	-1.3125	-2.6875	0.4375
18	12	13	15	59	53	-0.78151934617	0.129144469855	-0.602206277911	-0.98974609375	-0.0869140625	0.22900390625	-2.3125	-2.125	0.5625
18	12	13	15	59	53	-0.781539970812	0.129514081848	-0.602039068496	-0.9912109375	-0.09130859375	0.2353515625	-2.8125	-1.5	0.625
18	12	13	15	59	53	-0.781479181378	0.129880326302	-0.601978222894	-0.98828125	-0.08740234375	0.23828125	-2.625	-0.875	0.5625
18	12	13	15	59	53	-0.781433821261	0.130177939765	-0.601943281716	-0.98486328125	-0.09326171875	0.23681640625	-2.1875	-0.625	0.4375
18	12	13	15	59	53	-0.781372901358	0.130554338073	-0.601929351132	-0.9833984375	-0.10107421875	0.2255859375	-1.5625	-1.0	0.1875
18	12	13	15	59	53	-0.781356052465	0.13085669243	-0.601855337709	-0.98779296875	-0.09423828125	0.23486328125	-1.9375	-1.125	0.1875
18	12	13	15	59	53	-0.781407748414	0.131282360918	-0.601665045995	-0.98388671875	-0.0947265625	0.2431640625	-2.25	-1.125	-0.1875
18	12	13	15	59	53	-0.781457778208	0.131768770943	-0.601473477369	-0.9775390625	-0.0966796875	0.24267578125	-2.5	-0.75	-0.5
18	12	13	15	59	53	-0.781378831403	0.132253997317	-0.601459687844	-0.9716796875	-0.099609375	0.23876953125	-2.3125	-0.0625	-0.5625
18	12	13	15	59	53	-0.781377338342	0.132314775406	-0.601458538573	-0.96923828125	-0.109375	0.24072265625	-0.8125	0.3125	-0.5
18	12	13	15	59	53	-0.781377338342	0.132314775406	-0.601458538573	-0.97216796875	-0.1005859375	0.236328125	0.6875	0.3125	-0.375
18	12	13	15	59	53	-0.781347256602	0.132381049802	-0.60148236321	-0.974609375	-0.09375	0.2314453125	0.6875	0.3125	-0.125
18	12	13	15	59	53	-0.781347256602	0.132381049802	-0.60148236321	-0.9814453125	-0.08740234375	0.2353515625	-0.8125	0.5	0.0
18	12	13	15	59	53	-0.781177315751	0.132688451007	-0.601614563744	-0.98779296875	-0.087890625	0.2373046875	-2.125	0.5625	-0.375
18	12	13	15	59	53	-0.781053392414	0.133054340507	-0.601674169135	-0.98876953125	-0.09912109375	0.2412109375	-1.625	0.5	0.125
18	12	13	15	59	53	-0.781029532288	0.133050275876	-0.601716821038	-0.9833984375	-0.10498046875	0.2333984375	0.1875	-0.0625	0.6875
18	12	13	15	59	53	-0.78116155553	0.132746807038	-0.601663459209	-0.9814453125	-0.1064453125	0.232421875	2.75	-1.1875	0.9375
18	12	13	15	59	53	-0.781262966496	0.132316077757	-0.601647552825	-0.990234375	-0.09716796875	0.234375	2.8125	-1.6875	1.25
18	12	13	15	59	53	-0.781331035099	0.132073141693	-0.601591939772	-0.9921875	-0.08642578125	0.23974609375	0.5625	-1.375	1.125
18	12	13	15	59	53	-0.781350242855	0.132259488851	-0.601484662032	-0.9775390625	-0.091796875	0.24072265625	-1.75	-0.8125	0.8125
18	12	13	15	59	53	-0.781388657296	0.132621850528	-0.601345187873	-0.9716796875	-0.1142578125	0.2412109375	-1.375	-0.5625	0.875
18	12	13	15	59	53	-0.781403113036	0.13262430404	-0.601356312797	-0.97265625	-0.1123046875	0.23388671875	1.125	-0.5625	0.875
18	12	13	15	59	53	-0.78148881447	0.132262282174	-0.601375295921	-0.9814453125	-0.0986328125	0.232421875	3.0625	-1.125	0.375
18	12	13	15	59	54	-0.781574416158	0.132073015506	-0.60134723742	-0.98779296875	-0.095703125	0.2314453125	2.0	-1.3125	0.0625
18	12	13	15	59	54	-0.781636420496	0.13207317982	-0.601286953597	-0.99365234375	-0.09814453125	0.234375	0.5	-1.5	-0.1875
18	12	13	15	59	54	-0.781695350192	0.132194888235	-0.601224304711	-0.99267578125	-0.1083984375	0.23193359375	0.6875	-1.5	-0.375
18	12	13	15	59	54	-0.781835072384	0.132136840883	-0.601115817948	-0.98486328125	-0.10986328125	0.23681640625	1.9375	-1.3125	-0.0625
18	12	13	15	59	54	-0.781872756286	0.131949800881	-0.601158898557	-0.9775390625	-0.103515625	0.2353515625	2.375	-0.6875	0.25
18	12	13	15	59	54	-0.781824740941	0.131768900522	-0.601290971721	-0.97998046875	-0.09033203125	0.2392578125	1.375	0.3125	0.125
18	12	13	15	59	54	-0.781648583648	0.131953169192	-0.601479409061	-0.9833984375	-0.0908203125	0.2392578125	-0.6875	1.0	-0.25
18	12	13	15	59	54	-0.781385187922	0.132377136031	-0.601708706375	-0.98486328125	-0.09716796875	0.2392578125	-2.3125	2.0	-0.25
18	12	13	15	59	54	-0.781029170082	0.132867117549	-0.60208273524	-0.97900390625	-0.107421875	0.2314453125	-1.5625	2.4375	-0.3125
18	12	13	15	59	54	-0.780726681637	0.133111702052	-0.60245099081	-0.98291015625	-0.107421875	0.232421875	-0.1875	2.25	-0.25
18	12	13	15	59	54	-0.78039040718	0.133177840487	-0.602901332874	-0.9814453125	-0.0966796875	0.23046875	0.375	2.5	-0.0625
18	12	13	15	59	54	-0.780057282025	0.13329513371	-0.603306958205	-0.9833984375	-0.08935546875	0.2314453125	-0.4375	2.5	-0.0625
18	12	13	15	59	54	-0.77972892006	0.133596321698	-0.603655193199	-0.9765625	-0.0927734375	0.23974609375	-1.5	2.875	0.0
18	12	13	15	59	54	-0.779376368067	0.133903817662	-0.604031943208	-0.97900390625	-0.0966796875	0.2373046875	-1.6875	3.1875	0.0625
18	12	13	15	59	54	-0.778983541909	0.134092834096	-0.604485857484	-0.9853515625	-0.0966796875	0.2333984375	-1.0	3.125	0.375
18	12	13	15	59	54	-0.778682969941	0.134215696104	-0.604855638197	-0.986328125	-0.10107421875	0.24169921875	-0.1875	3.1875	0.5625
18	12	13	15	59	54	-0.778391937741	0.13414657983	-0.605246420462	-0.990234375	-0.08935546875	0.23876953125	0.125	2.875	0.5
18	12	13	15	59	54	-0.778105673045	0.134271902165	-0.605566278763	-0.990234375	-0.091796875	0.236328125	-1.0	2.4375	0.625
18	12	13	15	59	54	-0.777849906113	0.134514020641	-0.605801347044	-0.98681640625	-0.091796875	0.236328125	-2.25	2.0	0.5
18	12	13	15	59	54	-0.777653354472	0.134877877365	-0.605912926008	-0.98388671875	-0.0966796875	0.23486328125	-2.6875	1.25	0.8125
18	12	13	15	59	54	-0.777443582136	0.135189004116	-0.606061765631	-0.98583984375	-0.09912109375	0.22705078125	-2.5625	0.75	1.1875
18	12	13	15	59	54	-0.777307573459	0.135430708661	-0.606111927766	-0.98583984375	-0.09326171875	0.22998046875	-2.5625	0.4375	1.1875
18	12	13	15	59	54	-0.777134320279	0.135798622683	-0.606180638421	-0.986328125	-0.095703125	0.22509765625	-3.1875	0.125	1.1875
18	12	13	15	59	54	-0.777084133586	0.136227755747	-0.606067031614	-0.9853515625	-0.10009765625	0.22998046875	-3.5	-0.3125	1.125
18	12	13	15	59	54	-0.77701285469	0.136714224688	-0.605998007558	-0.98828125	-0.111328125	0.2236328125	-2.8125	-0.6875	0.9375
18	12	13	15	59	54	-0.777041490212	0.136891616599	-0.605911711814	-0.98291015625	-0.11376953125	0.21923828125	-0.9375	-1.3125	1.125
18	12	13	15	59	54	-0.777182529919	0.136833927444	-0.605743412081	-0.982421875	-0.111328125	0.22021484375	0.6875	-2.0	1.1875
18	12	13	15	59	54	-0.777429664154	0.136590327239	-0.605501624907	-0.97900390625	-0.1083984375	0.2236328125	1.875	-2.75	1.1875
18	12	13	15	59	54	-0.777718518938	0.136221277115	-0.605244805172	-0.97900390625	-0.1064453125	0.21728515625	2.6875	-3.1875	1.1875
18	12	13	15	59	54	-0.777995680944	0.135921893894	-0.604965340042	-0.98876953125	-0.10205078125	0.22216796875	2.0625	-3.1875	1.0
18	12	13	15	59	54	-0.778178265849	0.135738703	-0.604781838141	-0.98876953125	-0.1015625	0.21923828125	1.0	-2.6875	0.8125
18	12	13	15	59	54	-0.77827231333	0.135977941821	-0.60457697113	-0.98046875	-0.10888671875	0.22607421875	-1.125	-1.875	0.9375
18	12	13	15	59	54	-0.778241462115	0.136227350282	-0.604539383754	-0.984375	-0.11181640625	0.22802734375	-1.375	-0.5625	1.125
18	12	13	15	59	54	-0.778101977567	0.136407398216	-0.604647916837	-0.98193359375	-0.1025390625	0.2294921875	-1.125	0.8125	0.9375
18	12	13	15	59	54	-0.777790997976	0.136711537623	-0.604948553981	-0.98388671875	-0.10009765625	0.22900390625	-2.0	2.0625	0.8125
18	12	13	15	59	54	-0.777388097156	0.137204085924	-0.605333685138	-0.9794921875	-0.1064453125	0.2333984375	-2.6875	3.125	0.4375
18	12	13	15	59	54	-0.776883485633	0.137872558256	-0.60580921348	-0.97900390625	-0.111328125	0.22607421875	-3.0	3.75	0.25
18	12	13	15	59	54	-0.776400976043	0.138422876634	-0.606301964941	-0.984375	-0.1123046875	0.22314453125	-2.375	3.75	0.125
18	12	13	15	59	54	-0.776014888903	0.138785517685	-0.606713646133	-0.982421875	-0.10791015625	0.2255859375	-1.3125	3.4375	0.125
18	12	13	15	59	54	-0.775681797713	0.13897454193	-0.607105739385	-0.984375	-0.1005859375	0.2255859375	-0.625	2.9375	-0.0625
18	12	13	15	59	54	-0.775435522476	0.139157260232	-0.607409234135	-0.9814453125	-0.10400390625	0.224609375	-0.125	2.25	0.0
18	12	13	15	59	54	-0.775215209759	0.139272642786	-0.607685234102	-0.98388671875	-0.10107421875	0.21923828125	-0.0625	1.6875	-0.1875
18	12	13	15	59	54	-0.775215209759	0.139272642786	-0.607685234102	-0.9833984375	-0.1005859375	0.2236328125	-0.0625	0.9375	0.0
18	12	13	15	59	54	-0.775215209759	0.139272642786	-0.607685234102	-0.9853515625	-0.099609375	0.2255859375	0.5625	0.4375	0.125
18	12	13	15	59	54	-0.775239780701	0.139093958449	-0.607704495075	-0.9833984375	-0.0927734375	0.22900390625	1.0	-0.0625	0.375
18	12	13	15	59	54	-0.775239780701	0.139093958449	-0.607704495075	-0.986328125	-0.09814453125	0.224609375	0.75	-0.25	0.6875
18	12	13	15	59	54	-0.775239780701	0.139093958449	-0.607704495075	-0.98779296875	-0.09521484375	0.22412109375	0.125	-0.4375	0.75
18	12	13	15	59	54	-0.775233198093	0.139153809766	-0.607699335019	-0.99169921875	-0.09814453125	0.2216796875	-0.3125	-0.5	0.8125
18	12	13	15	59	54	-0.775233198093	0.139153809766	-0.607699335019	-0.9951171875	-0.1015625	0.2236328125	-0.625	-0.5	0.8125
18	12	13	15	59	54	-0.775233198093	0.139153809766	-0.607699335019	-0.99951171875	-0.1015625	0.2314453125	-0.625	-0.4375	0.875
18	12	13	15	59	55	-0.775238010499	0.13915467359	-0.607703107427	-1.0	-0.10107421875	0.2275390625	-0.6875	-0.625	0.6875
18	12	13	15	59	55	-0.775312622919	0.139401246221	-0.607530650125	-0.9921875	-0.103515625	0.22607421875	-1.25	-1.125	0.125
18	12	13	15	59	55	-0.775431829425	0.139766933442	-0.607284274126	-0.97412109375	-0.103515625	0.21142578125	-1.75	-2.1875	-0.625
18	12	13	15	59	55	-0.775803387529	0.140073068553	-0.606800195013	-0.93310546875	-0.119140625	0.20263671875	0.5	-3.9375	-1.375
18	12	13	15	59	55	-0.776453027041	0.13976398616	-0.606172886698	-0.9384765625	-0.13037109375	0.201171875	5.0	-5.875	-1.0625
18	12	13	15	59	55	-0.777198669706	0.13860673621	-0.605633924885	-0.9638671875	-0.12109375	0.21923828125	9.0	-5.3125	1.0625
18	12	13	15	59	55	-0.77772944169	0.136833509242	-0.605436401284	-1.00634765625	-0.095703125	0.24560546875	9.875	-2.75	3.25
18	12	13	15	59	55	-0.77772825394	0.135124409811	-0.605801667473	-1.02392578125	-0.06005859375	0.251953125	6.625	1.125	4.1875
18	12	13	15	59	55	-0.777214350146	0.134581250359	-0.606500628035	-1.01611328125	-0.06396484375	0.240234375	0.3125	4.1875	3.375
18	12	13	15	59	55	-0.776411039356	0.135128845306	-0.607286364405	-1.00244140625	-0.0849609375	0.216796875	-5.375	4.875	1.75
18	12	13	15	59	55	-0.775608907654	0.136286960245	-0.607950922973	-0.99951171875	-0.11279296875	0.20166015625	-7.125	4.125	1.125
18	12	13	15	59	55	-0.775181496774	0.137263458487	-0.608255948102	-0.98681640625	-0.130859375	0.2001953125	-3.8125	1.4375	0.25
18	12	13	15	59	55	-0.775303487899	0.137385511396	-0.608133822989	-0.986328125	-0.11865234375	0.21728515625	1.0625	-1.4375	-0.5625
18	12	13	15	59	55	-0.775654205565	0.137260705667	-0.607755494454	-0.98876953125	-0.09375	0.23095703125	1.5625	-2.4375	-1.125
18	12	13	15	59	55	-0.775909272497	0.137445739138	-0.607397866742	-0.98486328125	-0.07958984375	0.23583984375	-0.9375	-1.8125	-2.0
18	12	13	15	59	55	-0.775996030402	0.138121678213	-0.607112829511	-0.9775390625	-0.09423828125	0.240234375	-3.75	-0.25	-2.125
18	12	13	15	59	55	-0.7758877164	0.139028727913	-0.607014805893	-0.97265625	-0.10595703125	0.23779296875	-4.5625	1.25	-1.625
18	12	13	15	59	55	-0.775655657406	0.13970224249	-0.607146312053	-0.9716796875	-0.10546875	0.22119140625	-3.3125	1.625	-1.3125
18	12	13	15	59	55	-0.775420245111	0.140314139591	-0.607275201799	-0.96142578125	-0.09521484375	0.21728515625	-3.3125	0.9375	-0.875
18	12	13	15	59	55	-0.775340771902	0.14086008356	-0.607199727617	-0.97021484375	-0.09765625	0.22021484375	-3.5625	-0.0625	-0.375
18	12	13	15	59	55	-0.775362848702	0.141230292183	-0.607033917915	-0.978515625	-0.0986328125	0.2216796875	-3.0625	-1.125	0.0
18	12	13	15	59	55	-0.775511366581	0.141407085572	-0.60676272972	-0.98779296875	-0.10400390625	0.22900390625	-1.375	-1.8125	0.6875
18	12	13	15	59	55	-0.775789319465	0.140986022183	-0.606484027026	-0.99462890625	-0.10400390625	0.23388671875	1.4375	-2.0	1.75
18	12	13	15	59	55	-0.77597261764	0.140192630385	-0.606423149982	-0.99755859375	-0.09716796875	0.224609375	3.625	-2.3125	2.875
18	12	13	15	59	55	-0.776218476973	0.139216413428	-0.606302433578	-0.99609375	-0.08935546875	0.22216796875	3.625	-2.5	3.75
18	12	13	15	59	55	-0.776271299273	0.13854358435	-0.606296020676	-0.9921875	-0.087890625	0.212890625	1.0625	-2.3125	4.25
18	12	13	15	59	55	-0.776321295356	0.138419551719	-0.606104306933	-0.98828125	-0.09228515625	0.22314453125	-2.5	-2.4375	4.25
18	12	13	15	59	55	-0.776340658772	0.138667136535	-0.605875292424	-0.98193359375	-0.10888671875	0.22412109375	-3.9375	-2.25	4.0
18	12	13	15	59	55	-0.776403610774	0.138911612147	-0.605632657001	-0.978515625	-0.11572265625	0.2197265625	-2.8125	-2.125	3.6875
18	12	13	15	59	55	-0.77644362453	0.138968883277	-0.605494198943	-0.98095703125	-0.1162109375	0.22021484375	-1.25	-1.8125	3.4375
18	12	13	15	59	55	-0.776395826682	0.138910219442	-0.60550451981	-0.98095703125	-0.107421875	0.21923828125	-0.6875	-1.125	2.875
18	12	13	15	59	55	-0.776320034587	0.139151704313	-0.605493008108	-0.9833984375	-0.10986328125	0.2236328125	-1.9375	-0.25	2.25
18	12	13	15	59	55	-0.776078948438	0.139579471145	-0.605617443013	-0.9833984375	-0.10400390625	0.21826171875	-3.3125	0.5	1.8125
18	12	13	15	59	55	-0.775781402903	0.140130131466	-0.605806482984	-0.98779296875	-0.111328125	0.2197265625	-3.6875	0.875	1.3125
18	12	13	15	59	55	-0.775512839741	0.140674989817	-0.605970487589	-0.998046875	-0.10595703125	0.2197265625	-3.0	1.0	0.8125
18	12	13	15	59	55	-0.775236455445	0.141168471221	-0.606176072703	-0.9990234375	-0.10791015625	0.21875	-2.75	0.9375	0.625
18	12	13	15	59	55	-0.775076066723	0.141660882815	-0.60625486816	-0.994140625	-0.10986328125	0.2197265625	-2.0625	0.5625	0.125
18	12	13	15	59	55	-0.775074467157	0.141721624753	-0.606253616999	-0.98388671875	-0.1123046875	0.22021484375	-0.3125	-0.375	-0.25
18	12	13	15	59	55	-0.775175727449	0.141778853229	-0.606176310922	-0.9833984375	-0.11181640625	0.216796875	1.4375	-1.3125	-0.6875
18	12	13	15	59	55	-0.775466166218	0.141654098205	-0.60592067513	-0.9853515625	-0.10888671875	0.2236328125	2.4375	-2.125	-1.0625
18	12	13	15	59	55	-0.775844627239	0.141473241499	-0.605564064779	-0.9892578125	-0.10546875	0.22021484375	3.0625	-3.125	-1.3125
18	12	13	15	59	55	-0.776270359513	0.14116780734	-0.605196704531	-0.984375	-0.0986328125	0.22021484375	3.5625	-3.6875	-1.6875
18	12	13	15	59	55	-0.776773722158	0.140804351145	-0.604720204222	-0.98583984375	-0.09765625	0.22900390625	3.5	-3.875	-1.6875
18	12	13	15	59	55	-0.777183307211	0.140495992869	-0.604340278624	-0.982421875	-0.095703125	0.22607421875	3.0625	-3.5	-1.25
18	12	13	15	59	55	-0.777556665642	0.140253156801	-0.603979651742	-0.97802734375	-0.0986328125	0.22998046875	2.3125	-2.9375	-0.75
18	12	13	15	59	55	-0.777780623341	0.140005394691	-0.603780893496	-0.97265625	-0.09033203125	0.2265625	1.9375	-2.3125	-0.625
18	12	13	15	59	55	-0.777955462577	0.139942878771	-0.603591396006	-0.97509765625	-0.0908203125	0.2255859375	0.8125	-1.875	-0.625
18	12	13	15	59	55	-0.778053411934	0.139888486049	-0.603497971227	-0.9794921875	-0.08935546875	0.2265625	0.625	-1.3125	-0.8125
18	12	13	15	59	55	-0.778024753626	0.139883333488	-0.603536773502	-0.98388671875	-0.09716796875	0.22509765625	0.625	-0.6875	-0.1875
18	12	13	15	59	55	-0.778118874301	0.139645147416	-0.603501406313	-0.9794921875	-0.0966796875	0.228515625	1.625	-0.8125	0.3125
18	12	13	15	59	56	-0.778193595109	0.139098290451	-0.603573055846	-0.9912109375	-0.09912109375	0.2197265625	3.75	-1.4375	1.0
18	12	13	15	59	56	-0.778227142689	0.138299953363	-0.603734836129	-0.9794921875	-0.083984375	0.2138671875	3.9375	-1.25	1.8125
18	12	13	15	59	56	-0.77814484494	0.137807926265	-0.603901430642	-0.966796875	-0.080078125	0.21728515625	1.0625	-0.625	2.4375
18	12	13	15	59	56	-0.777943213611	0.137754419671	-0.604056487142	-0.96923828125	-0.0810546875	0.23046875	-2.1875	0.75	2.9375
18	12	13	15	59	56	-0.777583161739	0.137694475109	-0.604427476507	-0.9677734375	-0.08935546875	0.2294921875	-1.875	2.25	3.625
18	12	13	15	59	56	-0.777167637334	0.137380583606	-0.6049384028	-0.97314453125	-0.08837890625	0.22900390625	-0.5625	2.9375	4.3125
18	12	13	15	59	56	-0.776693251995	0.136772715521	-0.605620551591	-0.9853515625	-0.08544921875	0.22119140625	1.5	3.375	4.3125
18	12	13	15	59	56	-0.776158483305	0.136225975838	-0.606364278653	-0.99365234375	-0.08203125	0.22412109375	1.0625	3.6875	4.3125
18	12	13	15	59	56	-0.775588889331	0.135978284972	-0.607019758678	-1.0009765625	-0.07861328125	0.2294921875	-1.5	4.125	4.75
18	12	13	15	59	56	-0.774986725978	0.135979715347	-0.607636465887	-0.99755859375	-0.08349609375	0.23486328125	-2.8125	4.1875	4.5625
18	12	13	15	59	56	-0.774498762737	0.136040799223	-0.608124954445	-0.9931640625	-0.09912109375	0.2314453125	-2.5	3.5	4.625
18	12	13	15	59	56	-0.774182153178	0.135855693573	-0.608482149561	-0.990234375	-0.1005859375	0.220703125	-0.5625	2.0625	4.6875
18	12	13	15	59	56	-0.774058369275	0.135550235604	-0.608663889993	-0.98681640625	-0.099609375	0.21435546875	0.8125	-0.125	3.8125
18	12	13	15	59	56	-0.774204814207	0.135249339242	-0.608499960397	-0.98974609375	-0.10009765625	0.2236328125	0.8125	-1.8125	3.4375
18	12	13	15	59	56	-0.774457477237	0.134945660192	-0.60820149426	-0.9912109375	-0.09423828125	0.2314453125	0.8125	-2.375	2.75
18	12	13	15	59	56	-0.774733153419	0.134696397479	-0.607873184816	-0.990234375	-0.0908203125	0.2314453125	0.5625	-2.375	2.3125
18	12	13	15	59	56	-0.774999864001	0.134456189982	-0.607585733669	-0.98779296875	-0.09765625	0.23828125	1.1875	-2.0	2.0
18	12	13	15	59	56	-0.775190946559	0.134152405365	-0.607408889076	-0.98779296875	-0.09521484375	0.22998046875	1.8125	-1.4375	1.8125
18	12	13	15	59	56	-0.775281077711	0.134024816709	-0.607322837464	-0.99658203125	-0.0908203125	0.22509765625	0.8125	-1.25	1.375
18	12	13	15	59	56	-0.775233974887	0.134271354491	-0.607272716905	-0.99267578125	-0.0810546875	0.22265625	-2.0625	-1.0625	0.8125
18	12	13	15	59	56	-0.775264280334	0.134886951625	-0.607052317131	-0.994140625	-0.09814453125	0.2216796875	-3.375	-1.4375	0.375
18	12	13	15	59	56	-0.775355545878	0.135247787285	-0.606845103327	-0.9853515625	-0.10498046875	0.2236328125	-1.5625	-1.6875	0.375
18	12	13	15	59	56	-0.775530405652	0.135246350746	-0.60665556246	-0.9892578125	-0.09814453125	0.2236328125	0.875	-1.625	0.4375
18	12	13	15	59	56	-0.775664960937	0.135126463413	-0.606543267117	-0.98828125	-0.0888671875	0.22314453125	1.625	-1.5625	0.125
