18	12	13	15	13	03	0.669005152629	0.368834790378	0.529356964579	-0.9921875	0.0869140625	0.177734375	-10.75	0.25	-0.0625
18	12	13	15	13	03	0.66941246611	0.367941856999	0.52999985805	-0.99169921875	0.08740234375	0.17236328125	-7.875	1.125	0.5
18	12	13	15	13	03	0.669637737716	0.367443184856	0.530534246306	-0.99609375	0.10302734375	0.1669921875	-5.5625	1.5625	0.4375
18	12	13	15	13	03	0.670019578904	0.366780327014	0.531095960284	-0.9970703125	0.1064453125	0.16455078125	-7.4375	1.0625	0.875
18	12	13	15	13	03	0.670681338498	0.365737402647	0.531698683988	-0.99365234375	0.103515625	0.16796875	-9.6875	0.1875	0.875
18	12	13	15	13	04	0.671349135603	0.364453649303	0.532367229814	-0.98583984375	0.08251953125	0.16259765625	-10.4375	-0.75	0.8125
18	12	13	15	13	04	0.671893961744	0.363413576329	0.532851951856	-0.98388671875	0.0771484375	0.17138671875	-7.9375	-0.3125	0.75
18	12	13	15	13	04	0.672024437728	0.362746706033	0.533346915247	-0.9931640625	0.076171875	0.16552734375	-4.4375	0.5625	0.25
18	12	13	15	13	04	0.672035046114	0.362386200616	0.533782604747	-1.0048828125	0.09619140625	0.16162109375	-3.25	0.8125	-0.5
18	12	13	15	13	04	0.672080346154	0.361767342808	0.534441514025	-1.01025390625	0.10498046875	0.1611328125	-5.5625	1.0625	-1.75
18	12	13	15	13	04	0.672307739828	0.360720721052	0.535282694352	-1.01318359375	0.09716796875	0.1611328125	-8.0625	1.0	-1.875
18	12	13	15	13	04	0.672737381569	0.359379214542	0.536139099955	-1.0	0.07958984375	0.169921875	-9.9375	0.5	-1.0625
18	12	13	15	13	04	0.673179292453	0.358044222462	0.536883222089	-0.9892578125	0.06005859375	0.17578125	-8.9375	0.625	-0.125
18	12	13	15	13	04	0.673549508025	0.357130781283	0.537435742471	-0.974609375	0.06298828125	0.17431640625	-7.125	0.8125	1.125
18	12	13	15	13	04	0.673848655653	0.356395135902	0.53791922122	-0.966796875	0.06689453125	0.16943359375	-5.6875	0.9375	1.3125
18	12	13	15	13	04	0.674154373186	0.355662972617	0.538346905523	-0.97705078125	0.07568359375	0.16357421875	-5.75	0.0625	0.5
18	12	13	15	13	04	0.67438916011	0.354925601053	0.538705650025	-0.9765625	0.06396484375	0.1591796875	-4.75	-0.875	0.125
18	12	13	15	13	04	0.674348313736	0.354875189723	0.538782817283	-0.98681640625	0.064453125	0.15966796875	0.125	-0.75	0.0625
18	12	13	15	13	04	0.673971775473	0.355113909591	0.538774575448	-0.99560546875	0.0771484375	0.1533203125	3.3125	-0.4375	-0.6875
18	12	13	15	13	04	0.673436264438	0.355548467357	0.538785634568	-1.009765625	0.0771484375	0.1494140625	4.3125	-0.0625	-1.1875
18	12	13	15	13	04	0.67305903725	0.3557257703	0.53889890631	-1.013671875	0.08056640625	0.1474609375	2.4375	-0.25	-1.0
18	12	13	15	13	04	0.672995508901	0.355480305082	0.539141060232	-1.00732421875	0.0791015625	0.15673828125	-1.1875	-0.5625	-0.4375
18	12	13	15	13	04	0.673119579337	0.354870986059	0.53938680836	-1.01123046875	0.06591796875	0.17041015625	-2.9375	-0.75	-0.1875
18	12	13	15	13	04	0.67330701336	0.354446000053	0.539512346214	-1.00537109375	0.06591796875	0.17626953125	-2.5625	-0.3125	0.6875
18	12	13	15	13	04	0.673424627955	0.354199502948	0.539569809763	-0.99462890625	0.06982421875	0.17822265625	-1.0625	0.0	1.125
18	12	13	15	13	04	0.673424627955	0.354199502948	0.539569809763	-0.98876953125	0.07177734375	0.171875	-0.875	-0.4375	0.9375
18	12	13	15	13	04	0.673626992807	0.353904431342	0.539463153536	-0.97900390625	0.0712890625	0.17431640625	-0.875	-1.125	0.75
18	12	13	15	13	04	0.673791966358	0.353528677339	0.539387590063	-0.9833984375	0.06787109375	0.17236328125	-0.75	-1.5	-0.1875
18	12	13	15	13	04	0.67373492244	0.353225583997	0.539451825016	-0.97998046875	0.06298828125	0.1640625	-0.125	-1.3125	-0.625
18	12	13	15	13	04	0.67373492244	0.353225583997	0.539451825016	-0.9853515625	0.072265625	0.1689453125	0.5	-0.875	-0.8125
18	12	13	15	13	04	0.673712416995	0.353152749115	0.539494840897	-0.98828125	0.0703125	0.16748046875	0.8125	-0.9375	-0.875
18	12	13	15	13	04	0.673538147161	0.353157382825	0.539501919597	-0.99072265625	0.0703125	0.16064453125	1.3125	-0.9375	-0.8125
18	12	13	15	13	04	0.673323110816	0.353172651544	0.539586284074	-0.9912109375	0.06689453125	0.1552734375	1.1875	-0.4375	-0.25
18	12	13	15	13	04	0.673119985591	0.353345266285	0.539570245976	-0.99169921875	0.07080078125	0.16064453125	2.0	0.125	0.5
18	12	13	15	13	04	0.672862318439	0.353765420689	0.539498370163	-0.9912109375	0.07177734375	0.1640625	2.875	0.5	0.8125
18	12	13	15	13	04	0.6724456761	0.354442410921	0.539323771809	-0.998046875	0.07958984375	0.15673828125	4.9375	0.5625	0.8125
18	12	13	15	13	04	0.672028792939	0.355180340247	0.539148985289	-0.99658203125	0.0888671875	0.1630859375	4.8125	0.875	0.5
18	12	13	15	13	04	0.671715171646	0.355786254932	0.539020143644	-0.9873046875	0.091796875	0.1630859375	3.875	1.125	0.3125
18	12	13	15	13	04	0.671478713855	0.356156558071	0.539026317794	-0.99169921875	0.09619140625	0.1669921875	1.9375	1.25	-0.125
18	12	13	15	13	04	0.671360259723	0.356158479451	0.539212340612	-0.994140625	0.09033203125	0.16748046875	-0.3125	1.375	-0.375
18	12	13	15	13	04	0.671471580417	0.355908625162	0.539447852716	-0.99609375	0.08447265625	0.17236328125	-2.5625	1.0	0.125
18	12	13	15	13	04	0.671660220002	0.355606365116	0.53957436794	-0.9951171875	0.08447265625	0.17626953125	-2.5625	0.4375	0.25
18	12	13	15	13	04	0.671778257415	0.355299040197	0.539754236809	-0.990234375	0.07861328125	0.16943359375	-2.1875	0.375	0.375
18	12	13	15	13	04	0.671778257415	0.355299040197	0.539754236809	-0.9990234375	0.0869140625	0.16796875	-0.8125	0.1875	0.25
18	12	13	15	13	04	0.671763688085	0.355352370709	0.539742530777	-0.99609375	0.0859375	0.15673828125	0.0	0.25	-0.1875
18	12	13	15	13	04	0.671708062135	0.355355232871	0.539807914722	-0.9990234375	0.0859375	0.1572265625	-0.9375	0.1875	0.5
18	12	13	15	13	04	0.671911574539	0.35512186961	0.539946383392	-0.99462890625	0.08837890625	0.16552734375	-2.625	0.125	0.8125
18	12	13	15	13	04	0.672188694777	0.354679788009	0.540229014571	-0.9970703125	0.0810546875	0.162109375	-4.3125	0.125	0.8125
18	12	13	15	13	04	0.672587072339	0.354147399375	0.540437965195	-0.9921875	0.078125	0.1669921875	-4.875	-0.3125	1.25
18	12	13	15	13	04	0.672863306076	0.353704903729	0.540719886477	-0.98974609375	0.078125	0.16162109375	-4.625	-0.125	1.1875
18	12	13	15	13	04	0.673024806971	0.353420427386	0.540934685233	-0.986328125	0.07470703125	0.16015625	-2.6875	0.0625	1.0625
18	12	13	15	13	04	0.673064893644	0.353287349634	0.541100959659	-0.994140625	0.07666015625	0.1591796875	-1.4375	0.0625	0.8125
18	12	13	15	13	04	0.673174780685	0.353036805828	0.541213236044	-0.9931640625	0.0693359375	0.16015625	-1.875	-0.4375	0.75
18	12	13	15	13	04	0.673221397428	0.352724066703	0.541323714759	-0.99365234375	0.06103515625	0.16064453125	-1.125	-1.0	0.625
18	12	13	15	13	04	0.673180270558	0.352673461174	0.541400761615	-1.00341796875	0.052734375	0.158203125	0.0	-0.6875	0.125
18	12	13	15	13	05	0.673124356639	0.352615107753	0.54146592018	-1.01318359375	0.056640625	0.1611328125	0.75	0.25	0.5
18	12	13	15	13	05	0.673068431878	0.352556748211	0.541531071698	-1.01025390625	0.0556640625	0.15673828125	0.125	0.875	0.625
18	12	13	15	13	05	0.672872537183	0.352672126256	0.541703897633	-1.00390625	0.06591796875	0.16064453125	0.625	1.0625	0.875
18	12	13	15	13	05	0.672816884311	0.352674948521	0.541769270176	-0.99853515625	0.06982421875	0.15673828125	0.9375	0.9375	0.5625
18	12	13	15	13	05	0.672816884311	0.352674948521	0.541769270176	-0.9951171875	0.0732421875	0.1591796875	0.8125	0.4375	-0.3125
18	12	13	15	13	05	0.672627516899	0.352610632044	0.541886306264	-0.98583984375	0.078125	0.1650390625	0.75	0.5	-1.3125
18	12	13	15	13	05	0.672397175564	0.352556834246	0.542080547947	-0.98388671875	0.08056640625	0.15625	0.125	0.4375	-1.6875
18	12	13	15	13	05	0.672365367715	0.352173944419	0.542299046128	-0.98681640625	0.080078125	0.1640625	-1.3125	0.0625	-1.75
18	12	13	15	13	05	0.672407176254	0.351768569059	0.542454845259	-0.986328125	0.07568359375	0.1650390625	-1.9375	-0.625	-1.625
18	12	13	15	13	05	0.672445600944	0.351390516895	0.542619714295	-0.99072265625	0.078125	0.16064453125	-1.5	-0.625	-1.375
18	12	13	15	13	05	0.672395692533	0.351152180387	0.542750771424	-0.99267578125	0.076171875	0.15673828125	-0.8125	-0.8125	-1.125
18	12	13	15	13	05	0.672395692533	0.351152180387	0.542750771424	-0.99853515625	0.07958984375	0.1552734375	-0.25	-0.6875	-0.25
18	12	13	15	13	05	0.672373800188	0.351201783431	0.542794136263	-1.001953125	0.0830078125	0.154296875	-1.0	-0.625	0.4375
18	12	13	15	13	05	0.672443747093	0.351145400474	0.542862366038	-1.005859375	0.076171875	0.15380859375	-1.0	-0.625	1.3125
18	12	13	15	13	05	0.672569749823	0.351147451741	0.542865537247	-1.0009765625	0.06689453125	0.15673828125	-1.125	-0.4375	1.9375
18	12	13	15	13	05	0.672688185481	0.351145552225	0.542923637588	-0.990234375	0.0693359375	0.15966796875	-1.1875	-0.125	2.4375
18	12	13	15	13	05	0.672814079404	0.351147545932	0.542926720158	-0.9931640625	0.06787109375	0.1611328125	-0.8125	-0.1875	1.9375
18	12	13	15	13	05	0.672870120639	0.351205975522	0.54286165212	-0.9853515625	0.0595703125	0.16748046875	0.375	0.0625	2.25
18	12	13	15	13	05	0.672698692576	0.351639340162	0.542749004118	-0.982421875	0.0732421875	0.154296875	2.25	0.375	1.625
18	12	13	15	13	05	0.672567153942	0.351939577968	0.542680330855	-0.9892578125	0.07861328125	0.16162109375	2.1875	0.4375	0.8125
18	12	13	15	13	05	0.672393977791	0.352127891964	0.542688349359	-0.9921875	0.0771484375	0.162109375	1.125	0.4375	0.1875
18	12	13	15	13	05	0.672371704877	0.352116227799	0.542731408839	-0.9951171875	0.07275390625	0.15673828125	0.5	0.125	-0.3125
18	12	13	15	13	05	0.672386154527	0.352062757744	0.542743072445	-0.99267578125	0.07470703125	0.15869140625	-0.625	-0.1875	-0.1875
18	12	13	15	13	05	0.672386154527	0.352062757744	0.542743072445	-0.9990234375	0.07568359375	0.16650390625	-1.0	-0.0625	-0.1875
18	12	13	15	13	05	0.672337947128	0.352069476081	0.542753429493	-0.99658203125	0.068359375	0.1640625	-0.75	0.125	0.125
18	12	13	15	13	05	0.67235239472	0.352016001847	0.542765092497	-0.9931640625	0.07421875	0.16552734375	0.75	0.4375	0.75
18	12	13	15	13	05	0.672198779262	0.352365708951	0.542739630001	-0.99951171875	0.08349609375	0.15966796875	1.5625	0.625	0.8125
18	12	13	15	13	05	0.672165915966	0.352502557638	0.542762379656	-0.998046875	0.08056640625	0.16015625	0.3125	0.4375	1.0
18	12	13	15	13	05	0.672269844356	0.352554078537	0.542808763924	-0.9990234375	0.08349609375	0.15576171875	-1.125	0.0	1.4375
18	12	13	15	13	05	0.672395702554	0.352556061905	0.542811817612	-0.9873046875	0.0751953125	0.15869140625	-1.1875	-0.1875	1.625
18	12	13	15	13	05	0.672358955591	0.352597829198	0.542843187276	-0.9951171875	0.0693359375	0.15478515625	0.25	-0.25	1.375
18	12	13	15	13	05	0.672208249375	0.352858974815	0.542808313965	-0.990234375	0.07373046875	0.154296875	1.5625	0.0	1.125
18	12	13	15	13	05	0.672153616132	0.353045451844	0.542752447752	-0.99267578125	0.07470703125	0.15380859375	1.125	-0.3125	1.0625
18	12	13	15	13	05	0.672153616132	0.353045451844	0.542752447752	-0.98779296875	0.0791015625	0.1552734375	0.5	-0.6875	0.875
18	12	13	15	13	05	0.672131348424	0.353033755838	0.542795503227	-0.990234375	0.0703125	0.15625	0.6875	-0.8125	0.3125
18	12	13	15	13	05	0.672013246513	0.353096878391	0.542737673751	-0.998046875	0.07080078125	0.15576171875	1.3125	-0.5625	0.1875
18	12	13	15	13	05	0.671833407929	0.353403782312	0.542557205694	-0.99755859375	0.07177734375	0.162109375	3.3125	-0.4375	0.8125
18	12	13	15	13	05	0.671551270921	0.354087340721	0.542209592764	-1.0048828125	0.08203125	0.15234375	4.75	-0.625	1.0625
18	12	13	15	13	05	0.671272231804	0.354679299783	0.541937274613	-1.009765625	0.083984375	0.14208984375	4.5	-1.3125	0.875
18	12	13	15	13	05	0.671218363794	0.355110342871	0.54163787945	-1.01025390625	0.08740234375	0.15087890625	2.4375	-1.625	1.3125
18	12	13	15	13	05	0.671400724156	0.355232019508	0.541454165817	-1.00341796875	0.08740234375	0.158203125	-0.1875	-0.875	1.6875
18	12	13	15	13	05	0.671729838071	0.355000521419	0.541473456931	-0.9931640625	0.0751953125	0.162109375	-2.5	-0.875	2.4375
18	12	13	15	13	05	0.672022153123	0.354810606367	0.541402043433	-0.994140625	0.07177734375	0.1650390625	-1.9375	-0.9375	2.0625
18	12	13	15	13	05	0.672203369644	0.35468753119	0.541339479285	-0.99462890625	0.068359375	0.16748046875	-0.875	-0.8125	2.0
18	12	13	15	13	05	0.672392395832	0.354690651069	0.541222165381	-0.98583984375	0.0751953125	0.1630859375	-0.5	-0.3125	2.0
18	12	13	15	13	05	0.672518435211	0.354753779765	0.541225355329	-0.98779296875	0.0849609375	0.1591796875	-1.0	0.0625	2.0
18	12	13	15	13	05	0.672643645339	0.354633355664	0.541349953767	-0.98486328125	0.08203125	0.1533203125	-1.9375	-0.1875	1.25
18	12	13	15	13	05	0.672746192291	0.354378914212	0.541517348758	-0.986328125	0.08251953125	0.15380859375	-2.25	-0.4375	0.25
18	12	13	15	13	05	0.672746192291	0.354378914212	0.541517348758	-0.98291015625	0.080078125	0.15625	-0.9375	-0.375	-0.625
18	12	13	15	13	05	0.67250828286	0.354199089257	0.541766520118	-0.97705078125	0.07666015625	0.150390625	0.25	0.0625	-1.6875
18	12	13	15	13	06	0.672129775933	0.354131580091	0.542122835982	-0.982421875	0.08935546875	0.14892578125	0.25	0.75	-3.0625
18	12	13	15	13	06	0.671793631132	0.35372016104	0.542635415297	-0.99658203125	0.083984375	0.150390625	-1.125	0.875	-3.8125
18	12	13	15	13	06	0.671593753893	0.353161997639	0.543171209297	-1.00634765625	0.087890625	0.15673828125	-2.75	0.875	-4.1875
18	12	13	15	13	06	0.67139222001	0.352419879849	0.543827698208	-1.00732421875	0.07958984375	0.16064453125	-3.375	1.0	-4.0625
18	12	13	15	13	06	0.671234281886	0.351639601523	0.54439743204	-1.00927734375	0.06396484375	0.1640625	-3.0625	0.8125	-3.3125
18	12	13	15	13	06	0.671111482156	0.351089881342	0.544702034266	-1.00732421875	0.05419921875	0.16845703125	-1.375	0.125	-1.9375
18	12	13	15	13	06	0.6709849867	0.351026531294	0.544698446403	-0.99658203125	0.0595703125	0.16650390625	1.3125	-0.1875	-0.1875
18	12	13	15	13	06	0.670790709721	0.35132587126	0.544506271285	-0.99072265625	0.0673828125	0.16259765625	3.0625	-0.0625	0.1875
18	12	13	15	13	06	0.670674534685	0.351695182823	0.5443279487	-0.994140625	0.076171875	0.15478515625	2.375	-0.375	0.9375
18	12	13	15	13	06	0.670746154502	0.351822807767	0.544153423185	-0.9873046875	0.07666015625	0.15283203125	0.625	-1.25	1.0
18	12	13	15	13	06	0.670842701672	0.351748384108	0.544010645073	-0.98876953125	0.07177734375	0.15576171875	0.1875	-1.625	0.375
18	12	13	15	13	06	0.670857103334	0.3516948985	0.544022323903	-0.99658203125	0.06982421875	0.1572265625	0.8125	-0.875	-0.5
18	12	13	15	13	06	0.670823533956	0.351709299605	0.544044600378	-0.998046875	0.0771484375	0.154296875	0.875	0.0	-0.625
18	12	13	15	13	06	0.670801256986	0.351697619905	0.544087570953	-0.99755859375	0.07666015625	0.1611328125	-0.5	0.0625	-0.5
18	12	13	15	13	06	0.670799262701	0.351452425354	0.544330102345	-0.99609375	0.07763671875	0.15478515625	-1.9375	0.1875	-0.625
18	12	13	15	13	06	0.670977771132	0.351022756462	0.544631552062	-1.0	0.07958984375	0.15380859375	-3.9375	-0.25	-0.5
18	12	13	15	13	06	0.671280885784	0.350411307991	0.544935056217	-0.99267578125	0.07177734375	0.1611328125	-4.8125	-0.25	0.125
18	12	13	15	13	06	0.671598708026	0.349807524829	0.545128425101	-0.9892578125	0.06494140625	0.166015625	-4.125	-0.25	0.5
18	12	13	15	13	06	0.6717225892	0.349564313344	0.545251966318	-0.99169921875	0.06591796875	0.16357421875	-1.9375	-0.375	0.8125
18	12	13	15	13	06	0.671889230857	0.349494707112	0.545177562683	-0.994140625	0.0703125	0.1630859375	-0.875	-0.5	1.0625
18	12	13	15	13	06	0.67209160254	0.349321609421	0.545193188074	-0.9970703125	0.07080078125	0.15869140625	-1.8125	-0.875	1.25
18	12	13	15	13	06	0.672388064601	0.34888981275	0.545308185289	-0.994140625	0.0625	0.15576171875	-3.3125	-1.1875	1.375
18	12	13	15	13	06	0.672650841614	0.348472200977	0.545445364851	-0.99560546875	0.05859375	0.154296875	-3.125	-1.25	1.3125
18	12	13	15	13	06	0.672785260332	0.348202840442	0.545588990484	-0.998046875	0.05712890625	0.154296875	-2.125	-0.9375	1.3125
18	12	13	15	13	06	0.672821294778	0.348160452274	0.545679250233	-0.99658203125	0.060546875	0.15478515625	-0.9375	-0.25	1.6875
18	12	13	15	13	06	0.672827178042	0.348102458167	0.545867137189	-0.99560546875	0.0615234375	0.14990234375	-1.1875	0.3125	1.5625
18	12	13	15	13	06	0.672810169137	0.347971584347	0.546097485555	-0.99853515625	0.0537109375	0.1611328125	-1.3125	0.75	1.4375
18	12	13	15	13	06	0.67273964092	0.348088747248	0.546272889334	-0.99462890625	0.052734375	0.1591796875	-0.25	1.375	2.4375
18	12	13	15	13	06	0.672637949131	0.348465521923	0.546350479371	-0.994140625	0.0634765625	0.15283203125	0.5	1.5	3.1875
18	12	13	15	13	06	0.672708952035	0.348714839214	0.546419611525	-0.9931640625	0.07470703125	0.1552734375	-0.75	1.0625	3.0
18	12	13	15	13	06	0.672915133293	0.348756196974	0.546510848391	-0.99462890625	0.0751953125	0.15673828125	-2.0625	0.4375	2.625
18	12	13	15	13	06	0.673046918724	0.348700194674	0.546579773028	-0.9931640625	0.0732421875	0.15283203125	-1.75	-0.0625	1.75
18	12	13	15	13	06	0.673061242627	0.348646578207	0.546591405434	-0.9873046875	0.06689453125	0.15625	-1.0	-0.25	0.9375
18	12	13	15	13	06	0.673005397778	0.348649268285	0.546656660847	-0.98828125	0.06591796875	0.15185546875	0.25	-0.5625	0.6875
18	12	13	15	13	06	0.672977481125	0.348695841617	0.546511914202	-0.98779296875	0.06689453125	0.158203125	1.3125	-0.9375	0.5625
18	12	13	15	13	06	0.672977481125	0.348695841617	0.546511914202	-0.99072265625	0.07080078125	0.15478515625	0.4375	-0.8125	0.3125
18	12	13	15	13	06	0.672944086462	0.348710164713	0.546534362828	-0.99169921875	0.07177734375	0.1552734375	-0.1875	-0.625	0.4375
18	12	13	15	13	06	0.67293595844	0.348644915611	0.546588798896	-0.99755859375	0.064453125	0.15673828125	-0.9375	-0.625	0.5
18	12	13	15	13	06	0.672921328992	0.348637336164	0.546576916202	-0.9951171875	0.06787109375	0.15380859375	-0.9375	-0.25	0.75
18	12	13	15	13	06	0.672836910709	0.348473729768	0.546851663163	-1.001953125	0.06591796875	0.1484375	-1.125	0.0	0.25
18	12	13	15	13	06	0.672714993644	0.348229655997	0.547156991473	-1.00439453125	0.06494140625	0.14794921875	-1.375	0.25	-0.5625
18	12	13	15	13	06	0.672452244869	0.348036915698	0.547569128503	-1.01318359375	0.064453125	0.150390625	-1.0625	0.9375	-1.1875
18	12	13	15	13	06	0.672086315436	0.34803706935	0.548057671992	-1.00830078125	0.0673828125	0.14453125	-0.1875	2.0	-0.75
18	12	13	15	13	06	0.671902341167	0.347975585664	0.548362157798	-0.99853515625	0.07275390625	0.16162109375	-0.8125	2.0	-0.5625
18	12	13	15	13	06	0.671881236135	0.347659476838	0.548833219053	-0.9931640625	0.07421875	0.15576171875	-3.125	1.8125	-0.5625
18	12	13	15	13	06	0.671915089254	0.347066605877	0.549471260307	-0.9931640625	0.0751953125	0.1474609375	-5.0	1.4375	-1.0625
18	12	13	15	13	06	0.672155022258	0.346209887963	0.549956116105	-0.99169921875	0.0634765625	0.162109375	-5.9375	0.5	-0.8125
18	12	13	15	13	06	0.672328490002	0.345655582286	0.55025341238	-0.98681640625	0.0576171875	0.1572265625	-3.8125	0.0625	-0.25
18	12	13	15	13	06	0.672328121794	0.345594355479	0.550253111028	-0.98876953125	0.0576171875	0.1640625	-0.4375	-0.1875	0.0
18	12	13	15	13	06	0.672143005985	0.345776437423	0.55012939638	-0.99755859375	0.0634765625	0.1572265625	2.5625	-0.375	-0.0625
18	12	13	15	13	07	0.671920576725	0.346214890187	0.54984198357	-0.994140625	0.06591796875	0.154296875	4.3125	-0.625	0.375
18	12	13	15	13	07	0.671700807714	0.346623251886	0.549628875371	-0.99755859375	0.0615234375	0.1484375	3.5625	-0.5	0.875
18	12	13	15	13	07	0.671571948251	0.346924925371	0.549440214319	-1.0068359375	0.06494140625	0.15087890625	2.4375	-0.9375	0.8125
18	12	13	15	13	07	0.671547979512	0.347005113936	0.549287426616	-1.0068359375	0.06298828125	0.15185546875	1.4375	-1.0625	0.75
18	12	13	15	13	07	0.671410638147	0.347241374584	0.549152864674	-1.00146484375	0.06103515625	0.15087890625	2.375	-0.8125	0.75
18	12	13	15	13	07	0.671176896015	0.34749091206	0.549039303352	-1.00390625	0.06298828125	0.154296875	2.8125	-0.125	0.0625
18	12	13	15	13	07	0.670921250946	0.34785118351	0.548968861991	-1.00146484375	0.0703125	0.14892578125	2.875	0.125	-0.0625
18	12	13	15	13	07	0.670677110765	0.347912225278	0.549029906382	-0.99609375	0.0625	0.1484375	1.4375	-0.125	-0.625
18	12	13	15	13	07	0.670544595391	0.347906808095	0.548960321404	-0.99462890625	0.060546875	0.16455078125	1.75	-0.0625	-0.6875
18	12	13	15	13	07	0.670293832898	0.348025444835	0.548954901938	-0.99560546875	0.06591796875	0.15478515625	2.3125	0.375	-1.0
18	12	13	15	13	07	0.669947595438	0.348341010128	0.548971271262	-0.98974609375	0.0693359375	0.1533203125	2.75	0.75	-0.75
18	12	13	15	13	07	0.669761653334	0.348644724673	0.548846877497	-0.99169921875	0.08349609375	0.1533203125	2.375	0.125	-0.8125
18	12	13	15	13	07	0.669761653334	0.348644724673	0.548846877497	-0.99169921875	0.07666015625	0.14990234375	0.5	-0.3125	-0.8125
18	12	13	15	13	07	0.669776314522	0.348652356561	0.548858891842	-0.98974609375	0.08349609375	0.142578125	-0.6875	-0.8125	-0.75
18	12	13	15	13	07	0.66983715345	0.348469136964	0.54898080537	-0.9853515625	0.0703125	0.13818359375	-1.6875	-1.125	-0.125
18	12	13	15	13	07	0.669932001344	0.348332901938	0.549080565241	-0.98681640625	0.072265625	0.140625	-1.625	-0.625	0.3125
18	12	13	15	13	07	0.669898356736	0.348347145503	0.549103017512	-0.998046875	0.0625	0.1474609375	-0.1875	-0.5625	0.3125
18	12	13	15	13	07	0.669766806037	0.348525331493	0.549034213096	-1.01123046875	0.0556640625	0.14990234375	2.0	-0.1875	1.0625
18	12	13	15	13	07	0.669520164572	0.349195447308	0.548910095724	-1.017578125	0.07373046875	0.1474609375	3.125	0.5625	2.1875
18	12	13	15	13	07	0.669579035529	0.349499503869	0.548725207785	-1.009765625	0.06982421875	0.15380859375	1.0	0.0625	2.25
18	12	13	15	13	07	0.669887477611	0.349440164858	0.548544761848	-0.9951171875	0.06787109375	0.169921875	-1.0	-0.25	2.3125
18	12	13	15	13	07	0.670083675656	0.349385950032	0.548494435184	-0.9921875	0.06494140625	0.1650390625	-1.0625	-0.125	1.9375
18	12	13	15	13	07	0.670375618435	0.349195931263	0.548422555917	-0.9892578125	0.0654296875	0.16552734375	-1.8125	-0.4375	1.8125
18	12	13	15	13	07	0.670681008672	0.348829811118	0.548361683829	-0.9921875	0.06591796875	0.16162109375	-2.375	-1.125	0.5625
18	12	13	15	13	07	0.67090739389	0.34839332281	0.548408199973	-0.9931640625	0.0634765625	0.15625	-2.125	-1.4375	0.3125
18	12	13	15	13	07	0.671123281421	0.348105145425	0.548434987137	-0.99365234375	0.06884765625	0.15087890625	-2.3125	-1.375	0.5
18	12	13	15	13	07	0.671347925052	0.3476067309	0.548602159321	-0.99609375	0.0625	0.14599609375	-3.0	-1.5	0.3125
18	12	13	15	13	07	0.671463680491	0.347298276701	0.548658033263	-0.98876953125	0.0546875	0.14990234375	-1.625	-1.375	0.4375
18	12	13	15	13	07	0.671421905887	0.347247202054	0.548734812175	-0.99609375	0.05322265625	0.142578125	-0.5625	-0.9375	0.5
18	12	13	15	13	07	0.671414048802	0.347243138512	0.548789428434	-0.98828125	0.05126953125	0.1435546875	-0.25	-0.5	1.6875
18	12	13	15	13	07	0.67146298382	0.347358952906	0.54877953709	-0.98974609375	0.05859375	0.15185546875	0.0625	-0.0625	2.25
18	12	13	15	13	07	0.671589235218	0.347483187866	0.548782951363	-0.9892578125	0.06640625	0.1494140625	-1.1875	0.125	2.625
18	12	13	15	13	07	0.671845693845	0.347306441172	0.548854045522	-0.99560546875	0.06689453125	0.14990234375	-2.4375	-0.4375	2.0
18	12	13	15	13	07	0.672071711759	0.346930851842	0.548900272804	-0.99853515625	0.052734375	0.15234375	-2.4375	-1.8125	1.375
18	12	13	15	13	07	0.672038699201	0.346823241495	0.548801084879	-0.998046875	0.0419921875	0.14794921875	1.1875	-1.8125	0.9375
18	12	13	15	13	07	0.67164108036	0.347539468518	0.548409224558	-1.0	0.052734375	0.14990234375	6.625	-0.875	1.0625
18	12	13	15	13	07	0.671281463478	0.348397398939	0.547865286068	-1.005859375	0.0673828125	0.15673828125	7.375	-0.875	1.0
18	12	13	15	13	07	0.670989466394	0.34907566254	0.547387749897	-1.00048828125	0.07177734375	0.15478515625	5.9375	-1.0625	0.625
18	12	13	15	13	07	0.670853559377	0.349434685418	0.547010244667	-0.99853515625	0.07080078125	0.1572265625	4.125	-1.1875	0.1875
18	12	13	15	13	07	0.670682685293	0.349746249247	0.546776073431	-1.0	0.0693359375	0.16259765625	3.375	-0.625	0.125
18	12	13	15	13	07	0.670434625327	0.350171471732	0.546528735905	-0.9970703125	0.0712890625	0.1552734375	3.625	-0.3125	0.1875
18	12	13	15	13	07	0.670138276578	0.350664395568	0.546291791181	-0.9921875	0.07080078125	0.150390625	4.4375	-0.3125	0.1875
18	12	13	15	13	07	0.66984190765	0.351218364919	0.546054830129	-0.994140625	0.080078125	0.15283203125	4.375	-0.1875	-0.1875
18	12	13	15	13	07	0.669625717078	0.351567234561	0.545905789222	-0.99365234375	0.0771484375	0.14599609375	3.125	-0.5625	-0.125
18	12	13	15	13	07	0.669508472626	0.351752878817	0.545726616259	-0.99462890625	0.07177734375	0.15478515625	2.0625	-0.5625	-0.125
18	12	13	15	13	07	0.669312838699	0.351929402511	0.545655369138	-0.99462890625	0.0654296875	0.158203125	2.375	-0.1875	0.0
18	12	13	15	13	07	0.669100197351	0.352373238397	0.545375867846	-0.99462890625	0.07177734375	0.15966796875	3.9375	0.0	0.4375
18	12	13	15	13	07	0.668788013756	0.352979929137	0.545126015411	-0.9951171875	0.07958984375	0.158203125	4.5625	0.1875	0.25
18	12	13	15	13	07	0.668663915914	0.353345085279	0.544880217012	-1.00732421875	0.08056640625	0.15673828125	3.0	-0.125	0.3125
18	12	13	15	13	07	0.66861693403	0.353596667778	0.544769594323	-0.99853515625	0.078125	0.15380859375	1.0	-0.3125	0.8125
18	12	13	15	13	08	0.668609129631	0.35353150254	0.544824273424	-0.99658203125	0.07177734375	0.1513671875	0.1875	-0.3125	0.875
18	12	13	15	13	08	0.66867256409	0.353532769622	0.54470414988	-0.99755859375	0.0654296875	0.1650390625	0.3125	-0.125	1.0625
18	12	13	15	13	08	0.668588528877	0.353764753822	0.544624378599	-0.990234375	0.07080078125	0.15283203125	1.4375	0.0	1.0625
18	12	13	15	13	08	0.668388376035	0.354032199179	0.544599186392	-1.00537109375	0.07275390625	0.15673828125	1.875	0.4375	0.125
18	12	13	15	13	08	0.668351372675	0.354012599225	0.544630072911	-1.0048828125	0.07275390625	0.15087890625	0.6875	0.1875	0.4375
18	12	13	15	13	08	0.668366157096	0.354020430243	0.544642120527	-0.99755859375	0.08056640625	0.154296875	-0.75	0.125	0.375
18	12	13	15	13	08	0.668498325024	0.353720580124	0.544833459566	-0.99560546875	0.072265625	0.1552734375	-2.5	0.0	0.4375
18	12	13	15	13	08	0.668608118293	0.353408892178	0.545067600544	-0.99169921875	0.06494140625	0.1494140625	-2.75	-0.125	0.625
18	12	13	15	13	08	0.668614163973	0.353228972696	0.545255644218	-0.99365234375	0.0625	0.14599609375	-1.5	-0.125	0.8125
18	12	13	15	13	08	0.668662676574	0.353222355941	0.545245430382	-0.98974609375	0.06298828125	0.158203125	-0.1875	0.0	1.25
18	12	13	15	13	08	0.668600763809	0.353466041922	0.545244716369	-0.99169921875	0.06640625	0.14404296875	0.8125	0.1875	1.625
18	12	13	15	13	08	0.668490289061	0.353716328078	0.545254177518	-0.9921875	0.0654296875	0.1435546875	0.875	0.0625	1.8125
18	12	13	15	13	08	0.668365010412	0.353958784966	0.545251565115	-0.98974609375	0.0595703125	0.14111328125	1.125	-0.125	1.8125
18	12	13	15	13	08	0.668295701383	0.354198552847	0.545183779775	-0.9853515625	0.0673828125	0.14599609375	1.75	-0.1875	1.5625
18	12	13	15	13	08	0.668122597501	0.354570086688	0.545069869878	-0.98583984375	0.07080078125	0.1455078125	2.25	0.0625	0.9375
18	12	13	15	13	08	0.667885856722	0.354940253778	0.545075918528	-0.99658203125	0.0732421875	0.14306640625	2.0625	0.375	0.875
18	12	13	15	13	08	0.667682807638	0.355295879263	0.545059646422	-0.99658203125	0.076171875	0.14306640625	1.9375	0.5625	0.625
18	12	13	15	13	08	0.667423353329	0.355592908687	0.545108181855	-1.0048828125	0.07373046875	0.14404296875	1.8125	0.5	0.5625
18	12	13	15	13	08	0.667403989551	0.355554073453	0.545142219744	-1.00146484375	0.07080078125	0.14501953125	0.3125	0.375	0.5625
18	12	13	15	13	08	0.667381781472	0.355542242279	0.545185117259	-0.99462890625	0.0654296875	0.15625	-0.3125	0.4375	0.6875
18	12	13	15	13	08	0.667367039059	0.355534388377	0.545173074161	-0.9921875	0.06787109375	0.1533203125	0.4375	0.75	0.375
18	12	13	15	13	08	0.667381520404	0.355481065926	0.545184903992	-1.00341796875	0.0654296875	0.1494140625	0.6875	0.625	0.25
18	12	13	15	13	08	0.667347666949	0.355495546722	0.545207112521	-1.0	0.07568359375	0.15576171875	0.8125	0.0	0.6875
18	12	13	15	13	08	0.667325457945	0.355483716004	0.54525000602	-0.998046875	0.06982421875	0.14892578125	0.75	-0.6875	0.3125
18	12	13	15	13	08	0.667135376754	0.35548000313	0.54524431112	-0.99951171875	0.0615234375	0.14794921875	1.75	-0.5625	-0.375
18	12	13	15	13	08	0.666946433861	0.35572104114	0.54511747056	-1.0	0.06982421875	0.15087890625	2.4375	-0.125	0.25
18	12	13	15	13	08	0.666828139295	0.355967204427	0.545059522554	-0.99853515625	0.0791015625	0.14501953125	1.4375	0.0	0.4375
18	12	13	15	13	08	0.666772055631	0.355969848814	0.545124609011	-1.001953125	0.07080078125	0.146484375	-0.4375	-0.625	0.5
18	12	13	15	13	08	0.666772055631	0.355969848814	0.545124609011	-0.9921875	0.07177734375	0.14697265625	-0.125	-0.4375	0.8125
18	12	13	15	13	08	0.666772055631	0.355969848814	0.545124609011	-0.98828125	0.0751953125	0.1484375	-0.0625	-0.3125	0.8125
18	12	13	15	13	08	0.666765526274	0.356149473252	0.545058234129	-0.9921875	0.07666015625	0.14501953125	0.4375	-0.3125	1.0625
18	12	13	15	13	08	0.666723932297	0.35609882093	0.545135167934	-0.98876953125	0.0673828125	0.14697265625	0.375	-0.8125	0.8125
18	12	13	15	13	08	0.666702630403	0.356270553297	0.545056714227	-0.99072265625	0.0693359375	0.1416015625	0.8125	-0.625	1.0
18	12	13	15	13	08	0.666703481098	0.356454117881	0.544935336377	-0.9912109375	0.0703125	0.14453125	0.8125	-0.625	1.5625
18	12	13	15	13	08	0.666711954698	0.356702798064	0.544759150021	-0.9912109375	0.072265625	0.1474609375	1.5	-0.5625	1.5
18	12	13	15	13	08	0.666578705921	0.356940964401	0.544688981929	-0.99755859375	0.0732421875	0.14453125	1.625	-0.375	1.0625
18	12	13	15	13	08	0.666523857412	0.357249463135	0.544510927837	-1.00439453125	0.0771484375	0.1494140625	1.875	-0.5	1.1875
18	12	13	15	13	08	0.666397864556	0.357491508766	0.544385652498	-1.00341796875	0.07763671875	0.1435546875	2.0625	-0.5	0.4375
18	12	13	15	13	08	0.666397864556	0.357491508766	0.544385652498	-1.00830078125	0.0771484375	0.15283203125	0.125	-0.5	-0.1875
18	12	13	15	13	08	0.666412404642	0.357438270891	0.544397530409	-1.00341796875	0.0673828125	0.15673828125	-0.5	-0.1875	0.0625
18	12	13	15	13	08	0.666397638636	0.357430350966	0.544385467942	-0.99853515625	0.068359375	0.15966796875	-0.3125	-0.25	0.1875
18	12	13	15	13	08	0.666363705451	0.357444889541	0.544407610966	-0.99072265625	0.06884765625	0.15283203125	-0.3125	-0.375	0.4375
18	12	13	15	13	08	0.666356098534	0.357379770717	0.544462434636	-0.99267578125	0.072265625	0.15087890625	0.25	-0.5	0.125
18	12	13	15	13	08	0.666341331083	0.357371850645	0.544450368532	-0.99072265625	0.07666015625	0.15283203125	0.0	-0.875	0.125
18	12	13	15	13	08	0.666341331083	0.357371850645	0.544450368532	-0.98779296875	0.07275390625	0.150390625	-0.1875	-1.0	-0.125
18	12	13	15	13	08	0.666341331083	0.357371850645	0.544450368532	-0.9892578125	0.07080078125	0.14697265625	0.5	-0.875	0.3125
18	12	13	15	13	08	0.666173286163	0.357440971575	0.54452372053	-0.99267578125	0.06591796875	0.14404296875	1.0625	-0.1875	0.3125
18	12	13	15	13	08	0.666173286163	0.357440971575	0.54452372053	-1.001953125	0.0751953125	0.14599609375	0.8125	0.125	0.75
18	12	13	15	13	08	0.666158515305	0.357433046145	0.544511646971	-1.005859375	0.0751953125	0.15087890625	0.3125	0.5	0.9375
18	12	13	15	13	08	0.6662293913	0.357438324824	0.544580726448	-1.0029296875	0.0771484375	0.1533203125	-0.5625	0.4375	1.1875
18	12	13	15	13	09	0.666180678787	0.357444938151	0.544590802285	-0.9931640625	0.0693359375	0.1513671875	-0.25	0.3125	0.8125
18	12	13	15	13	09	0.666151582536	0.357551399166	0.544444943762	-0.98681640625	0.07177734375	0.15771484375	1.4375	0.0	0.375
18	12	13	15	13	09	0.665969124521	0.357734858291	0.544384439703	-0.986328125	0.07470703125	0.14892578125	1.9375	-0.0625	-0.1875
18	12	13	15	13	09	0.665864665614	0.357866397882	0.544337802544	-0.9765625	0.0751953125	0.1494140625	1.25	-0.125	0.0
18	12	13	15	13	09	0.665879209656	0.357813175085	0.544349692154	-0.97021484375	0.0712890625	0.15234375	0.25	0.0	0.0
18	12	13	15	13	09	0.665879209656	0.357813175085	0.544349692154	-0.9912109375	0.08056640625	0.14599609375	0.875	-0.0625	-0.1875
18	12	13	15	13	09	0.665842541892	0.357854507573	0.544380752694	-1.01123046875	0.09228515625	0.130859375	0.3125	-0.3125	0.0625
18	12	13	15	13	09	0.666103270281	0.357680304577	0.544333268979	-1.01953125	0.08447265625	0.14208984375	-1.9375	-1.75	0.8125
18	12	13	15	13	09	0.666356308316	0.357440921636	0.544340529227	-1.017578125	0.07568359375	0.134765625	-2.4375	-2.5625	0.875
18	12	13	15	13	09	0.666474897661	0.357194898902	0.544276642774	-1.02294921875	0.0634765625	0.1416015625	-0.5625	-2.4375	0.875
18	12	13	15	13	09	0.666452852986	0.357244120206	0.544075531781	-1.01220703125	0.05517578125	0.14013671875	1.8125	-2.375	1.125
18	12	13	15	13	09	0.666173145933	0.357624011547	0.543669068245	-0.99951171875	0.0537109375	0.150390625	5.375	-1.75	0.4375
18	12	13	15	13	09	0.665561316241	0.358355694025	0.543240619456	-0.99462890625	0.06005859375	0.15283203125	8.3125	-0.5	-0.875
18	12	13	15	13	09	0.66488479979	0.359085401374	0.542931267248	-0.99951171875	0.0888671875	0.15478515625	7.6875	0.3125	-2.5
18	12	13	15	13	09	0.664461221229	0.359087393394	0.543117393579	-1.00146484375	0.09326171875	0.14599609375	1.9375	0.4375	-4.25
18	12	13	15	13	09	0.664394587683	0.358168804825	0.543601120616	-1.00390625	0.08251953125	0.15380859375	-3.5625	-0.5	-5.375
18	12	13	15	13	09	0.664523643337	0.356829725264	0.544156175287	-1.0009765625	0.06787109375	0.15966796875	-5.8125	-1.375	-5.625
18	12	13	15	13	09	0.664643516025	0.355485704594	0.544642675497	-0.9931640625	0.0576171875	0.16455078125	-4.9375	-1.3125	-5.25
18	12	13	15	13	09	0.664510526958	0.354747421942	0.544877879504	-0.99072265625	0.0537109375	0.17041015625	-0.9375	-0.6875	-4.25
18	12	13	15	13	09	0.664282048068	0.354572674559	0.54476865561	-0.98681640625	0.0615234375	0.16552734375	2.375	-0.8125	-3.1875
18	12	13	15	13	09	0.664026036459	0.354749455271	0.544514778127	-0.9912109375	0.07373046875	0.15869140625	3.875	-1.0625	-2.3125
18	12	13	15	13	09	0.663960822333	0.35480826073	0.544267204701	-1.00244140625	0.07958984375	0.15869140625	1.875	-1.4375	-2.0625
18	12	13	15	13	09	0.664078242749	0.354439554747	0.544324427283	-0.99365234375	0.0771484375	0.15283203125	-1.6875	-1.4375	-1.8125
18	12	13	15	13	09	0.664377765196	0.353704101912	0.544563933953	-0.99609375	0.06591796875	0.15478515625	-4.25	-1.5	-1.5
18	12	13	15	13	09	0.664627154964	0.352852381564	0.544934451237	-0.99169921875	0.04833984375	0.15283203125	-5.25	-1.3125	-0.9375
18	12	13	15	13	09	0.664820346399	0.352186320118	0.545125827552	-0.986328125	0.041015625	0.1630859375	-2.9375	-0.75	-0.25
18	12	13	15	13	09	0.664820346399	0.352186320118	0.545125827552	-0.9853515625	0.04296875	0.16064453125	-0.8125	-0.1875	0.125
18	12	13	15	13	09	0.664797504936	0.352113184537	0.545168133868	-0.9892578125	0.044921875	0.15576171875	-0.375	-0.0625	0.375
18	12	13	15	13	09	0.664839677726	0.351830325231	0.545324796255	-0.9873046875	0.03759765625	0.15478515625	-1.4375	-0.3125	0.8125
18	12	13	15	13	09	0.664850157723	0.351620468066	0.54546643345	-0.98388671875	0.0361328125	0.150390625	-0.9375	-0.375	1.125
18	12	13	15	13	09	0.664830367913	0.351581244875	0.545500275252	-0.9921875	0.0380859375	0.15625	0.8125	0.125	0.9375
18	12	13	15	13	09	0.664745633486	0.351690785065	0.545541866871	-0.99609375	0.04638671875	0.15478515625	0.6875	0.3125	1.25
18	12	13	15	13	09	0.664712301813	0.351766482585	0.545564605473	-0.9853515625	0.0537109375	0.15087890625	0.0625	0.125	1.25
18	12	13	15	13	09	0.664746368995	0.351752210497	0.545542470487	-0.99560546875	0.04638671875	0.15625	0.0625	-0.4375	1.1875
18	12	13	15	13	09	0.664620401659	0.351933257045	0.545539273581	-0.9970703125	0.04541015625	0.146484375	1.25	-0.3125	1.25
18	12	13	15	13	09	0.664398320412	0.352372209806	0.545435313845	-1.0009765625	0.05224609375	0.14453125	2.9375	0.125	1.4375
18	12	13	15	13	09	0.664155924116	0.35304456071	0.545253641221	-1.00390625	0.06005859375	0.14453125	3.5	0.1875	2.125
18	12	13	15	13	09	0.664011416353	0.353704031415	0.545052113984	-1.0048828125	0.06689453125	0.14013671875	2.8125	-0.0625	2.6875
18	12	13	15	13	09	0.664030604512	0.354263593031	0.544823713197	-1.0048828125	0.06640625	0.14404296875	1.8125	-0.4375	3.0625
18	12	13	15	13	09	0.664089522009	0.354689725404	0.544516785464	-1.00927734375	0.0615234375	0.15380859375	1.8125	-0.375	3.0
18	12	13	15	13	09	0.66410032184	0.355244841278	0.544220447566	-1.0048828125	0.0625	0.150390625	2.4375	-0.3125	3.3125
18	12	13	15	13	09	0.664088244126	0.355726680769	0.543966399968	-1.005859375	0.06787109375	0.154296875	2.375	-0.125	2.375
18	12	13	15	13	09	0.664153139179	0.355911860542	0.543847483695	-1.0068359375	0.0712890625	0.1513671875	0.25	-0.5625	1.6875
18	12	13	15	13	09	0.664398966467	0.355546530057	0.543909893449	-1.01171875	0.0654296875	0.1552734375	-2.3125	-1.3125	0.375
18	12	13	15	13	09	0.664580049016	0.355118178286	0.543969268629	-1.0185546875	0.06201171875	0.1552734375	-2.5625	-1.625	-0.4375
18	12	13	15	13	09	0.664815720952	0.354381204173	0.544206478884	-1.015625	0.056640625	0.15771484375	-3.625	-1.375	-1.125
18	12	13	15	13	09	0.66500203554	0.353589425597	0.54457532456	-1.01416015625	0.0556640625	0.15478515625	-4.3125	-1.125	-1.4375
18	12	13	15	13	09	0.665116675267	0.352791996242	0.544996493848	-1.0	0.05078125	0.1533203125	-4.375	-1.0	-1.75
18	12	13	15	13	09	0.665252216282	0.351944607678	0.5453737547	-0.98828125	0.04443359375	0.1572265625	-4.125	-0.8125	-1.8125
18	12	13	15	13	09	0.665492436895	0.351149040581	0.545553645874	-0.97998046875	0.04931640625	0.16259765625	-3.4375	-1.1875	-1.375
18	12	13	15	13	10	0.665670460591	0.350535985254	0.545732586479	-0.9716796875	0.052734375	0.15869140625	-2.875	-1.375	-1.375
18	12	13	15	13	10	0.665729741703	0.350107802183	0.545853220872	-0.97216796875	0.05322265625	0.1533203125	-1.875	-1.1875	-1.3125
18	12	13	15	13	10	0.665782639319	0.349798341212	0.545907583981	-0.97216796875	0.0576171875	0.14892578125	-0.9375	-1.3125	-1.25
18	12	13	15	13	10	0.66574786264	0.349751100479	0.545929117397	-0.97314453125	0.0634765625	0.14306640625	-0.1875	-1.0625	-0.625
18	12	13	15	13	10	0.665717842117	0.349735329177	0.545904499852	-0.984375	0.05810546875	0.138671875	0.5	-1.8125	-0.4375
18	12	13	15	13	10	0.665725009569	0.349739094603	0.545849340843	-1.001953125	0.05712890625	0.13330078125	0.4375	-2.25	0.375
18	12	13	15	13	10	0.665655541578	0.349917771856	0.545781391233	-1.0107421875	0.05029296875	0.140625	0.75	-1.5	1.3125
18	12	13	15	13	10	0.665611349036	0.350353887525	0.545673127958	-1.01513671875	0.052734375	0.14794921875	1.4375	-0.0625	2.875
18	12	13	15	13	10	0.665617477863	0.350906453942	0.545556076767	-1.01220703125	0.05859375	0.1513671875	1.5	0.5625	4.0
18	12	13	15	13	10	0.665727022202	0.35132710551	0.545362697659	-1.0068359375	0.05078125	0.16455078125	0.875	0.8125	3.8125
18	12	13	15	13	10	0.665752730444	0.351706906832	0.54520064072	-1.001953125	0.0458984375	0.16650390625	1.5	0.75	3.8125
18	12	13	15	13	10	0.665853444096	0.352061844857	0.544938999806	-0.99951171875	0.05859375	0.171875	1.1875	0.4375	3.125
18	12	13	15	13	10	0.666059568417	0.352135048588	0.544713671971	-0.99267578125	0.05322265625	0.1728515625	0.3125	-0.125	2.3125
18	12	13	15	13	10	0.666163940562	0.352064651747	0.544638156646	-0.9892578125	0.05517578125	0.166015625	0.0	-0.375	1.25
18	12	13	15	13	10	0.666148964346	0.352056736883	0.544625912484	-0.990234375	0.05712890625	0.16748046875	0.0	-0.375	0.3125
18	12	13	15	13	10	0.666148964346	0.352056736883	0.544625912484	-0.9951171875	0.05810546875	0.154296875	-0.3125	-0.8125	-0.3125
18	12	13	15	13	10	0.666027607803	0.35193504276	0.544687534094	-0.9892578125	0.052734375	0.14599609375	0.375	-1.0625	-0.75
18	12	13	15	13	10	0.665842923894	0.351873174099	0.544747281672	-0.99169921875	0.0478515625	0.1494140625	1.125	-0.75	-0.5625
18	12	13	15	13	10	0.665619093482	0.352067027162	0.54476390732	-0.9951171875	0.06201171875	0.14697265625	1.75	-0.125	-0.375
18	12	13	15	13	10	0.665358732371	0.35230259639	0.544811672795	-0.99365234375	0.0625	0.1484375	2.0625	0.25	-0.3125
18	12	13	15	13	10	0.665072047426	0.352617586085	0.544826825929	-0.99951171875	0.07080078125	0.14892578125	2.125	0.4375	-0.75
18	12	13	15	13	10	0.665072047426	0.352617586085	0.544826825929	-1.0029296875	0.07275390625	0.14990234375	0.5625	0.25	-0.625
18	12	13	15	13	10	0.665072047426	0.352617586085	0.544826825929	-1.00244140625	0.06494140625	0.1552734375	-0.875	-0.25	-0.125
18	12	13	15	13	10	0.665072047426	0.352617586085	0.544826825929	-1.00244140625	0.0615234375	0.162109375	-0.5	-0.4375	0.375
18	12	13	15	13	10	0.665071361068	0.352556184061	0.544826263665	-1.00439453125	0.060546875	0.16748046875	0.1875	-0.25	0.875
18	12	13	15	13	10	0.665192825175	0.352738973819	0.544642648104	-1.00927734375	0.06396484375	0.16552734375	0.5	-0.5625	1.625
18	12	13	15	13	10	0.665319992668	0.352802711708	0.54440266189	-1.00439453125	0.05908203125	0.1650390625	0.75	-0.8125	1.625
18	12	13	15	13	10	0.66541134417	0.352969528833	0.544194417962	-1.00048828125	0.06103515625	0.16015625	0.8125	-0.875	1.5
18	12	13	15	13	10	0.665545657727	0.352976021518	0.544021317619	-1.0	0.06396484375	0.15869140625	0.125	-1.1875	0.8125
18	12	13	15	13	10	0.66566442442	0.352852194899	0.543957578437	-0.99853515625	0.06591796875	0.15673828125	-0.5625	-1.4375	0.3125
18	12	13	15	13	10	0.665862178648	0.352737879769	0.543908504348	-0.99267578125	0.07568359375	0.14990234375	-1.4375	-1.5	0.0
18	12	13	15	13	10	0.666099148338	0.35230681611	0.544024714482	-0.9873046875	0.068359375	0.1494140625	-3.0625	-1.5	-0.1875
18	12	13	15	13	10	0.666364538405	0.351768694222	0.544164134824	-0.9873046875	0.05810546875	0.1533203125	-3.375	-1.5	-0.0625
18	12	13	15	13	10	0.666586085175	0.351268466274	0.54438982636	-0.9853515625	0.0546875	0.1533203125	-3.5	-1.1875	0.1875
18	12	13	15	13	10	0.66675987643	0.35089733885	0.544626361899	-0.98876953125	0.05078125	0.1474609375	-3.0625	-0.625	0.75
18	12	13	15	13	10	0.666837943684	0.350784225387	0.544762347586	-0.98828125	0.05126953125	0.1494140625	-1.8125	-0.1875	1.625
18	12	13	15	13	10	0.666894602405	0.350781922023	0.544819807895	-0.9775390625	0.04736328125	0.14990234375	-0.375	-0.3125	2.125
18	12	13	15	13	10	0.66689688821	0.351088312373	0.544577524859	-0.9765625	0.04833984375	0.1611328125	2.125	-0.1875	2.5
18	12	13	15	13	10	0.666681560278	0.351742729276	0.54430707265	-0.97998046875	0.0556640625	0.15380859375	4.0	0.25	2.0625
18	12	13	15	13	10	0.666341951701	0.352428178906	0.544145690154	-0.98388671875	0.064453125	0.14794921875	4.1875	0.6875	1.375
18	12	13	15	13	10	0.666042505641	0.352919516827	0.544150379196	-0.9970703125	0.0673828125	0.1455078125	2.6875	0.8125	0.5
18	12	13	15	13	10	0.665790009703	0.35315924057	0.544265632244	-1.009765625	0.064453125	0.14697265625	1.1875	0.75	0.25
18	12	13	15	13	10	0.665733908445	0.35316185883	0.54433070464	-1.017578125	0.0595703125	0.1533203125	-0.375	0.6875	0.75
18	12	13	15	13	10	0.665767346213	0.3529641147	0.544552279328	-1.02197265625	0.0556640625	0.15673828125	-1.75	0.4375	0.8125
18	12	13	15	13	10	0.66596372461	0.352727006189	0.544502097631	-1.01171875	0.05078125	0.17333984375	-1.1875	-0.3125	1.1875
18	12	13	15	13	10	0.666034770005	0.352793344083	0.544327169988	-1.0029296875	0.05419921875	0.1669921875	1.0	-0.4375	1.5625
18	12	13	15	13	10	0.666009639824	0.353178606546	0.543929236594	-1.0048828125	0.06005859375	0.1689453125	3.375	-0.875	1.625
18	12	13	15	13	10	0.666045528009	0.353653573065	0.543420393683	-0.9912109375	0.06982421875	0.158203125	3.5	-1.75	1.5625
18	12	13	15	13	10	0.666165123167	0.353774331489	0.543113181779	-0.99072265625	0.0732421875	0.14892578125	1.0625	-2.375	0.875
18	12	13	15	13	11	0.666538150846	0.353594826726	0.542935609137	-0.986328125	0.072265625	0.15087890625	-1.75	-2.5	1.1875
18	12	13	15	13	11	0.666950954788	0.353220936703	0.542801760861	-0.97900390625	0.05712890625	0.15673828125	-2.6875	-2.1875	1.75
18	12	13	15	13	11	0.667211689976	0.353046602765	0.542754217113	-0.97900390625	0.05859375	0.15283203125	-1.6875	-1.625	1.75
18	12	13	15	13	11	0.667238895815	0.353150773069	0.542665662522	-0.9921875	0.0556640625	0.15380859375	0.4375	-0.875	1.625
18	12	13	15	13	11	0.667150708659	0.353412863965	0.54263218664	-1.00439453125	0.05810546875	0.14892578125	1.3125	-0.25	1.8125
18	12	13	15	13	11	0.667116576511	0.353699959824	0.542665460362	-1.01318359375	0.072265625	0.1513671875	0.1875	0.5	2.0625
18	12	13	15	13	11	0.667219316629	0.353844147699	0.542760421138	-1.0146484375	0.07080078125	0.1572265625	-1.3125	0.625	2.375
18	12	13	15	13	11	0.667436342531	0.353646654653	0.542921469302	-1.01123046875	0.064453125	0.166015625	-2.75	0.5625	2.0
18	12	13	15	13	11	0.667570003054	0.353408642012	0.543114006325	-0.99755859375	0.05712890625	0.16259765625	-2.5625	0.5	1.3125
18	12	13	15	13	11	0.667766141528	0.353049301883	0.543307717161	-0.99169921875	0.06201171875	0.1640625	-3.125	0.125	0.8125
18	12	13	15	13	11	0.667994789905	0.352552805783	0.543478217225	-0.98583984375	0.06396484375	0.166015625	-3.0625	-0.4375	0.125
18	12	13	15	13	11	0.668188827295	0.352009223259	0.543670218756	-0.990234375	0.06298828125	0.16015625	-3.125	-0.8125	-0.6875
18	12	13	15	13	11	0.668360594303	0.351514946356	0.543783062525	-0.9921875	0.05615234375	0.15869140625	-2.375	-1.25	-0.4375
18	12	13	15	13	11	0.668304636058	0.351517617961	0.54384823338	-0.99853515625	0.056640625	0.1591796875	-0.0625	-0.5	-0.375
18	12	13	15	13	11	0.668100963779	0.351689909857	0.543953571095	-1.00439453125	0.068359375	0.14794921875	1.0	0.25	-0.125
18	12	13	15	13	11	0.668067169628	0.351704251384	0.543975752921	-1.00634765625	0.076171875	0.15087890625	-0.1875	0.0625	0.125
18	12	13	15	13	11	0.668177980926	0.351454171387	0.544210731519	-1.00146484375	0.06884765625	0.15234375	-2.625	-0.1875	0.375
18	12	13	15	13	11	0.668414061552	0.351022670805	0.544448308743	-0.99462890625	0.0654296875	0.158203125	-3.6875	-0.125	0.625
18	12	13	15	13	11	0.668663194729	0.35041491565	0.544818592072	-1.0009765625	0.056640625	0.1611328125	-4.8125	0.25	0.4375
18	12	13	15	13	11	0.668849533441	0.349928305824	0.545187445948	-0.9921875	0.05517578125	0.16455078125	-4.3125	0.5	0.75
18	12	13	15	13	11	0.669099388427	0.349504022818	0.545314170425	-0.9931640625	0.0546875	0.17236328125	-2.8125	0.375	1.0
18	12	13	15	13	11	0.66921710387	0.349318632383	0.545371654786	-0.9921875	0.0537109375	0.16650390625	-1.5	-0.1875	1.0625
18	12	13	15	13	11	0.669313645314	0.349244271246	0.54535084998	-0.9931640625	0.0546875	0.15966796875	-0.25	-0.625	1.4375
18	12	13	15	13	11	0.669343931001	0.349321112267	0.545253450267	-0.98681640625	0.05224609375	0.15576171875	0.5625	-0.625	1.5
18	12	13	15	13	11	0.669268012091	0.349557492498	0.545241327132	-0.98876953125	0.0615234375	0.14697265625	1.0	-0.4375	1.6875
18	12	13	15	13	11	0.669228020762	0.349690562837	0.545197435374	-0.9931640625	0.0556640625	0.14990234375	0.5625	-0.5	1.4375
18	12	13	15	13	11	0.669089163081	0.349986978754	0.54518376251	-0.99169921875	0.0595703125	0.14599609375	1.375	-0.25	1.375
18	12	13	15	13	11	0.668830216175	0.350223378391	0.545232736	-0.99853515625	0.060546875	0.14697265625	2.0	0.25	0.0625
18	12	13	15	13	11	0.668578096587	0.350402305323	0.545348301352	-1.00146484375	0.06103515625	0.15234375	1.3125	0.625	0.125
18	12	13	15	13	11	0.66855864035	0.350363059948	0.545382219622	-1.0	0.06689453125	0.16015625	0.6875	0.875	0.0625
18	12	13	15	13	11	0.66855864035	0.350363059948	0.545382219622	-0.99658203125	0.06689453125	0.1572265625	0.0	0.625	0.0625
18	12	13	15	13	11	0.66855864035	0.350363059948	0.545382219622	-0.99658203125	0.06640625	0.16455078125	-0.3125	0.4375	-0.0625
18	12	13	15	13	11	0.66855864035	0.350363059948	0.545382219622	-0.99560546875	0.0625	0.16650390625	-0.25	-0.125	0.25
18	12	13	15	13	11	0.66855864035	0.350363059948	0.545382219622	-0.9921875	0.06640625	0.16455078125	0.125	-0.125	0.8125
18	12	13	15	13	11	0.668719842251	0.350412615404	0.545242273715	-0.9931640625	0.0703125	0.1611328125	-0.1875	-0.6875	1.3125
18	12	13	15	13	11	0.668861566931	0.350422910728	0.545136215939	-0.99951171875	0.0654296875	0.15380859375	-0.5	-1.0	1.75
18	12	13	15	13	11	0.669023231995	0.350533748868	0.544996664399	-0.99560546875	0.05859375	0.15673828125	-0.0625	-0.875	2.3125
18	12	13	15	13	11	0.669032257272	0.350721590209	0.54494297901	-0.99658203125	0.0537109375	0.146484375	0.4375	-0.8125	2.8125
18	12	13	15	13	11	0.669049167253	0.350974611049	0.544834674473	-0.9931640625	0.05517578125	0.1494140625	1.0625	-0.5	2.5625
18	12	13	15	13	11	0.669014066266	0.351200340963	0.544745054413	-0.9912109375	0.05517578125	0.15283203125	1.4375	-0.3125	2.1875
18	12	13	15	13	11	0.668855931369	0.351518644712	0.544643317723	-0.9921875	0.05615234375	0.1552734375	2.0625	0.1875	1.75
18	12	13	15	13	11	0.668604619745	0.351820068305	0.544637486031	-0.99658203125	0.05126953125	0.15625	2.4375	0.625	1.0625
18	12	13	15	13	11	0.668367552796	0.352067949272	0.544643257863	-1.00048828125	0.05859375	0.15576171875	2.375	0.5	0.75
18	12	13	15	13	11	0.668121847012	0.352189206766	0.544580953686	-0.99609375	0.0478515625	0.1630859375	2.5	0.0	0.0
18	12	13	15	13	11	0.667756614196	0.352372845864	0.544459689088	-0.99462890625	0.0498046875	0.1650390625	4.0	0.0625	-0.8125
18	12	13	15	13	11	0.667329455775	0.352800169613	0.544337701143	-0.9951171875	0.064453125	0.1552734375	4.6875	0.3125	-0.875
