18	12	13	20	17	18	0.119620346409	-0.588641959752	-0.226119073186	0.99169921875	0.16259765625	0.318359375	-15.0	-5.625	-16.125
18	12	13	20	17	18	0.116085269464	-0.589520303763	-0.225151713488	1.0322265625	0.18798828125	0.2978515625	-15.25	-12.5	-13.6875
18	12	13	20	17	18	0.113155381285	-0.590800480493	-0.224540802452	0.9853515625	0.21435546875	0.259765625	-12.4375	-14.0625	-8.875
18	12	13	20	17	18	0.111139732108	-0.591951818627	-0.224842818829	0.93115234375	0.23486328125	0.20556640625	-5.375	-10.875	-6.3125
18	12	13	20	17	18	0.11077210145	-0.592432390509	-0.226487751229	0.90234375	0.25732421875	0.17529296875	5.9375	-5.8125	-2.3125
18	12	13	20	17	18	0.112297066246	-0.592183931407	-0.229476613634	0.89697265625	0.2666015625	0.15673828125	18.0625	-0.5625	1.0625
18	12	13	20	17	18	0.114864516456	-0.591045684036	-0.233452059215	0.9072265625	0.28173828125	0.16162109375	26.75	4.6875	1.6875
18	12	13	20	17	18	0.117548487318	-0.589146182803	-0.237904467064	0.9130859375	0.30126953125	0.16357421875	28.4375	9.5	-0.0625
18	12	13	20	17	18	0.119439060719	-0.58688094424	-0.241197326501	0.923828125	0.29638671875	0.177734375	20.6875	12.3125	-1.25
18	12	13	20	17	18	0.120108704117	-0.584797562426	-0.242475549522	0.919921875	0.2822265625	0.18115234375	6.625	13.5625	-0.6875
18	12	13	20	17	18	0.119199646836	-0.583058999601	-0.241389965814	0.912109375	0.263671875	0.189453125	-9.75	13.375	-1.1875
18	12	13	20	17	18	0.116694729465	-0.581703695884	-0.238150017977	0.900390625	0.2353515625	0.20947265625	-25.0	12.25	-2.6875
18	12	13	20	17	18	0.113214996122	-0.580600678223	-0.233814905737	0.90185546875	0.20849609375	0.236328125	-33.25	9.75	-4.6875
18	12	13	20	17	18	0.109794005782	-0.579729439093	-0.229780117716	0.9140625	0.18798828125	0.25634765625	-30.5625	6.9375	-6.625
18	12	13	20	17	18	0.107049665416	-0.578947050247	-0.227221154129	0.92041015625	0.1865234375	0.24658203125	-21.4375	5.25	-8.25
18	12	13	20	17	18	0.104974140431	-0.578029118615	-0.226365748173	0.92236328125	0.2177734375	0.2314453125	-11.4375	5.25	-8.6875
18	12	13	20	17	18	0.103570405465	-0.577235648136	-0.226731912965	0.92333984375	0.2490234375	0.20458984375	-4.0625	5.3125	-7.5625
18	12	13	20	17	18	0.102653196138	-0.576554544542	-0.227460441146	0.92578125	0.263671875	0.18896484375	-1.1875	5.1875	-5.5625
18	12	13	20	17	18	0.102043150218	-0.576006729518	-0.228071323184	0.92529296875	0.26171875	0.1875	-0.5	4.9375	-3.6875
18	12	13	20	17	18	0.101803635318	-0.575483499647	-0.228753012693	0.91796875	0.2529296875	0.1923828125	1.125	4.5	-2.8125
18	12	13	20	17	18	0.10161728637	-0.575037881188	-0.229417044724	0.91064453125	0.25048828125	0.19970703125	1.6875	3.6875	-2.4375
18	12	13	20	17	18	0.101497528818	-0.574623712462	-0.230032583353	0.8974609375	0.24658203125	0.21142578125	1.8125	2.375	-2.0
18	12	13	20	17	18	0.101191535044	-0.57437487111	-0.230396890707	0.88720703125	0.251953125	0.22314453125	0.3125	0.8125	-1.5
18	12	13	20	17	18	0.100704149634	-0.574318817002	-0.230520953434	0.8916015625	0.2509765625	0.2373046875	-1.25	-1.3125	-1.5
18	12	13	20	17	18	0.0997263613326	-0.574494638448	-0.230334937374	0.900390625	0.248046875	0.2509765625	-4.0	-3.5625	-2.375
18	12	13	20	17	19	0.0985083552456	-0.574937240653	-0.230096963616	0.90478515625	0.25537109375	0.24951171875	-5.0625	-5.625	-2.8125
18	12	13	20	17	19	0.0970998673683	-0.575519641284	-0.22978064151	0.90576171875	0.259765625	0.25048828125	-6.3125	-6.75	-2.9375
18	12	13	20	17	19	0.0956988466673	-0.576329214974	-0.22929883095	0.90087890625	0.26171875	0.2490234375	-6.6875	-7.875	-2.0
18	12	13	20	17	19	0.0946002227968	-0.577305488668	-0.228749441963	0.90185546875	0.2490234375	0.2431640625	-6.0	-8.5	-0.625
18	12	13	20	17	19	0.0939284974299	-0.578279735639	-0.228443382638	0.90380859375	0.23681640625	0.23681640625	-2.8125	-8.1875	-0.3125
18	12	13	20	17	19	0.0939890193197	-0.579008978108	-0.228869365226	0.90673828125	0.2255859375	0.2333984375	2.8125	-6.9375	-0.4375
18	12	13	20	17	19	0.0947234313396	-0.579387586151	-0.230033899948	0.90966796875	0.2236328125	0.23388671875	8.9375	-5.0625	-0.75
18	12	13	20	17	19	0.0958809730363	-0.579497033087	-0.231798813235	0.92138671875	0.232421875	0.22705078125	13.25	-3.1875	-0.875
18	12	13	20	17	19	0.0971022648036	-0.579317848847	-0.233753409301	0.91650390625	0.24609375	0.22216796875	13.5	-1.1875	-0.6875
18	12	13	20	17	19	0.0978961564647	-0.578954451511	-0.234914156005	0.91943359375	0.2607421875	0.22216796875	8.1875	0.8125	0.1875
18	12	13	20	17	19	0.0980775665427	-0.578517270229	-0.23515424013	0.9189453125	0.26123046875	0.2216796875	1.3125	2.375	0.625
18	12	13	20	17	19	0.0980801425383	-0.57810523343	-0.234489052665	0.91064453125	0.24169921875	0.21826171875	-3.25	3.625	1.125
18	12	13	20	17	19	0.0981390671966	-0.577482496153	-0.233629570416	0.9072265625	0.22802734375	0.23291015625	-4.0	4.5	1.125
18	12	13	20	17	19	0.0986283084123	-0.576755887684	-0.232960552729	0.91259765625	0.21630859375	0.232421875	-1.25	5.5	1.25
18	12	13	20	17	19	0.0994204426706	-0.575893982222	-0.232957538167	0.90087890625	0.22509765625	0.224609375	2.5625	6.25	1.6875
18	12	13	20	17	19	0.100456630212	-0.574970785679	-0.233198532224	0.90283203125	0.23828125	0.224609375	4.4375	6.6875	2.1875
18	12	13	20	17	19	0.101375312379	-0.574012530358	-0.233450072155	0.90478515625	0.244140625	0.22412109375	3.75	7.0625	2.1875
18	12	13	20	17	19	0.102165584522	-0.573079354038	-0.233442867859	0.9033203125	0.23828125	0.22802734375	2.375	6.9375	2.1875
18	12	13	20	17	19	0.10296198305	-0.572180551921	-0.233388632592	0.9091796875	0.23681640625	0.2294921875	2.0625	6.625	2.1875
18	12	13	20	17	19	0.103880161859	-0.571401924399	-0.233394676234	0.91015625	0.23388671875	0.23095703125	2.875	6.1875	2.3125
18	12	13	20	17	19	0.104855284881	-0.570722799138	-0.233635640584	0.9130859375	0.236328125	0.22509765625	4.4375	5.6875	2.375
18	12	13	20	17	19	0.105766694339	-0.570090416514	-0.234053821575	0.91162109375	0.2421875	0.22412109375	4.375	5.125	2.0625
18	12	13	20	17	19	0.106504840965	-0.569572020566	-0.234432718709	0.9140625	0.2470703125	0.21826171875	3.75	4.5625	2.0625
18	12	13	20	17	19	0.107112812174	-0.569132178647	-0.234671659721	0.91552734375	0.25	0.22265625	2.625	4.0	1.8125
18	12	13	20	17	19	0.10760297342	-0.568776012082	-0.234858900579	0.91259765625	0.25	0.22021484375	2.0	3.5625	1.875
18	12	13	20	17	19	0.108029035868	-0.568464655409	-0.235039444705	0.91259765625	0.24658203125	0.22607421875	1.8125	3.0625	1.5
18	12	13	20	17	19	0.108453348287	-0.568205218093	-0.235338272929	0.91552734375	0.24560546875	0.22314453125	2.375	2.5	0.9375
18	12	13	20	17	19	0.108701857652	-0.567983990629	-0.235652932282	0.91162109375	0.2470703125	0.22412109375	2.0	2.0	0.3125
18	12	13	20	17	19	0.108882504248	-0.567849114083	-0.235952781067	0.91162109375	0.24658203125	0.22314453125	1.6875	1.625	0.375
18	12	13	20	17	19	0.108880936078	-0.567840935688	-0.236010414693	0.9091796875	0.244140625	0.21826171875	0.3125	0.9375	-0.0625
18	12	13	20	17	19	0.108882352356	-0.567909354636	-0.236013484619	0.9091796875	0.240234375	0.21923828125	-0.8125	0.5	-0.125
18	12	13	20	17	19	0.108882352356	-0.567909354636	-0.236013484619	0.9130859375	0.23583984375	0.2275390625	-0.875	0.125	-0.25
18	12	13	20	17	19	0.108878578373	-0.567950700863	-0.23600530413	0.91162109375	0.2353515625	0.22216796875	-0.9375	-0.0625	0.0
18	12	13	20	17	19	0.108883767878	-0.567977771229	-0.236016552906	0.91259765625	0.22998046875	0.232421875	-0.375	-0.3125	-0.125
18	12	13	20	17	19	0.108883767878	-0.567977771229	-0.236016552906	0.91162109375	0.22998046875	0.2333984375	-0.5625	-0.5	-0.4375
18	12	13	20	17	19	0.108699991162	-0.568096304175	-0.235831985317	0.904296875	0.23583984375	0.23046875	-1.5	-0.5	-0.1875
18	12	13	20	17	19	0.108393528041	-0.568211568728	-0.2355240004	0.904296875	0.2431640625	0.234375	-2.875	-0.5	0.1875
18	12	13	20	17	19	0.108029330437	-0.568344138437	-0.234918018561	0.90185546875	0.236328125	0.23193359375	-4.125	-0.4375	0.375
18	12	13	20	17	19	0.107725388174	-0.568472671643	-0.234310348554	0.91015625	0.232421875	0.2373046875	-4.0	-0.25	0.5
18	12	13	20	17	19	0.107597904388	-0.568505093236	-0.233810307266	0.91015625	0.23046875	0.244140625	-2.6875	0.125	0.6875
18	12	13	20	17	19	0.107601637654	-0.568463785089	-0.233818419656	0.90478515625	0.232421875	0.2421875	-0.6875	0.4375	0.6875
18	12	13	20	17	19	0.107845273555	-0.568339098668	-0.233817341817	0.90185546875	0.23486328125	0.24072265625	1.0	0.625	1.0625
18	12	13	20	17	19	0.108210943988	-0.568275295811	-0.233816202154	0.90185546875	0.23486328125	0.2412109375	1.125	0.5625	1.625
18	12	13	20	17	19	0.1085745153	-0.56820052695	-0.2336884874	0.9033203125	0.23388671875	0.244140625	1.0	0.3125	2.0625
18	12	13	20	17	19	0.109065416965	-0.568153310871	-0.233511071801	0.9052734375	0.22900390625	0.2451171875	0.875	0.375	2.375
18	12	13	20	17	19	0.109432722083	-0.568037001912	-0.233391371582	0.90478515625	0.232421875	0.24560546875	0.8125	0.8125	1.8125
18	12	13	20	17	19	0.109432722083	-0.568037001912	-0.233391371582	0.9130859375	0.2265625	0.248046875	-0.375	0.8125	0.6875
18	12	13	20	17	19	0.109675615787	-0.567969549535	-0.233266668636	0.916015625	0.22998046875	0.2373046875	0.25	0.75	1.0625
18	12	13	20	17	19	0.109858199869	-0.56790586099	-0.233143513056	0.91259765625	0.2294921875	0.24169921875	0.0	0.9375	1.0
18	12	13	20	17	19	0.109982857227	-0.567736147573	-0.233026941672	0.916015625	0.234375	0.24462890625	-0.3125	1.0	0.6875
18	12	13	20	17	20	0.109980985563	-0.567604420496	-0.232778845137	0.91455078125	0.2294921875	0.240234375	-1.125	1.125	0.25
18	12	13	20	17	20	0.109918687852	-0.567536856376	-0.232593070185	0.91455078125	0.234375	0.236328125	-1.25	1.25	0.125
18	12	13	20	17	20	0.1097984526	-0.567363210323	-0.232413845193	0.91455078125	0.23681640625	0.240234375	-1.5625	1.4375	0.0
18	12	13	20	17	20	0.109674516832	-0.567170442361	-0.232165755164	0.91357421875	0.2333984375	0.240234375	-1.875	1.4375	-0.25
18	12	13	20	17	20	0.10931234982	-0.567069258615	-0.231869132868	0.91015625	0.2392578125	0.23681640625	-3.0	1.3125	-0.4375
18	12	13	20	17	20	0.10863901166	-0.566997987823	-0.231376681575	0.91064453125	0.24267578125	0.2392578125	-4.875	1.0	-0.75
18	12	13	20	17	20	0.107902477928	-0.566976255631	-0.230635443491	0.9091796875	0.23828125	0.24462890625	-6.1875	0.5	-0.9375
18	12	13	20	17	20	0.106932580937	-0.567072265691	-0.229856221353	0.904296875	0.24169921875	0.2392578125	-7.375	-0.1875	-1.0
18	12	13	20	17	20	0.106013292794	-0.567235200475	-0.228932562619	0.90625	0.23388671875	0.244140625	-7.8125	-0.6875	-0.9375
18	12	13	20	17	20	0.1050385514	-0.567427897949	-0.228020934359	0.90380859375	0.236328125	0.25	-7.8125	-1.1875	-0.6875
18	12	13	20	17	20	0.104241084575	-0.567650074727	-0.227096648539	0.90380859375	0.23046875	0.25390625	-6.75	-1.5625	-0.5625
18	12	13	20	17	20	0.103572050677	-0.567845821742	-0.226430352393	0.908203125	0.22802734375	0.25634765625	-5.375	-1.8125	-0.6875
18	12	13	20	17	20	0.103086082843	-0.568102580877	-0.225947115858	0.90771484375	0.2255859375	0.2548828125	-3.6875	-1.875	-0.5
18	12	13	20	17	20	0.102780589568	-0.568222855628	-0.225580201332	0.9072265625	0.2275390625	0.2578125	-2.5	-1.6875	-0.1875
18	12	13	20	17	20	0.102656189335	-0.56839303881	-0.225269913696	0.9091796875	0.22021484375	0.2587890625	-1.5	-1.5625	-0.0625
18	12	13	20	17	20	0.102536022967	-0.568525627346	-0.225152017099	0.90625	0.228515625	0.25244140625	-1.0	-1.4375	-0.0625
18	12	13	20	17	20	0.102471276769	-0.568688122057	-0.225082828305	0.90478515625	0.22265625	0.24462890625	-0.5625	-1.1875	-0.125
18	12	13	20	17	20	0.102474833304	-0.568646826618	-0.225090640396	0.9091796875	0.22607421875	0.2490234375	-0.625	-0.5625	0.25
18	12	13	20	17	20	0.102413011885	-0.568703483164	-0.224783744204	0.9140625	0.2236328125	0.248046875	-1.4375	-0.0625	0.3125
18	12	13	20	17	20	0.102289491561	-0.568634363289	-0.224414355889	0.91796875	0.22265625	0.2490234375	-2.125	0.625	-0.0625
18	12	13	20	17	20	0.102109151265	-0.568466607819	-0.223993177013	0.9150390625	0.22802734375	0.25439453125	-2.5	1.25	0.125
18	12	13	20	17	20	0.101920389954	-0.568251946623	-0.223492495815	0.90673828125	0.232421875	0.24853515625	-3.25	1.875	0.375
18	12	13	20	17	20	0.101681025645	-0.567973364137	-0.222892620441	0.90673828125	0.22900390625	0.255859375	-3.875	2.0	0.4375
18	12	13	20	17	20	0.101497085335	-0.567724526631	-0.222341480383	0.90771484375	0.22900390625	0.25146484375	-3.5625	2.125	0.6875
18	12	13	20	17	20	0.101375619954	-0.567483753359	-0.221915565413	0.908203125	0.23095703125	0.25146484375	-2.625	2.0	0.5625
18	12	13	20	17	20	0.101434731321	-0.567167844868	-0.221667234753	0.91064453125	0.22802734375	0.2568359375	-1.0	1.9375	0.5
18	12	13	20	17	20	0.101618870839	-0.566929544277	-0.2217305452	0.9072265625	0.22900390625	0.25439453125	0.9375	1.6875	0.4375
18	12	13	20	17	20	0.102049631639	-0.566644007259	-0.222165466008	0.90771484375	0.232421875	0.255859375	3.375	1.1875	0.625
18	12	13	20	17	20	0.102658736894	-0.566454064871	-0.222834154816	0.90771484375	0.2314453125	0.25341796875	5.0625	0.625	0.75
18	12	13	20	17	20	0.103328849097	-0.566264064926	-0.223685901914	0.90771484375	0.23583984375	0.2529296875	6.4375	0.25	0.625
18	12	13	20	17	20	0.104183439777	-0.566203732167	-0.224723740632	0.9091796875	0.23193359375	0.25048828125	7.8125	-0.1875	0.75
18	12	13	20	17	20	0.105157830046	-0.566070153032	-0.225939806633	0.90625	0.232421875	0.25	9.125	-0.625	0.6875
18	12	13	20	17	20	0.106135417703	-0.566075905231	-0.227345848731	0.912109375	0.23291015625	0.248046875	10.125	-1.0625	0.5625
18	12	13	20	17	20	0.107235549942	-0.566023045055	-0.22881393098	0.9111328125	0.232421875	0.25048828125	10.875	-1.3125	0.375
18	12	13	20	17	20	0.108029982362	-0.566028280467	-0.230280860708	0.91064453125	0.24072265625	0.23828125	9.5625	-1.125	-0.125
18	12	13	20	17	20	0.108576465664	-0.566013570867	-0.231373457748	0.90966796875	0.2373046875	0.2431640625	6.875	-0.875	-0.6875
18	12	13	20	17	20	0.108999434779	-0.565991465927	-0.232157810695	0.91357421875	0.23828125	0.24169921875	5.25	-0.625	-0.125
18	12	13	20	17	20	0.10931332245	-0.56591464308	-0.232603613544	0.90771484375	0.23486328125	0.2412109375	3.125	0.125	-0.125
18	12	13	20	17	20	0.109488784187	-0.565753082168	-0.232892530912	0.90966796875	0.236328125	0.2431640625	1.75	0.8125	-0.25
18	12	13	20	17	20	0.109553633391	-0.565589705089	-0.232961681701	0.9111328125	0.22900390625	0.24365234375	0.625	1.25	-0.4375
18	12	13	20	17	20	0.109490517445	-0.56539584928	-0.232896217709	0.908203125	0.23583984375	0.23974609375	-0.75	1.5	-0.3125
18	12	13	20	17	20	0.109309233386	-0.565283148865	-0.232594912581	0.904296875	0.2353515625	0.23876953125	-2.0625	1.625	-0.0625
18	12	13	20	17	20	0.109063943869	-0.565155075671	-0.232226248696	0.90380859375	0.23583984375	0.2392578125	-2.875	1.5625	0.0
18	12	13	20	17	20	0.10900622612	-0.565111224884	-0.231867106959	0.90576171875	0.22705078125	0.2373046875	-2.3125	1.125	0.1875
18	12	13	20	17	20	0.108939433471	-0.565142383159	-0.231549697808	0.9091796875	0.22412109375	0.2392578125	-1.625	0.6875	0.0625
18	12	13	20	17	20	0.10894464818	-0.565169435376	-0.231560781622	0.9111328125	0.2255859375	0.24072265625	0.25	0.1875	0.25
18	12	13	20	17	20	0.108882799517	-0.565165203771	-0.231620080811	0.90478515625	0.23974609375	0.2373046875	0.8125	-0.0625	0.4375
18	12	13	20	17	20	0.108759285063	-0.565279740882	-0.231433899528	0.8994140625	0.24072265625	0.23828125	-1.5	-0.5625	0.625
18	12	13	20	17	20	0.108454909682	-0.565588997201	-0.231008347297	0.908203125	0.2392578125	0.240234375	-3.375	-1.0	0.8125
18	12	13	20	17	20	0.108089558271	-0.565898579497	-0.230399820708	0.91064453125	0.23291015625	0.2451171875	-4.125	-1.5	0.875
18	12	13	20	17	21	0.107722625558	-0.566199885156	-0.229848956289	0.9140625	0.234375	0.24609375	-4.125	-1.625	0.6875
18	12	13	20	17	21	0.107355564488	-0.566561515147	-0.229358846701	0.91259765625	0.23388671875	0.24169921875	-3.8125	-1.6875	0.625
18	12	13	20	17	21	0.10705241428	-0.566938355898	-0.228935921302	0.91259765625	0.23193359375	0.2421875	-3.0625	-1.875	0.6875
18	12	13	20	17	21	0.106927313382	-0.567227426126	-0.228563235511	0.90869140625	0.228515625	0.24365234375	-2.0625	-1.75	0.875
18	12	13	20	17	21	0.106988953094	-0.567535809938	-0.228381438949	0.90771484375	0.22607421875	0.2470703125	-0.375	-1.9375	1.125
18	12	13	20	17	21	0.107048318875	-0.567771100622	-0.228438915364	0.9130859375	0.2255859375	0.25341796875	0.75	-2.25	0.5
18	12	13	20	17	21	0.107298144077	-0.567984373596	-0.228695191045	0.91357421875	0.22509765625	0.25146484375	2.125	-2.3125	0.3125
18	12	13	20	17	21	0.107660475034	-0.568147030662	-0.229053153515	0.90380859375	0.22607421875	0.25244140625	3.3125	-2.375	0.5625
18	12	13	20	17	21	0.107907158887	-0.568404621444	-0.229485813017	0.9033203125	0.232421875	0.24365234375	3.125	-2.4375	0.5625
18	12	13	20	17	21	0.108091250596	-0.568715004546	-0.22985412182	0.908203125	0.22802734375	0.236328125	2.3125	-2.375	0.4375
18	12	13	20	17	21	0.108271769166	-0.568945564919	-0.230092767619	0.9140625	0.22998046875	0.2431640625	1.875	-1.9375	0.3125
18	12	13	20	17	21	0.108270360433	-0.568877130553	-0.230089773864	0.91259765625	0.23388671875	0.25	0.8125	-0.8125	0.25
18	12	13	20	17	21	0.108270360433	-0.568877130553	-0.230089773864	0.9169921875	0.2333984375	0.248046875	-0.75	-0.5	-0.0625
18	12	13	20	17	21	0.108087281227	-0.568877215313	-0.229967744587	0.91064453125	0.2373046875	0.240234375	-1.1875	-0.125	0.125
18	12	13	20	17	21	0.107908735823	-0.568901202831	-0.229672269741	0.91015625	0.23046875	0.2392578125	-2.125	0.3125	0.25
18	12	13	20	17	21	0.107662563032	-0.568890447859	-0.229240695436	0.912109375	0.22900390625	0.23828125	-3.125	0.5	-0.0625
18	12	13	20	17	21	0.107352412684	-0.568864035601	-0.228741809402	0.90625	0.2265625	0.2431640625	-3.5625	0.5625	-0.0625
18	12	13	20	17	21	0.107049588657	-0.568815374165	-0.228319561668	0.91162109375	0.2294921875	0.23974609375	-3.0	0.8125	-0.0625
18	12	13	20	17	21	0.106684160092	-0.568819434815	-0.227832934567	0.91015625	0.228515625	0.23486328125	-3.6875	0.6875	-0.125
18	12	13	20	17	21	0.106317207753	-0.568815370986	-0.22740408501	0.90966796875	0.2294921875	0.24169921875	-3.625	0.375	-0.0625
18	12	13	20	17	21	0.106013344328	-0.568944384469	-0.226979635898	0.91259765625	0.22705078125	0.2373046875	-3.375	0.0625	-0.25
18	12	13	20	17	21	0.105588816218	-0.569019961621	-0.226497165888	0.90771484375	0.22802734375	0.24169921875	-3.5625	-0.3125	-0.3125
18	12	13	20	17	21	0.105220850175	-0.569193531748	-0.22606614214	0.9091796875	0.22509765625	0.23681640625	-3.625	-0.5625	-0.0625
18	12	13	20	17	21	0.104731379323	-0.569431100867	-0.225514246271	0.91015625	0.23095703125	0.240234375	-4.25	-1.0	0.0625
18	12	13	20	17	21	0.104122616546	-0.569622731666	-0.22484625988	0.91015625	0.23388671875	0.2431640625	-5.4375	-1.25	-0.0625
18	12	13	20	17	21	0.103448998552	-0.569915485828	-0.224047949076	0.9091796875	0.22607421875	0.2431640625	-6.25	-1.5	0.125
18	12	13	20	17	21	0.102779427774	-0.570291551737	-0.223136334883	0.91064453125	0.228515625	0.2421875	-6.5625	-1.5	0.4375
18	12	13	20	17	21	0.102165251929	-0.570575233147	-0.222151443861	0.9091796875	0.22265625	0.2470703125	-6.6875	-1.4375	0.625
18	12	13	20	17	21	0.101559323902	-0.570904997466	-0.221245522324	0.9150390625	0.22265625	0.24365234375	-6.5	-1.25	0.5625
18	12	13	20	17	21	0.101007476871	-0.571134724207	-0.220324466167	0.91162109375	0.21875	0.24462890625	-6.125	-1.0625	0.5625
18	12	13	20	17	21	0.100522918758	-0.571338823617	-0.219478090987	0.9150390625	0.22265625	0.2470703125	-5.6875	-0.75	0.5625
18	12	13	20	17	21	0.100032098174	-0.571507362597	-0.218679077337	0.9130859375	0.22119140625	0.24560546875	-5.375	-0.5625	0.5
18	12	13	20	17	21	0.0996642111183	-0.571619719127	-0.217942987081	0.91943359375	0.2197265625	0.2529296875	-4.8125	-0.4375	0.4375
18	12	13	20	17	21	0.0992366668696	-0.571678879808	-0.217331962314	0.9091796875	0.22265625	0.2509765625	-4.4375	-0.25	0.3125
18	12	13	20	17	21	0.0988716630053	-0.571624688708	-0.216724244032	0.91015625	0.22412109375	0.25341796875	-4.1875	0.125	0.375
18	12	13	20	17	21	0.0985683202577	-0.571635224479	-0.216117908379	0.90771484375	0.21533203125	0.24853515625	-3.875	0.25	0.375
18	12	13	20	17	21	0.0983227839827	-0.571566028552	-0.215565532605	0.91455078125	0.22021484375	0.255859375	-3.375	0.3125	0.1875
18	12	13	20	17	21	0.0980780480422	-0.571562489058	-0.215259038858	0.9111328125	0.22314453125	0.25	-2.5	0.3125	0.1875
18	12	13	20	17	21	0.0978958756777	-0.57150684529	-0.215016938911	0.91259765625	0.22314453125	0.25	-1.8125	0.3125	0.25
18	12	13	20	17	21	0.0978345851389	-0.571505337019	-0.214833274915	0.91357421875	0.22216796875	0.2470703125	-1.3125	0.25	0.375
18	12	13	20	17	21	0.0978345851389	-0.571505337019	-0.214833274915	0.91455078125	0.22216796875	0.244140625	-1.0	0.3125	0.375
18	12	13	20	17	21	0.0978345851389	-0.571505337019	-0.214833274915	0.91015625	0.22119140625	0.24560546875	-1.0	0.25	0.3125
18	12	13	20	17	21	0.0978345851389	-0.571505337019	-0.214833274915	0.9052734375	0.21923828125	0.24951171875	-0.75	0.0625	0.75
18	12	13	20	17	21	0.0977128418031	-0.571507214643	-0.214650883586	0.91015625	0.2197265625	0.24853515625	-1.25	-0.375	0.0625
18	12	13	20	17	21	0.0975331934075	-0.571649492775	-0.214475370234	0.91552734375	0.21875	0.24560546875	-1.4375	-0.6875	-0.0625
18	12	13	20	17	21	0.0975285149349	-0.57162207189	-0.214465082279	0.9111328125	0.220703125	0.25048828125	-0.875	-0.9375	0.1875
18	12	13	20	17	21	0.0974650867209	-0.571791106755	-0.214337748631	0.9111328125	0.2177734375	0.24755859375	-1.0625	-1.0	0.3125
18	12	13	20	17	21	0.097347147019	-0.571998408691	-0.214163723442	0.91259765625	0.22216796875	0.24072265625	-1.25	-0.875	0.5
18	12	13	20	17	21	0.0972232580132	-0.572109743011	-0.213976611798	0.91845703125	0.2216796875	0.24951171875	-1.375	-0.625	0.5
18	12	13	20	17	21	0.0972232580132	-0.572109743011	-0.213976611798	0.916015625	0.21728515625	0.244140625	-0.75	-0.3125	0.5625
18	12	13	20	17	22	0.0972232580132	-0.572109743011	-0.213976611798	0.912109375	0.21728515625	0.24755859375	0.0625	0.0	0.5625
18	12	13	20	17	22	0.0974067457833	-0.572051020193	-0.214038507182	0.90869140625	0.21630859375	0.24853515625	1.0	0.125	0.4375
18	12	13	20	17	22	0.097652811564	-0.572001343736	-0.214225855369	0.90673828125	0.21728515625	0.24658203125	1.5625	0.1875	0.4375
18	12	13	20	17	22	0.0980197736374	-0.571944768839	-0.214410625646	0.9111328125	0.2119140625	0.2470703125	2.3125	0.1875	0.4375
18	12	13	20	17	22	0.0983815671645	-0.571858116831	-0.214828235992	0.90966796875	0.21728515625	0.24658203125	3.25	0.3125	0.5625
18	12	13	20	17	22	0.098747592212	-0.571674101514	-0.215377164967	0.91162109375	0.2177734375	0.2470703125	4.0	0.5625	-0.5
18	12	13	20	17	22	0.0991739872596	-0.571547317346	-0.215985686715	0.91650390625	0.2216796875	0.2451171875	4.125	0.375	-0.125
18	12	13	20	17	22	0.0995425232559	-0.571438776974	-0.216479049656	0.91162109375	0.22021484375	0.24169921875	3.5	0.375	0.125
18	12	13	20	17	22	0.099849774055	-0.571389721701	-0.216849784363	0.91748046875	0.22216796875	0.24072265625	2.4375	0.4375	0.125
18	12	13	20	17	22	0.0999714597652	-0.57132651701	-0.216971025315	0.9140625	0.2236328125	0.24609375	1.125	0.5	0.0
18	12	13	20	17	22	0.0999701357519	-0.571318950411	-0.217029183598	0.90478515625	0.22021484375	0.24560546875	0.5	0.75	0.1875
18	12	13	20	17	22	0.0999097133239	-0.571322435202	-0.217030507379	0.90966796875	0.2216796875	0.24365234375	-0.0625	0.8125	0.0625
18	12	13	20	17	22	0.0999097133239	-0.571322435202	-0.217030507379	0.9150390625	0.2177734375	0.24755859375	-0.25	0.875	-0.25
18	12	13	20	17	22	0.0999131970784	-0.57128132233	-0.217038075022	0.9130859375	0.2216796875	0.24853515625	-0.125	0.875	-0.5
18	12	13	20	17	22	0.0999131970784	-0.57128132233	-0.217038075022	0.919921875	0.2216796875	0.2451171875	-0.0625	0.9375	-0.5625
18	12	13	20	17	22	0.0996023615176	-0.571126776398	-0.217086764656	0.9150390625	0.23193359375	0.24365234375	-1.125	1.0625	-1.125
18	12	13	20	17	22	0.0991746346241	-0.571001773257	-0.216963585285	0.9111328125	0.2294921875	0.23681640625	-2.5	1.1875	-1.3125
18	12	13	20	17	22	0.0983834540542	-0.570831542041	-0.21660228191	0.90478515625	0.236328125	0.24169921875	-4.8125	1.1875	-1.5625
18	12	13	20	17	22	0.0975300529164	-0.57071559751	-0.215933246069	0.90283203125	0.2294921875	0.244140625	-6.6875	1.0	-1.5
18	12	13	20	17	22	0.0965526556172	-0.570710418885	-0.215076838429	0.90234375	0.224609375	0.24853515625	-7.4375	0.25	-1.25
18	12	13	20	17	22	0.0956973104791	-0.570766101786	-0.214220382514	0.90234375	0.2216796875	0.25634765625	-6.875	-0.375	-1.1875
18	12	13	20	17	22	0.094964899145	-0.570887960542	-0.213548960224	0.90673828125	0.2216796875	0.251953125	-5.8125	-0.8125	-0.875
18	12	13	20	17	22	0.0943575096541	-0.570966690048	-0.213067313197	0.90625	0.2236328125	0.25830078125	-4.375	-0.9375	-0.75
18	12	13	20	17	22	0.0940512837951	-0.57102129214	-0.212637685102	0.91162109375	0.212890625	0.25830078125	-2.9375	-0.75	-0.5625
18	12	13	20	17	22	0.0938668885267	-0.571074431693	-0.212390619033	0.91796875	0.21630859375	0.25732421875	-1.4375	-0.4375	-0.4375
18	12	13	20	17	22	0.0938668885267	-0.571074431693	-0.212390619033	0.9111328125	0.21435546875	0.2568359375	-0.0625	0.125	-0.25
18	12	13	20	17	22	0.0938668885267	-0.571074431693	-0.212390619033	0.91357421875	0.2177734375	0.2470703125	0.9375	0.5625	0.0625
18	12	13	20	17	22	0.0941722230277	-0.570892400649	-0.212513078796	0.91015625	0.21533203125	0.25244140625	1.5625	0.875	0.25
18	12	13	20	17	22	0.094479632777	-0.570722897996	-0.212762273812	0.91162109375	0.21728515625	0.2509765625	2.25	1.0625	0.25
18	12	13	20	17	22	0.0949055419451	-0.570531836722	-0.213125499982	0.908203125	0.2177734375	0.2509765625	3.3125	1.0	0.3125
18	12	13	20	17	22	0.095334745011	-0.57036055834	-0.213557152877	0.904296875	0.21923828125	0.25341796875	3.625	0.875	0.3125
18	12	13	20	17	22	0.0956988709076	-0.570226116639	-0.214040778235	0.904296875	0.22802734375	0.24853515625	3.25	0.5625	0.5
18	12	13	20	17	22	0.0959411787898	-0.570154257159	-0.214402901456	0.912109375	0.2236328125	0.248046875	2.375	0.125	0.0
18	12	13	20	17	22	0.0960629583254	-0.570152577304	-0.21458536307	0.9130859375	0.2236328125	0.24658203125	1.3125	0.0625	0.0625
18	12	13	20	17	22	0.0960663151629	-0.570172500795	-0.214653894808	0.9052734375	0.23193359375	0.2392578125	0.5	0.0	0.375
18	12	13	20	17	22	0.0960663151629	-0.570172500795	-0.214653894808	0.90625	0.2314453125	0.234375	-0.9375	0.0	0.375
18	12	13	20	17	22	0.0958840751722	-0.570238646934	-0.214533751897	0.91064453125	0.2294921875	0.2470703125	-1.4375	-0.0625	0.4375
18	12	13	20	17	22	0.0958840751722	-0.570238646934	-0.214533751897	0.91064453125	0.22021484375	0.244140625	-0.75	0.0	0.375
18	12	13	20	17	22	0.0958840751722	-0.570238646934	-0.214533751897	0.91064453125	0.22119140625	0.25341796875	0.3125	-0.125	0.0625
18	12	13	20	17	22	0.0958840751722	-0.570238646934	-0.214533751897	0.91259765625	0.22314453125	0.24462890625	0.8125	-0.25	-0.125
18	12	13	20	17	22	0.0958840751722	-0.570238646934	-0.214533751897	0.904296875	0.22705078125	0.2470703125	0.25	-0.4375	0.125
18	12	13	20	17	22	0.0957589684492	-0.57034261323	-0.214404879644	0.90625	0.2265625	0.25	-1.125	-0.6875	0.4375
18	12	13	20	17	22	0.0955145724457	-0.57046307262	-0.213977054949	0.90380859375	0.2216796875	0.25244140625	-2.9375	-0.6875	0.5625
18	12	13	20	17	22	0.0952108966839	-0.57053298859	-0.2134310934	0.90625	0.22265625	0.25634765625	-3.5	-0.625	0.6875
18	12	13	20	17	22	0.0949038670118	-0.570643830586	-0.21287761295	0.91015625	0.21875	0.2578125	-3.6875	-0.6875	0.4375
18	12	13	20	17	22	0.0946606155727	-0.570771164949	-0.212391323142	0.91259765625	0.2197265625	0.25244140625	-3.3125	-0.5	0.3125
18	12	13	20	17	22	0.0943555926973	-0.570833026195	-0.211903375061	0.912109375	0.21630859375	0.25390625	-3.125	-0.375	0.25
18	12	13	20	17	22	0.0941747996232	-0.570846986958	-0.211420288979	0.9091796875	0.2216796875	0.2568359375	-3.0625	0.0625	0.5625
18	12	13	20	17	22	0.0939277480032	-0.570829257358	-0.210986500875	0.91357421875	0.22265625	0.25439453125	-3.0625	0.5	0.75
18	12	13	20	17	22	0.0938699094116	-0.570726607872	-0.210505408037	0.90576171875	0.2158203125	0.2568359375	-2.4375	0.75	0.75
18	12	13	20	17	23	0.0938071838478	-0.570533217052	-0.210196448388	0.90771484375	0.21435546875	0.26123046875	-1.6875	0.875	0.375
18	12	13	20	17	23	0.0937432887371	-0.570393734725	-0.210006937854	0.90673828125	0.22119140625	0.25634765625	-1.0	1.0	0.25
18	12	13	20	17	23	0.0937420870884	-0.57038642313	-0.210065275884	0.91357421875	0.22021484375	0.25341796875	-0.4375	0.9375	0.3125
18	12	13	20	17	23	0.0937453503105	-0.570345246518	-0.210072588391	0.90966796875	0.22265625	0.2578125	-0.4375	0.875	0.1875
18	12	13	20	17	23	0.0937453503105	-0.570345246518	-0.210072588391	0.9130859375	0.22021484375	0.25390625	-0.6875	0.9375	0.1875
18	12	13	20	17	23	0.0937453503105	-0.570345246518	-0.210072588391	0.912109375	0.2216796875	0.25390625	-0.4375	0.9375	-0.0625
18	12	13	20	17	23	0.0937453503105	-0.570345246518	-0.210072588391	0.91015625	0.2138671875	0.2568359375	0.25	0.875	0.0625
18	12	13	20	17	23	0.0937453503105	-0.570345246518	-0.210072588391	0.90966796875	0.21728515625	0.2529296875	0.9375	0.5625	0.125
18	12	13	20	17	23	0.093927693074	-0.57027963878	-0.210192966177	0.908203125	0.21484375	0.25732421875	1.5625	0.25	0.1875
18	12	13	20	17	23	0.0942364462871	-0.570240361179	-0.210506154951	0.9072265625	0.2158203125	0.25390625	2.375	-0.125	0.25
18	12	13	20	17	23	0.0945419547502	-0.570303437822	-0.210873114049	0.91064453125	0.21728515625	0.25	2.6875	-0.5625	0.375
18	12	13	20	17	23	0.0947836171066	-0.570349582653	-0.211172772176	0.9111328125	0.21923828125	0.2529296875	2.5	-0.75	0.375
18	12	13	20	17	23	0.0950894810487	-0.570536886292	-0.211418461074	0.912109375	0.21337890625	0.24658203125	2.0	-0.75	0.5
18	12	13	20	17	23	0.0952743046519	-0.570608247399	-0.211544356133	0.9130859375	0.21728515625	0.2529296875	1.375	-0.75	0.5
18	12	13	20	17	23	0.0952743046519	-0.570608247399	-0.211544356133	0.9140625	0.21728515625	0.2548828125	0.125	-0.8125	0.625
18	12	13	20	17	23	0.0952743046519	-0.570608247399	-0.211544356133	0.91064453125	0.21826171875	0.25830078125	-0.875	-0.6875	0.4375
18	12	13	20	17	23	0.0952725855012	-0.570720017311	-0.211296406794	0.9130859375	0.212890625	0.255859375	-1.1875	-0.6875	0.5
18	12	13	20	17	23	0.0952713231701	-0.570651423216	-0.211293607185	0.90576171875	0.216796875	0.2626953125	-0.8125	-0.6875	0.6875
18	12	13	20	17	23	0.0952713231701	-0.570651423216	-0.211293607185	0.90966796875	0.21533203125	0.25537109375	0.125	-0.875	0.8125
18	12	13	20	17	23	0.0953902512665	-0.57081575182	-0.211347690426	0.91650390625	0.2138671875	0.25341796875	0.8125	-1.0625	0.25
18	12	13	20	17	23	0.0955759252406	-0.570831180572	-0.21159753053	0.912109375	0.21533203125	0.259765625	2.0625	-1.0	0.1875
18	12	13	20	17	23	0.0959451711455	-0.57091038861	-0.212031504173	0.91162109375	0.21875	0.2548828125	3.25	-1.0625	0.3125
18	12	13	20	17	23	0.0963064418886	-0.571064243822	-0.212508891417	0.91552734375	0.2216796875	0.24462890625	3.5625	-0.9375	0.625
18	12	13	20	17	23	0.0966743541533	-0.571074451902	-0.212939912652	0.91162109375	0.22412109375	0.24951171875	3.25	-0.6875	0.625
18	12	13	20	17	23	0.0970435224073	-0.57115300798	-0.213373681972	0.9140625	0.2177734375	0.248046875	3.4375	-0.5	0.5625
18	12	13	20	17	23	0.0974692980921	-0.571083420318	-0.213858747974	0.91259765625	0.22021484375	0.2529296875	3.5625	-0.375	0.375
18	12	13	20	17	23	0.0977728427775	-0.571012931977	-0.214404492308	0.90966796875	0.2216796875	0.25048828125	3.6875	-0.25	-0.0625
18	12	13	20	17	23	0.0980171803896	-0.571014159231	-0.214954239933	0.9140625	0.2275390625	0.24267578125	3.4375	-0.3125	-0.25
18	12	13	20	17	23	0.0982010370191	-0.571018584432	-0.215505196839	0.9130859375	0.2236328125	0.24267578125	3.125	-0.5	-0.5625
18	12	13	20	17	23	0.0985044430105	-0.571008406943	-0.21611166834	0.9150390625	0.2197265625	0.2490234375	3.6875	-0.75	-0.6875
18	12	13	20	17	23	0.0988716414605	-0.571075277251	-0.216846260561	0.91650390625	0.21728515625	0.24658203125	5.125	-1.125	-0.625
18	12	13	20	17	23	0.099363874234	-0.571159173883	-0.217831490873	0.916015625	0.22314453125	0.24609375	6.4375	-1.5625	-0.8125
18	12	13	20	17	23	0.0998485252847	-0.571260511409	-0.21898319604	0.91015625	0.22412109375	0.2373046875	6.9375	-1.6875	-1.0625
18	12	13	20	17	23	0.100093981034	-0.571390152709	-0.22002365953	0.91552734375	0.22998046875	0.23291015625	5.875	-1.625	-1.5625
18	12	13	20	17	23	0.100092095763	-0.571501454098	-0.220873960101	0.9150390625	0.23583984375	0.23681640625	3.6875	-1.375	-1.875
18	12	13	20	17	23	0.0997852184512	-0.571613673403	-0.221419432747	0.91015625	0.234375	0.23583984375	1.4375	-1.5625	-2.125
18	12	13	20	17	23	0.0994232659757	-0.571760071001	-0.221734024119	0.9169921875	0.2333984375	0.24462890625	0.0	-2.0625	-2.25
18	12	13	20	17	23	0.0989314220747	-0.571983521088	-0.221909099731	0.91015625	0.2294921875	0.2470703125	-0.375	-2.875	-2.1875
18	12	13	20	17	23	0.0983851118144	-0.572305951293	-0.222098896956	0.90673828125	0.2294921875	0.248046875	-0.8125	-3.625	-2.375
18	12	13	20	17	23	0.0977713627372	-0.572774181828	-0.222335252467	0.9033203125	0.232421875	0.2353515625	-1.1875	-4.25	-2.375
18	12	13	20	17	23	0.0971010068378	-0.573329263503	-0.222459566263	0.9052734375	0.232421875	0.23095703125	-1.5625	-4.4375	-2.1875
18	12	13	20	17	23	0.0963668765653	-0.573807076293	-0.222455519367	0.91259765625	0.23486328125	0.23876953125	-2.3125	-3.9375	-2.1875
18	12	13	20	17	23	0.0956953878083	-0.574111296628	-0.222394128299	0.91259765625	0.23193359375	0.23974609375	-2.5	-3.0625	-2.25
18	12	13	20	17	23	0.0950877440437	-0.574310443807	-0.222278282289	0.9111328125	0.23193359375	0.23779296875	-2.5625	-1.8125	-2.0625
18	12	13	20	17	23	0.0944797438153	-0.574263507466	-0.222161671504	0.9130859375	0.23583984375	0.2412109375	-2.75	-0.625	-2.25
18	12	13	20	17	23	0.0938067767641	-0.574131651932	-0.221974786657	0.9169921875	0.23193359375	0.2353515625	-3.25	0.375	-2.9375
18	12	13	20	17	23	0.0931962850598	-0.573947521089	-0.221852322326	0.91650390625	0.23193359375	0.236328125	-2.9375	1.125	-2.9375
18	12	13	20	17	23	0.0927075739546	-0.57363955734	-0.221790206551	0.9091796875	0.22705078125	0.23046875	-2.0625	1.875	-2.8125
18	12	13	20	17	23	0.0922825030009	-0.573347773274	-0.22179538089	0.90283203125	0.23291015625	0.2314453125	-1.4375	2.125	-2.625
18	12	13	20	17	23	0.091912260712	-0.573017407587	-0.221846658492	0.900390625	0.2353515625	0.2294921875	-1.375	2.0	-2.3125
18	12	13	20	17	24	0.0915500590431	-0.572798202746	-0.221795276375	0.90087890625	0.2373046875	0.2294921875	-1.75	1.6875	-1.5
18	12	13	20	17	24	0.0910596617167	-0.572723770475	-0.221606991751	0.8994140625	0.24365234375	0.23046875	-3.125	0.875	-0.8125
18	12	13	20	17	24	0.0905141194181	-0.572747469062	-0.221005816866	0.89990234375	0.24267578125	0.234375	-5.125	0.0	-0.1875
18	12	13	20	17	24	0.0897166327657	-0.573026846964	-0.220080393029	0.90234375	0.2373046875	0.2294921875	-7.25	-0.75	0.1875
18	12	13	20	17	24	0.088801994946	-0.573398448466	-0.218800791671	0.89599609375	0.23779296875	0.23095703125	-9.3125	-1.3125	1.0
18	12	13	20	17	24	0.0878856156041	-0.573880863559	-0.21727277191	0.9033203125	0.2373046875	0.23779296875	-10.4375	-1.8125	1.6875
18	12	13	20	17	24	0.0868501287799	-0.574321652719	-0.215568977407	0.9111328125	0.23095703125	0.24462890625	-11.6875	-2.0	1.375
18	12	13	20	17	24	0.0858101339168	-0.574671565406	-0.213792958116	0.9189453125	0.22802734375	0.25	-11.875	-1.4375	1.25
18	12	13	20	17	24	0.0848352647697	-0.574926758368	-0.212088161924	0.91357421875	0.23046875	0.25048828125	-11.625	-0.625	1.3125
18	12	13	20	17	24	0.0839195368512	-0.5750471827	-0.210317617447	0.90869140625	0.2275390625	0.24951171875	-11.4375	0.25	1.6875
18	12	13	20	17	24	0.0831860645781	-0.574978660594	-0.208544961602	0.90576171875	0.22265625	0.26318359375	-10.8125	0.75	2.0625
18	12	13	20	17	24	0.0826984761053	-0.574861215082	-0.206959802563	0.91064453125	0.21826171875	0.26416015625	-9.0625	1.3125	2.25
18	12	13	20	17	24	0.0824537496227	-0.574673949998	-0.205737668378	0.91162109375	0.21826171875	0.2607421875	-6.4375	1.75	2.1875
18	12	13	20	17	24	0.0825155286122	-0.574373993912	-0.204885081029	0.9140625	0.216796875	0.263671875	-3.875	2.125	2.1875
18	12	13	20	17	24	0.0827012643601	-0.574087153189	-0.204342312234	0.91015625	0.2216796875	0.2548828125	-1.875	2.5625	2.1875
18	12	13	20	17	24	0.0831858997351	-0.573756891717	-0.204028219233	0.9072265625	0.216796875	0.25	-0.1875	3.0	2.5625
18	12	13	20	17	24	0.0838560327945	-0.573321377053	-0.203842175789	0.90380859375	0.21728515625	0.255859375	1.375	3.5	3.0625
18	12	13	20	17	24	0.0848360227279	-0.572917802407	-0.203972653206	0.90771484375	0.21533203125	0.24853515625	3.6875	3.5625	3.125
18	12	13	20	17	24	0.0859328794411	-0.572478983777	-0.204334716171	0.9150390625	0.21484375	0.25439453125	5.25	3.25	3.125
18	12	13	20	17	24	0.0870327961413	-0.572182653454	-0.204887164549	0.91650390625	0.22021484375	0.2490234375	6.3125	2.75	2.875
18	12	13	20	17	24	0.0880073085285	-0.571925442594	-0.205492793214	0.9111328125	0.22412109375	0.2451171875	6.0625	2.1875	2.75
18	12	13	20	17	24	0.0889257016964	-0.571822168287	-0.205987812783	0.90966796875	0.2265625	0.2412109375	4.9375	1.5	3.0
18	12	13	20	17	24	0.089656363473	-0.571811075138	-0.20622794566	0.908203125	0.22509765625	0.24169921875	3.25	0.875	3.1875
18	12	13	20	17	24	0.0901430526725	-0.57192318659	-0.206224356791	0.91748046875	0.22119140625	0.2490234375	1.5	0.1875	2.6875
18	12	13	20	17	24	0.0905131952115	-0.572070248629	-0.205989233876	0.91357421875	0.21728515625	0.25244140625	0.0625	-0.3125	2.6875
18	12	13	20	17	24	0.0907579143055	-0.572195996378	-0.205746421738	0.9111328125	0.216796875	0.25537109375	-0.1875	-0.6875	2.4375
18	12	13	20	17	24	0.0910632122049	-0.572379895481	-0.205563605031	0.91650390625	0.21337890625	0.25146484375	-0.125	-0.6875	2.125
18	12	13	20	17	24	0.0912430522199	-0.572542523662	-0.205373157672	0.91357421875	0.21435546875	0.25537109375	-0.125	-0.6875	1.6875
18	12	13	20	17	24	0.0914248612036	-0.572595492532	-0.205187171807	0.9169921875	0.21142578125	0.25830078125	0.0	-0.5	1.4375
18	12	13	20	17	24	0.0916713487485	-0.572610248974	-0.205192459715	0.919921875	0.212890625	0.2626953125	0.6875	-0.375	1.1875
18	12	13	20	17	24	0.0920376663894	-0.572549965782	-0.205192728383	0.91845703125	0.205078125	0.25927734375	1.75	0.0	1.0
18	12	13	20	17	24	0.0925850682216	-0.572416186454	-0.205615751377	0.91748046875	0.20849609375	0.2607421875	3.75	0.375	0.75
18	12	13	20	17	24	0.0933226151925	-0.572264774392	-0.206237486419	0.9208984375	0.20458984375	0.25830078125	5.875	0.5625	0.5
18	12	13	20	17	24	0.0941739559359	-0.572001500344	-0.207146083245	0.91650390625	0.20947265625	0.2568359375	7.3125	1.0	0.3125
18	12	13	20	17	24	0.0951503558353	-0.571756596193	-0.20830542942	0.91259765625	0.21142578125	0.24755859375	8.5625	1.1875	0.5
18	12	13	20	17	24	0.0961857591154	-0.571499649972	-0.209521390256	0.91552734375	0.21240234375	0.24609375	9.25	1.125	0.4375
18	12	13	20	17	24	0.0972847606462	-0.571319099378	-0.21086502386	0.91845703125	0.21337890625	0.24267578125	10.0	0.875	0.3125
18	12	13	20	17	24	0.09844735219	-0.571153330312	-0.212275195857	0.9130859375	0.2158203125	0.23974609375	10.5	0.5625	0.5625
18	12	13	20	17	24	0.0995435914945	-0.571078715889	-0.213612857284	0.9091796875	0.2138671875	0.2373046875	10.3125	0.1875	0.6875
18	12	13	20	17	24	0.100703829842	-0.571143296767	-0.214895869621	0.9111328125	0.21240234375	0.23095703125	9.8125	-0.3125	0.9375
18	12	13	20	17	24	0.101680339898	-0.571265294985	-0.216116496746	0.9169921875	0.21240234375	0.2294921875	8.9375	-0.8125	0.6875
18	12	13	20	17	24	0.102414144735	-0.571456279588	-0.21721808171	0.90673828125	0.2158203125	0.2294921875	7.6875	-1.3125	0.5
18	12	13	20	17	24	0.1031411154	-0.571731342642	-0.218061068239	0.908203125	0.21484375	0.2314453125	6.5	-1.875	1.0
18	12	13	20	17	24	0.10350890786	-0.572106428233	-0.218613742899	0.912109375	0.21044921875	0.23095703125	3.875	-2.4375	0.0
18	12	13	20	17	24	0.103695185503	-0.572612260383	-0.218864588119	0.9130859375	0.21240234375	0.228515625	1.9375	-3.0625	0.5625
18	12	13	20	17	24	0.103812978618	-0.573198997753	-0.218916610407	0.91015625	0.216796875	0.23046875	0.6875	-3.4375	1.375
18	12	13	20	17	24	0.103692053589	-0.573754559028	-0.218796946507	0.9140625	0.2236328125	0.236328125	-1.0625	-3.75	1.5625
18	12	13	20	17	24	0.103572103146	-0.574437616268	-0.218313148469	0.91552734375	0.21875	0.23486328125	-2.75	-3.6875	2.125
18	12	13	20	17	24	0.103445889609	-0.574963850154	-0.217755123378	0.91455078125	0.21044921875	0.232421875	-2.875	-2.75	1.8125
18	12	13	20	17	24	0.10326615012	-0.575226634092	-0.217273932877	0.9150390625	0.20751953125	0.2373046875	-2.625	-1.25	0.5625
18	12	13	20	17	25	0.103022497188	-0.575168254445	-0.217091837973	0.91796875	0.21044921875	0.24169921875	-1.625	0.0625	-0.6875
18	12	13	20	17	25	0.10253332056	-0.574980007736	-0.216967830114	0.92529296875	0.22021484375	0.2392578125	-2.375	0.9375	-1.9375
18	12	13	20	17	25	0.101560151664	-0.574754776576	-0.216608760971	0.93017578125	0.232421875	0.23583984375	-5.5625	1.9375	-3.0
18	12	13	20	17	25	0.100033575252	-0.574506433096	-0.215569608169	0.93017578125	0.24169921875	0.23486328125	-11.0	2.25	-2.625
18	12	13	20	17	25	0.0980162550489	-0.574304458288	-0.213792616087	0.921875	0.23876953125	0.24365234375	-15.875	2.375	-2.5
18	12	13	20	17	25	0.0957571411721	-0.574176662936	-0.211593376956	0.92138671875	0.2294921875	0.24560546875	-18.75	2.25	-2.8125
18	12	13	20	17	25	0.093500313481	-0.573940566563	-0.209338169217	0.916015625	0.220703125	0.2578125	-18.75	2.0625	-3.3125
18	12	13	20	17	25	0.0913644239443	-0.573819848981	-0.207385646334	0.912109375	0.2177734375	0.25341796875	-17.0	1.625	-3.625
18	12	13	20	17	25	0.0894131695708	-0.573587008619	-0.205802872214	0.90576171875	0.22021484375	0.26416015625	-14.25	0.9375	-3.75
18	12	13	20	17	25	0.0877034976881	-0.57352106317	-0.204641494606	0.90234375	0.22265625	0.2587890625	-11.5	0.125	-3.625
18	12	13	20	17	25	0.0863598751351	-0.573453983583	-0.203784892633	0.9033203125	0.22216796875	0.2607421875	-8.6875	-0.5	-3.125
18	12	13	20	17	25	0.0853219821149	-0.573451605115	-0.203295795726	0.90380859375	0.212890625	0.26318359375	-5.75	-0.9375	-3.0625
18	12	13	20	17	25	0.0846515760015	-0.573519004821	-0.203114956693	0.9091796875	0.2119140625	0.25927734375	-3.0	-1.125	-2.875
18	12	13	20	17	25	0.0842241921292	-0.573456890758	-0.203236637529	0.912109375	0.21240234375	0.263671875	-0.6875	-1.0625	-2.75
18	12	13	20	17	25	0.0841018226434	-0.573454808097	-0.203541058429	0.9140625	0.2099609375	0.25634765625	1.25	-0.6875	-2.25
18	12	13	20	17	25	0.0842245916638	-0.573337546442	-0.20403102169	0.91064453125	0.20947265625	0.2607421875	2.875	-0.375	-1.6875
18	12	13	20	17	25	0.08446853512	-0.573214220988	-0.204518830337	0.9111328125	0.20849609375	0.2578125	3.6875	0.0	-1.375
18	12	13	20	17	25	0.084895072735	-0.57302648304	-0.205127490627	0.9130859375	0.20947265625	0.2548828125	4.5	0.375	-1.0
18	12	13	20	17	25	0.0853840519886	-0.572787225099	-0.205800588496	0.91259765625	0.2099609375	0.26025390625	4.875	0.5625	-0.8125
18	12	13	20	17	25	0.0857540198071	-0.572629333687	-0.206419996432	0.9111328125	0.220703125	0.25	4.3125	0.6875	-0.5
18	12	13	20	17	25	0.0861159843673	-0.572540077498	-0.206898077254	0.90771484375	0.22265625	0.248046875	3.1875	0.5	0.0
18	12	13	20	17	25	0.0862975100693	-0.572529661924	-0.207138436475	0.9091796875	0.22509765625	0.24609375	1.5625	0.125	0.3125
18	12	13	20	17	25	0.086236933332	-0.572532676283	-0.207139527055	0.9111328125	0.22705078125	0.24755859375	0.125	-0.25	0.5625
18	12	13	20	17	25	0.086235842989	-0.572525437423	-0.207197938392	0.9052734375	0.23046875	0.2490234375	-0.875	-0.75	0.8125
18	12	13	20	17	25	0.0860524917656	-0.572706796261	-0.207014221325	0.90625	0.23388671875	0.24951171875	-1.5625	-1.25	0.875
18	12	13	20	17	25	0.0857532248523	-0.572990231255	-0.206845323149	0.9052734375	0.236328125	0.24462890625	-2.125	-1.75	0.5625
18	12	13	20	17	25	0.0854426867123	-0.573259397349	-0.206649240863	0.908203125	0.2333984375	0.2529296875	-2.0625	-2.125	0.5
18	12	13	20	17	25	0.0851392858905	-0.573576350393	-0.206531428999	0.9072265625	0.23291015625	0.24951171875	-1.8125	-2.4375	0.3125
18	12	13	20	17	25	0.0848356547277	-0.573891842737	-0.206657213603	0.91162109375	0.236328125	0.2509765625	-0.625	-2.75	-0.1875
18	12	13	20	17	25	0.0847146095731	-0.574142890673	-0.206903837502	0.91357421875	0.22607421875	0.25732421875	0.875	-2.875	-0.8125
18	12	13	20	17	25	0.0847123774754	-0.574371890793	-0.207508705631	0.908203125	0.236328125	0.25	2.9375	-2.625	-0.5
18	12	13	20	17	25	0.08495626217	-0.574492310206	-0.208240493193	0.904296875	0.2353515625	0.2470703125	4.125	-2.25	-0.1875
18	12	13	20	17	25	0.085260673564	-0.574609335437	-0.208971042436	0.90478515625	0.23193359375	0.248046875	4.625	-1.6875	-0.1875
18	12	13	20	17	25	0.0856263891048	-0.574545136873	-0.209702261557	0.90380859375	0.22705078125	0.2548828125	4.75	-1.125	-0.375
18	12	13	20	17	25	0.0861162154849	-0.574433607473	-0.210438491135	0.90673828125	0.22412109375	0.25390625	5.4375	-0.6875	-0.375
18	12	13	20	17	25	0.0866673664671	-0.574262852879	-0.211297480781	0.912109375	0.22509765625	0.25390625	6.0	-0.25	-0.5
18	12	13	20	17	25	0.087214261304	-0.574063920102	-0.212146096776	0.9072265625	0.22802734375	0.24951171875	6.125	0.1875	-0.3125
18	12	13	20	17	25	0.0877058221872	-0.573841433684	-0.212886505072	0.90625	0.22705078125	0.24462890625	5.0	0.625	-0.375
18	12	13	20	17	25	0.0880692786505	-0.573640436615	-0.213368120694	0.91015625	0.22216796875	0.248046875	3.625	0.875	-0.375
18	12	13	20	17	25	0.0885560976847	-0.573387000515	-0.213669812539	0.9072265625	0.21923828125	0.2470703125	3.0625	1.375	0.1875
18	12	13	20	17	25	0.0889865935797	-0.573102958651	-0.213921817899	0.91015625	0.21826171875	0.25048828125	3.0	1.5	0.1875
18	12	13	20	17	25	0.0894721752682	-0.57278060361	-0.214220556065	0.9150390625	0.2197265625	0.25244140625	3.375	1.625	0.1875
18	12	13	20	17	25	0.0899639653213	-0.572497961135	-0.214656218477	0.9150390625	0.22314453125	0.25	3.625	1.5625	0.0
18	12	13	20	17	25	0.0904470609372	-0.572221081881	-0.215132179355	0.9130859375	0.22607421875	0.24853515625	3.8125	1.4375	0.1875
18	12	13	20	17	25	0.0909993061753	-0.571995638816	-0.215627463928	0.90625	0.2294921875	0.24658203125	4.375	1.25	0.5625
18	12	13	20	17	25	0.0916733449154	-0.571768239126	-0.216305149388	0.90478515625	0.2275390625	0.2412109375	5.4375	1.1875	0.8125
18	12	13	20	17	25	0.0925857065771	-0.571504651541	-0.217152237311	0.9072265625	0.22705078125	0.24755859375	6.875	1.125	0.8125
18	12	13	20	17	25	0.0935018410503	-0.5712645119	-0.218252339162	0.91015625	0.22998046875	0.24365234375	8.375	1.125	0.5625
18	12	13	20	17	25	0.0944757419324	-0.571004548785	-0.219466904386	0.9111328125	0.2314453125	0.23876953125	8.9375	1.125	0.4375
18	12	13	20	17	26	0.095394726395	-0.570781497918	-0.220634635904	0.9111328125	0.2373046875	0.234375	8.625	1.1875	0.375
18	12	13	20	17	26	0.0961885607911	-0.570600796216	-0.221612096594	0.912109375	0.2333984375	0.2333984375	7.0625	1.1875	0.4375
18	12	13	20	17	26	0.0967363328975	-0.570469718355	-0.222402017084	0.91064453125	0.2373046875	0.22900390625	5.125	1.0	0.125
18	12	13	20	17	26	0.0970394803938	-0.570335814013	-0.222885649307	0.9150390625	0.234375	0.23681640625	3.1875	0.75	-0.1875
18	12	13	20	17	26	0.0970992995474	-0.57032869533	-0.223126988778	0.91259765625	0.23388671875	0.23486328125	1.5	0.4375	-0.4375
18	12	13	20	17	26	0.0971026263242	-0.5703482357	-0.223195665913	0.91357421875	0.23583984375	0.2353515625	-0.4375	0.0625	-0.4375
18	12	13	20	17	26	0.0967941720933	-0.570511929841	-0.223004984129	0.90966796875	0.23828125	0.23046875	-2.375	-0.5	-0.3125
18	12	13	20	17	26	0.0961886389026	-0.570723326382	-0.222588810963	0.91015625	0.23876953125	0.234375	-4.125	-1.0	-0.4375
18	12	13	20	17	26	0.0955769322304	-0.571020292432	-0.221914256443	0.908203125	0.232421875	0.23779296875	-5.3125	-1.375	-0.5
18	12	13	20	17	26	0.0947849411349	-0.571395118419	-0.221246240576	0.91064453125	0.23291015625	0.23486328125	-6.25	-1.8125	-0.5625
18	12	13	20	17	26	0.0939316102617	-0.571768242321	-0.220394440971	0.90966796875	0.2373046875	0.23974609375	-6.875	-2.0	-0.4375
18	12	13	20	17	26	0.0929493979231	-0.572160607701	-0.219526581963	0.91015625	0.2333984375	0.23974609375	-7.5	-2.125	-0.6875
18	12	13	20	17	26	0.0920340736149	-0.572466585217	-0.218672470664	0.91015625	0.234375	0.24560546875	-7.25	-2.125	-0.8125
18	12	13	20	17	26	0.0911834855157	-0.572795857808	-0.217827215399	0.90625	0.22998046875	0.2490234375	-6.625	-2.1875	-0.5625
18	12	13	20	17	26	0.0905106960167	-0.573091999728	-0.217152431846	0.91552734375	0.224609375	0.2529296875	-5.4375	-2.375	-1.0
18	12	13	20	17	26	0.0898979572213	-0.573320712924	-0.21665834904	0.9169921875	0.2255859375	0.2529296875	-4.0625	-2.25	-1.375
18	12	13	20	17	26	0.0893491898903	-0.573446030197	-0.216537517576	0.912109375	0.2333984375	0.25244140625	-2.5	-1.9375	-1.625
18	12	13	20	17	26	0.0888640469375	-0.573527094143	-0.216423015412	0.90478515625	0.2333984375	0.2490234375	-2.0625	-1.5625	-1.3125
18	12	13	20	17	26	0.0883152223558	-0.573591195369	-0.216241073121	0.90673828125	0.23681640625	0.24560546875	-2.8125	-0.875	-1.25
18	12	13	20	17	26	0.0878250759414	-0.573517886464	-0.215809220659	0.9072265625	0.22998046875	0.2548828125	-3.375	-0.4375	-1.1875
18	12	13	20	17	26	0.0875215568295	-0.57340657351	-0.215508101231	0.9091796875	0.220703125	0.25244140625	-2.5625	0.125	-1.25
18	12	13	20	17	26	0.087278188524	-0.573228494138	-0.21538792119	0.912109375	0.23046875	0.25146484375	-1.1875	0.75	-1.25
18	12	13	20	17	26	0.0872740030541	-0.573201004674	-0.215377592152	0.9072265625	0.2314453125	0.24755859375	0.0625	0.875	-0.9375
18	12	13	20	17	26	0.087277450346	-0.572918479999	-0.215569199036	0.9091796875	0.2333984375	0.25341796875	1.0	1.0	-0.6875
18	12	13	20	17	26	0.087459536362	-0.572667710876	-0.215749798353	0.91162109375	0.228515625	0.24951171875	1.5	1.3125	-0.5625
18	12	13	20	17	26	0.0877017631735	-0.572350128769	-0.216111303687	0.9091796875	0.2314453125	0.248046875	2.5	1.5	-0.3125
18	12	13	20	17	26	0.0880688748231	-0.571989947916	-0.216662859059	0.90673828125	0.23486328125	0.2490234375	3.6875	1.625	-0.4375
18	12	13	20	17	26	0.0884964836996	-0.571687284699	-0.217274125497	0.912109375	0.23486328125	0.24609375	4.3125	1.75	-0.5625
18	12	13	20	17	26	0.0888630573669	-0.571262511644	-0.218007445683	0.91259765625	0.23974609375	0.2451171875	4.5	1.9375	-1.0
18	12	13	20	17	26	0.0891647135301	-0.570873874306	-0.218792264206	0.90869140625	0.24169921875	0.24462890625	4.4375	1.9375	-1.0625
18	12	13	20	17	26	0.0895335030794	-0.570524326371	-0.219469991189	0.90625	0.23779296875	0.240234375	4.25	1.875	-1.0
18	12	13	20	17	26	0.0898373752589	-0.570211003427	-0.220199218705	0.9033203125	0.24267578125	0.23779296875	3.9375	1.75	-0.875
18	12	13	20	17	26	0.0900842572652	-0.569984335095	-0.22081628915	0.90673828125	0.24072265625	0.23779296875	3.75	1.5625	-0.875
18	12	13	20	17	26	0.0903286949081	-0.56968110694	-0.221488401231	0.90380859375	0.2412109375	0.24365234375	3.6875	1.3125	-1.0
18	12	13	20	17	26	0.0906341180302	-0.569499633225	-0.222038330905	0.9072265625	0.23681640625	0.23974609375	3.5625	1.0	-1.0625
18	12	13	20	17	26	0.0907554470295	-0.569311909813	-0.222707885818	0.9052734375	0.24609375	0.23876953125	3.375	0.6875	-1.1875
18	12	13	20	17	26	0.0909353366971	-0.569169765126	-0.22331033354	0.90966796875	0.24365234375	0.24072265625	3.3125	0.625	-1.125
18	12	13	20	17	26	0.0911195457806	-0.569054685103	-0.223923384775	0.9033203125	0.240234375	0.236328125	3.3125	0.625	-1.1875
18	12	13	20	17	26	0.0913068899812	-0.568898075879	-0.224544149894	0.908203125	0.24560546875	0.23681640625	3.5	0.625	-1.0625
18	12	13	20	17	26	0.0916064274344	-0.568741037483	-0.225201677037	0.91015625	0.24169921875	0.24169921875	3.9375	0.6875	-1.0625
18	12	13	20	17	26	0.09197647431	-0.568642874019	-0.225821469772	0.91259765625	0.24267578125	0.23779296875	4.375	0.5625	-0.5
18	12	13	20	17	26	0.092342670944	-0.568520806242	-0.226614895714	0.90673828125	0.24609375	0.23486328125	4.625	0.5625	-0.625
18	12	13	20	17	26	0.092710078883	-0.568406165002	-0.227350259275	0.90771484375	0.24755859375	0.23583984375	4.5	0.5	-0.5625
18	12	13	20	17	26	0.0930144164874	-0.568340056648	-0.227836493929	0.9072265625	0.24755859375	0.240234375	3.4375	0.25	-0.25
18	12	13	20	17	26	0.0931977118809	-0.568280219596	-0.228325239127	0.90185546875	0.248046875	0.2294921875	2.5	0.375	-0.5
18	12	13	20	17	26	0.0931963095339	-0.568210636385	-0.228749029557	0.9033203125	0.25634765625	0.2314453125	1.6875	0.375	-0.5625
18	12	13	20	17	26	0.0931963095339	-0.568210636385	-0.228749029557	0.91015625	0.2490234375	0.236328125	0.875	0.0625	-0.5625
18	12	13	20	17	26	0.0931975419434	-0.568279183389	-0.228752054488	0.9091796875	0.25146484375	0.23779296875	0.5	0.0	-0.9375
18	12	13	20	17	26	0.0931357379598	-0.56827447978	-0.228811193716	0.89990234375	0.2509765625	0.2353515625	0.0625	-0.1875	-0.375
18	12	13	20	17	26	0.0931357379598	-0.56827447978	-0.228811193716	0.90869140625	0.2509765625	0.23291015625	-0.125	-0.3125	-0.75
18	12	13	20	17	27	0.0929528553717	-0.568336828116	-0.228933788903	0.90869140625	0.248046875	0.23828125	-0.3125	-0.4375	-1.125
18	12	13	20	17	27	0.0929528553717	-0.568336828116	-0.228933788903	0.90869140625	0.24853515625	0.2353515625	0.3125	-0.5625	-0.9375
18	12	13	20	17	27	0.092892349459	-0.568340051355	-0.228935087267	0.90869140625	0.25390625	0.23779296875	0.625	-0.5	-0.875
18	12	13	20	17	27	0.0928910513643	-0.568332109267	-0.228992920315	0.9052734375	0.2548828125	0.232421875	0.4375	-0.5	-0.625
18	12	13	20	17	27	0.0928910513643	-0.568332109267	-0.228992920315	0.9072265625	0.255859375	0.23681640625	-0.0625	-0.4375	-0.625
18	12	13	20	17	27	0.092889752978	-0.568324165395	-0.229050750937	0.91162109375	0.25341796875	0.23828125	-0.4375	-0.3125	-0.4375
18	12	13	20	17	27	0.092829247698	-0.568327386301	-0.229052049054	0.9072265625	0.2509765625	0.236328125	0.0625	-0.125	-0.8125
18	12	13	20	17	27	0.0928336941906	-0.568354609009	-0.229063020577	0.90185546875	0.24951171875	0.236328125	0.5	0.0	-0.9375
18	12	13	20	17	27	0.0928323961575	-0.568346662077	-0.229120851529	0.9033203125	0.2578125	0.23681640625	0.6875	0.1875	-0.4375
18	12	13	20	17	27	0.0928291759494	-0.568387978709	-0.229112903691	0.90380859375	0.25341796875	0.232421875	0.625	0.1875	-0.875
18	12	13	20	17	27	0.092768669687	-0.568391197891	-0.229114201319	0.90283203125	0.2490234375	0.24169921875	0.625	0.25	-0.8125
18	12	13	20	17	27	0.0928304207686	-0.568273535685	-0.229360106015	0.90185546875	0.24755859375	0.240234375	1.125	0.25	-0.625
18	12	13	20	17	27	0.0928302831445	-0.568211660799	-0.229725960392	0.90234375	0.25048828125	0.240234375	1.6875	0.0625	-0.8125
18	12	13	20	17	27	0.0928906382276	-0.568146485717	-0.230090477082	0.90771484375	0.25341796875	0.23681640625	1.8125	0.125	-0.625
18	12	13	20	17	27	0.0929509789326	-0.56808122909	-0.23045495499	0.90283203125	0.25537109375	0.23486328125	1.5625	0.0625	-0.5
18	12	13	20	17	27	0.0929514247043	-0.568144985274	-0.230700187382	0.90234375	0.255859375	0.2314453125	1.125	-0.1875	-0.1875
18	12	13	20	17	27	0.0929501157984	-0.568136984877	-0.230757969687	0.9013671875	0.2568359375	0.23828125	0.5625	0.0	0.1875
18	12	13	20	17	27	0.0929501157984	-0.568136984877	-0.230757969687	0.90380859375	0.25390625	0.23193359375	0.25	-0.0625	0.25
18	12	13	20	17	27	0.0929532565036	-0.568156181742	-0.230826799801	0.90283203125	0.25439453125	0.23193359375	0.25	-0.1875	0.3125
18	12	13	20	17	27	0.0928927503344	-0.568159403983	-0.230828108912	0.9052734375	0.2568359375	0.2392578125	0.5	-0.5625	0.625
18	12	13	20	17	27	0.0928927503344	-0.568159403983	-0.230828108912	0.90087890625	0.2529296875	0.236328125	0.625	-0.8125	0.875
18	12	13	20	17	27	0.0930116787064	-0.568323328159	-0.230881352064	0.90283203125	0.2548828125	0.2412109375	0.5	-1.25	1.25
18	12	13	20	17	27	0.0930727153651	-0.568506454837	-0.230820334106	0.90087890625	0.2548828125	0.23974609375	-0.0625	-1.375	1.375
18	12	13	20	17	27	0.0931967849605	-0.568762828452	-0.230703239784	0.9013671875	0.24951171875	0.2373046875	-0.3125	-1.3125	1.4375
18	12	13	20	17	27	0.093195383176	-0.56899840036	-0.230577706378	0.90771484375	0.2548828125	0.2353515625	-0.5	-1.125	1.125
