18	12	13	16	20	54	-0.777683080704	0.218620373182	-0.587321008132	-0.95947265625	-0.28955078125	0.21435546875	1.8125	-1.0	-0.5
18	12	13	16	20	54	-0.777814874831	0.218501039854	-0.587206286154	-0.955078125	-0.294921875	0.21533203125	1.4375	-1.125	-0.0625
18	12	13	16	20	54	-0.777931442271	0.218316394869	-0.587141101102	-0.9521484375	-0.29296875	0.2041015625	2.125	-1.3125	-0.1875
18	12	13	16	20	54	-0.778112565614	0.218071707345	-0.587017543029	-0.94775390625	-0.2978515625	0.2080078125	2.6875	-1.5	-0.375
18	12	13	16	20	54	-0.778295840685	0.217827623542	-0.586895608848	-0.9521484375	-0.294921875	0.21826171875	2.6875	-0.9375	-0.25
18	12	13	16	20	54	-0.778370476922	0.217587293204	-0.586905865763	-0.951171875	-0.29296875	0.2177734375	1.9375	-0.125	0.0
18	12	13	16	20	54	-0.778362091486	0.217523915475	-0.586960576635	-0.94580078125	-0.3017578125	0.21533203125	1.5	0.3125	0.125
18	12	13	16	20	54	-0.778346421713	0.21733643909	-0.58707082494	-0.94287109375	-0.29833984375	0.21630859375	2.0625	0.5625	0.5625
18	12	13	16	20	54	-0.778294028694	0.217216785455	-0.587199407941	-0.9404296875	-0.29541015625	0.21337890625	1.1875	0.8125	0.6875
18	12	13	16	20	54	-0.7781671985	0.217337521087	-0.587317878523	-0.93896484375	-0.296875	0.22216796875	-0.8125	1.125	0.75
18	12	13	16	20	54	-0.777968096705	0.217699239111	-0.587427859951	-0.94287109375	-0.30029296875	0.22314453125	-2.75	1.3125	1.0625
18	12	13	16	20	54	-0.777824888641	0.218198679919	-0.587396949802	-0.95361328125	-0.30517578125	0.23681640625	-3.9375	1.125	1.3125
18	12	13	16	20	54	-0.777664854082	0.218737312591	-0.587368274657	-0.9521484375	-0.30517578125	0.22900390625	-4.0625	0.8125	1.25
18	12	13	16	20	54	-0.777555423093	0.219168094531	-0.587316784649	-0.9560546875	-0.298828125	0.22412109375	-3.8125	-0.125	0.9375
18	12	13	16	20	54	-0.777546280838	0.219775836522	-0.5870657516	-0.9541015625	-0.30078125	0.2177734375	-3.8125	-1.5625	0.4375
18	12	13	16	20	54	-0.777754164063	0.220210077999	-0.586596191698	-0.95166015625	-0.2958984375	0.21630859375	-2.9375	-3.125	-0.1875
18	12	13	16	20	54	-0.778042402955	0.22063251386	-0.586034135016	-0.95263671875	-0.29638671875	0.21630859375	-2.3125	-4.0	-0.75
18	12	13	16	20	54	-0.778351130229	0.220938688264	-0.585487523899	-0.95458984375	-0.28759765625	0.21630859375	-2.0625	-4.25	-1.125
18	12	13	16	20	54	-0.778698799244	0.221177556898	-0.584924311619	-0.94921875	-0.28955078125	0.21484375	-1.125	-4.1875	-1.125
18	12	13	16	20	54	-0.779030675708	0.221246176703	-0.584456107065	-0.94677734375	-0.29248046875	0.2158203125	0.0	-3.6875	-0.875
18	12	13	16	20	54	-0.779312948655	0.221117613985	-0.584133779589	-0.94970703125	-0.28564453125	0.2080078125	1.1875	-3.25	-0.6875
18	12	13	16	20	54	-0.779499706369	0.220935557239	-0.583953428636	-0.958984375	-0.283203125	0.2060546875	1.4375	-2.8125	-0.25
18	12	13	16	20	54	-0.779637932981	0.220696004827	-0.583843468522	-0.95556640625	-0.27685546875	0.2080078125	0.5	-2.75	0.3125
18	12	13	16	20	54	-0.779742152377	0.220629921794	-0.583708042058	-0.955078125	-0.28857421875	0.20556640625	0.0625	-2.5625	0.8125
18	12	13	16	20	54	-0.779799482188	0.220567842892	-0.583644239506	-0.95361328125	-0.2958984375	0.20458984375	0.125	-1.9375	0.9375
18	12	13	16	20	54	-0.779818033279	0.2204510242	-0.583658124149	-0.95263671875	-0.29736328125	0.21337890625	0.9375	-1.0625	1.1875
18	12	13	16	20	54	-0.779757584154	0.220207057266	-0.583841660145	-0.94921875	-0.2998046875	0.20458984375	2.125	-0.125	1.1875
18	12	13	16	20	54	-0.77968699153	0.219899196124	-0.584078630837	-0.95068359375	-0.3056640625	0.2080078125	2.8125	0.625	1.0625
18	12	13	16	20	54	-0.779577313609	0.219536490805	-0.584393077414	-0.9501953125	-0.30078125	0.20947265625	3.125	0.9375	0.8125
18	12	13	16	20	54	-0.779446480161	0.219289891412	-0.584691667053	-0.951171875	-0.306640625	0.21142578125	2.75	1.125	0.6875
18	12	13	16	20	54	-0.779358273073	0.219116312972	-0.584900174709	-0.95166015625	-0.30908203125	0.2158203125	2.1875	1.0625	0.5625
18	12	13	16	20	54	-0.779285831815	0.218991037324	-0.585074716775	-0.94921875	-0.3076171875	0.22119140625	2.0	1.1875	0.3125
18	12	13	16	20	54	-0.77925230742	0.218920584799	-0.585171610553	-0.9482421875	-0.3037109375	0.2275390625	1.625	1.375	0.1875
18	12	13	16	20	55	-0.77923296746	0.218810228585	-0.5852639559	-0.94677734375	-0.30126953125	0.23046875	1.4375	1.25	0.125
18	12	13	16	20	55	-0.779160270063	0.218806953484	-0.585377263839	-0.9521484375	-0.30078125	0.22509765625	0.6875	1.0625	-0.0625
18	12	13	16	20	55	-0.779160270063	0.218806953484	-0.585377263839	-0.94873046875	-0.3017578125	0.224609375	0.4375	0.8125	0.0
18	12	13	16	20	55	-0.779160270063	0.218806953484	-0.585377263839	-0.953125	-0.298828125	0.2294921875	-0.5625	0.625	0.125
18	12	13	16	20	55	-0.779124410824	0.218979976973	-0.585350323062	-0.9541015625	-0.29833984375	0.22998046875	-1.5	0.375	0.625
18	12	13	16	20	55	-0.779113996886	0.219038080434	-0.585342499149	-0.95166015625	-0.30419921875	0.21923828125	-0.75	-0.375	0.625
18	12	13	16	20	55	-0.77919595879	0.219043964604	-0.585236159539	-0.9462890625	-0.30029296875	0.21533203125	0.375	-1.25	0.3125
18	12	13	16	20	55	-0.779316969108	0.219104700376	-0.585052272368	-0.953125	-0.29541015625	0.22216796875	0.0	-1.25	-0.1875
18	12	13	16	20	55	-0.779316969108	0.219104700376	-0.585052272368	-0.9501953125	-0.29541015625	0.22119140625	-0.6875	-0.75	0.1875
18	12	13	16	20	55	-0.779284894153	0.219173876481	-0.585074012794	-0.95263671875	-0.3056640625	0.2138671875	-0.8125	-0.6875	0.125
18	12	13	16	20	55	-0.779274468334	0.21923197762	-0.585066185264	-0.9462890625	-0.30712890625	0.208984375	0.875	-0.5625	0.5625
18	12	13	16	20	55	-0.779254699181	0.219043320439	-0.585173406622	-0.9482421875	-0.2958984375	0.20849609375	1.5	-0.4375	0.625
18	12	13	16	20	55	-0.779254699181	0.219043320439	-0.585173406622	-0.95263671875	-0.296875	0.2177734375	-0.1875	-0.3125	0.4375
18	12	13	16	20	55	-0.779194839904	0.219226745902	-0.585174287225	-0.9482421875	-0.2998046875	0.21826171875	-1.125	-0.0625	0.5625
18	12	13	16	20	55	-0.779038265872	0.219539379688	-0.585255243767	-0.94677734375	-0.30810546875	0.2109375	-1.375	0.0	0.8125
18	12	13	16	20	55	-0.779030143201	0.219598124039	-0.585249141582	-0.94873046875	-0.30810546875	0.21630859375	-0.375	0.125	0.875
18	12	13	16	20	55	-0.779030143201	0.219598124039	-0.585249141582	-0.9501953125	-0.29833984375	0.22021484375	-0.1875	0.3125	0.6875
18	12	13	16	20	55	-0.779022014979	0.219656865552	-0.585243035227	-0.94775390625	-0.29931640625	0.21630859375	-0.4375	0.25	0.625
18	12	13	16	20	55	-0.779022014979	0.219656865552	-0.585243035227	-0.94921875	-0.3037109375	0.21875	-0.5	-0.125	0.5
18	12	13	16	20	55	-0.779011569965	0.219714952356	-0.585235188373	-0.94873046875	-0.3037109375	0.220703125	-0.375	-0.25	0.25
18	12	13	16	20	55	-0.779013881209	0.219715604227	-0.585236924704	-0.94677734375	-0.296875	0.22021484375	-0.1875	-0.25	0.375
18	12	13	16	20	55	-0.779013881209	0.219715604227	-0.585236924704	-0.94580078125	-0.29638671875	0.2265625	-0.4375	-0.375	0.1875
18	12	13	16	20	55	-0.779013881209	0.219715604227	-0.585236924704	-0.94775390625	-0.30224609375	0.2255859375	0.0	-0.4375	0.5
18	12	13	16	20	55	-0.77900343362	0.219773688849	-0.585229075915	-0.94921875	-0.29931640625	0.21728515625	0.5	-0.625	0.625
18	12	13	16	20	55	-0.77900343362	0.219773688849	-0.585229075915	-0.95068359375	-0.296875	0.2236328125	0.4375	-0.8125	0.5
18	12	13	16	20	55	-0.779037080393	0.2197221474	-0.585193319242	-0.953125	-0.2939453125	0.21435546875	-0.0625	-1.0625	0.75
18	12	13	16	20	55	-0.779103949362	0.219784827392	-0.585075633262	-0.94921875	-0.3017578125	0.21923828125	-0.3125	-1.0625	0.75
18	12	13	16	20	55	-0.779093496884	0.219842912321	-0.585067783872	-0.94970703125	-0.29931640625	0.21826171875	-0.125	-0.9375	0.8125
18	12	13	16	20	55	-0.7790958143	0.219843566244	-0.585069524158	-0.94970703125	-0.30419921875	0.21826171875	0.1875	-0.75	0.75
18	12	13	16	20	55	-0.7790958143	0.219843566244	-0.585069524158	-0.94970703125	-0.2978515625	0.21337890625	0.5625	-0.75	0.625
18	12	13	16	20	55	-0.779033548655	0.219904252257	-0.585129632636	-0.95654296875	-0.30078125	0.208984375	0.375	-0.75	0.625
18	12	13	16	20	55	-0.779033548655	0.219904252257	-0.585129632636	-0.9501953125	-0.30126953125	0.21728515625	0.25	-0.8125	0.375
18	12	13	16	20	55	-0.779033548655	0.219904252257	-0.585129632636	-0.94775390625	-0.2919921875	0.21875	0.25	-0.8125	0.25
18	12	13	16	20	55	-0.779025405818	0.219962986726	-0.585123516576	-0.94970703125	-0.296875	0.2119140625	0.5625	-0.75	0.3125
18	12	13	16	20	55	-0.779072619308	0.219837021132	-0.585113137588	-0.94775390625	-0.29736328125	0.21435546875	1.125	-0.6875	0.25
18	12	13	16	20	55	-0.779152244802	0.219720200633	-0.585066067576	-0.94677734375	-0.298828125	0.2177734375	1.1875	-0.6875	0.25
18	12	13	16	20	55	-0.779152244802	0.219720200633	-0.585066067576	-0.94970703125	-0.29638671875	0.2197265625	0.75	-0.625	0.25
18	12	13	16	20	55	-0.77914179492	0.219778286347	-0.585058220751	-0.94970703125	-0.294921875	0.216796875	0.6875	-0.5	0.375
18	12	13	16	20	55	-0.77914179492	0.219778286347	-0.585058220751	-0.9501953125	-0.30078125	0.22265625	0.6875	-0.625	0.5
18	12	13	16	20	55	-0.779240766903	0.219649711786	-0.584979852034	-0.951171875	-0.3017578125	0.224609375	1.125	-0.6875	0.625
18	12	13	16	20	55	-0.779326181552	0.21947348648	-0.584937123032	-0.9521484375	-0.2978515625	0.22216796875	1.0625	-0.75	0.625
18	12	13	16	20	55	-0.779515115992	0.21929203036	-0.584758403251	-0.94873046875	-0.29736328125	0.2255859375	1.0625	-0.9375	0.5625
18	12	13	16	20	55	-0.779504681658	0.2193501273	-0.584750575866	-0.951171875	-0.3017578125	0.22509765625	0.625	-0.6875	0.4375
18	12	13	16	20	55	-0.779506974069	0.219350772377	-0.584752295533	-0.947265625	-0.306640625	0.21875	0.0625	-0.5625	0.8125
18	12	13	16	20	55	-0.779511550239	0.219352060097	-0.584755728378	-0.94677734375	-0.306640625	0.21533203125	1.0	-0.75	0.5
18	12	13	16	20	55	-0.779571354736	0.21916861621	-0.584754806993	-0.947265625	-0.30078125	0.2119140625	1.5625	-0.75	0.4375
18	12	13	16	20	55	-0.779560925585	0.219226716097	-0.584746984109	-0.9580078125	-0.2998046875	0.2197265625	0.3125	-0.1875	0.375
18	12	13	16	20	55	-0.779563203614	0.21922735672	-0.584748692854	-0.96142578125	-0.30126953125	0.2236328125	-0.25	0.125	0.6875
18	12	13	16	20	55	-0.779528827753	0.219295887732	-0.584768689219	-0.95361328125	-0.31005859375	0.21240234375	0.125	-0.1875	0.9375
18	12	13	16	20	55	-0.779534567336	0.219114398429	-0.584834029456	-0.94580078125	-0.30126953125	0.20947265625	1.25	-0.5	1.0625
18	12	13	16	20	56	-0.779524140933	0.219172501573	-0.584826207205	-0.9404296875	-0.29443359375	0.22119140625	0.625	-0.5625	0.625
18	12	13	16	20	56	-0.779526413188	0.219173140445	-0.58482791193	-0.9404296875	-0.30126953125	0.22119140625	-0.875	-0.4375	0.375
18	12	13	16	20	56	-0.779526413188	0.219173140445	-0.58482791193	-0.9501953125	-0.30419921875	0.22119140625	-0.5625	-0.125	0.375
18	12	13	16	20	56	-0.779513549436	0.219108490642	-0.5848792941	-0.95166015625	-0.302734375	0.2197265625	1.0625	0.0	0.5625
18	12	13	16	20	56	-0.779587091451	0.218684768548	-0.584949713025	-0.94775390625	-0.2900390625	0.21875	2.3125	-0.125	0.8125
18	12	13	16	20	56	-0.779652628599	0.218441894297	-0.584953091631	-0.95361328125	-0.29052734375	0.22265625	1.375	-0.4375	0.875
18	12	13	16	20	56	-0.779652628599	0.218441894297	-0.584953091631	-0.95068359375	-0.2998046875	0.224609375	-0.4375	-0.5	0.8125
18	12	13	16	20	56	-0.779652628599	0.218441894297	-0.584953091631	-0.94775390625	-0.302734375	0.22021484375	-0.1875	-0.75	0.875
18	12	13	16	20	56	-0.779644490725	0.218500647941	-0.584946985996	-0.947265625	-0.30712890625	0.220703125	0.5625	-0.75	0.875
18	12	13	16	20	56	-0.77969146707	0.21837464338	-0.584936439953	-0.9482421875	-0.30322265625	0.21923828125	1.0	-0.625	0.8125
18	12	13	16	20	56	-0.779766260393	0.218256429803	-0.584885728972	-0.94970703125	-0.30029296875	0.22265625	1.0625	-0.3125	0.625
18	12	13	16	20	56	-0.779758121509	0.218315184771	-0.584879624172	-0.951171875	-0.30322265625	0.216796875	0.5	-0.4375	0.8125
18	12	13	16	20	56	-0.779747730425	0.218373307722	-0.584871830045	-0.9482421875	-0.30419921875	0.21826171875	0.375	-0.625	0.8125
18	12	13	16	20	56	-0.779723804482	0.218383700386	-0.584899664841	-0.9482421875	-0.298828125	0.22021484375	0.125	-0.6875	0.5625
18	12	13	16	20	56	-0.779698215377	0.218376533434	-0.584941502636	-0.9501953125	-0.29833984375	0.2177734375	-0.375	-0.75	0.5
18	12	13	16	20	56	-0.779687822157	0.218434654834	-0.584933705483	-0.951171875	-0.3017578125	0.2197265625	-0.375	-0.8125	0.625
18	12	13	16	20	56	-0.779687822157	0.218434654834	-0.584933705483	-0.951171875	-0.30078125	0.21728515625	-0.0625	-0.6875	0.5625
18	12	13	16	20	56	-0.779687822157	0.218434654834	-0.584933705483	-0.95263671875	-0.29296875	0.2197265625	0.3125	-0.6875	0.625
18	12	13	16	20	56	-0.779690065733	0.218435283386	-0.584935388648	-0.9521484375	-0.298828125	0.21630859375	0.3125	-0.6875	0.6875
18	12	13	16	20	56	-0.779655737729	0.21850379999	-0.58495542433	-0.9521484375	-0.29248046875	0.21875	0.5	-0.6875	0.8125
18	12	13	16	20	56	-0.779627902101	0.218495998867	-0.584995572385	-0.9501953125	-0.29638671875	0.21630859375	0.375	-0.75	0.8125
18	12	13	16	20	56	-0.779627902101	0.218495998867	-0.584995572385	-0.94921875	-0.2958984375	0.21630859375	0.3125	-0.5625	0.8125
18	12	13	16	20	56	-0.779627902101	0.218495998867	-0.584995572385	-0.953125	-0.296875	0.21435546875	0.5	-0.625	0.8125
18	12	13	16	20	56	-0.779593566171	0.218564515811	-0.585015605711	-0.951171875	-0.29833984375	0.220703125	0.875	-0.5	0.8125
18	12	13	16	20	56	-0.779593566171	0.218564515811	-0.585015605711	-0.94775390625	-0.298828125	0.22216796875	0.75	-0.4375	0.6875
18	12	13	16	20	56	-0.779623092992	0.21837258703	-0.585052995884	-0.94970703125	-0.2958984375	0.22021484375	1.1875	-0.25	0.6875
18	12	13	16	20	56	-0.77961493862	0.218431334376	-0.585046876594	-0.9482421875	-0.3037109375	0.2158203125	0.9375	-0.375	0.625
18	12	13	16	20	56	-0.77961493862	0.218431334376	-0.585046876594	-0.947265625	-0.29443359375	0.21875	0.8125	-0.4375	0.625
18	12	13	16	20	56	-0.77961493862	0.218431334376	-0.585046876594	-0.9501953125	-0.29443359375	0.22314453125	0.4375	-0.3125	0.625
18	12	13	16	20	56	-0.77961493862	0.218431334376	-0.585046876594	-0.9501953125	-0.294921875	0.220703125	0.1875	-0.3125	0.75
18	12	13	16	20	56	-0.779591000368	0.218441727888	-0.585074714595	-0.95263671875	-0.30029296875	0.22314453125	0.125	-0.375	0.625
18	12	13	16	20	56	-0.779582839918	0.218500474979	-0.585068590265	-0.95068359375	-0.29931640625	0.21484375	0.5625	-0.6875	0.6875
18	12	13	16	20	56	-0.779657635754	0.218382262465	-0.585017883099	-0.947265625	-0.2998046875	0.2158203125	1.0625	-0.875	0.5625
18	12	13	16	20	56	-0.779629797019	0.21837446483	-0.585058026791	-0.955078125	-0.291015625	0.2216796875	0.1875	-0.625	0.4375
18	12	13	16	20	56	-0.779629797019	0.21837446483	-0.585058026791	-0.94970703125	-0.29931640625	0.2216796875	0.125	-0.4375	0.8125
18	12	13	16	20	56	-0.779619404908	0.218432585734	-0.585050228233	-0.94921875	-0.30078125	0.212890625	0.8125	-0.625	0.8125
18	12	13	16	20	56	-0.77963534536	0.218192919967	-0.58512322342	-0.9501953125	-0.2919921875	0.21044921875	1.4375	-0.75	0.625
18	12	13	16	20	56	-0.77963534536	0.218192919967	-0.58512322342	-0.95654296875	-0.294921875	0.22265625	0.0	-0.3125	0.6875
18	12	13	16	20	56	-0.77963534536	0.218192919967	-0.58512322342	-0.95654296875	-0.29541015625	0.22802734375	-1.0	0.1875	0.8125
18	12	13	16	20	56	-0.779627187699	0.218251669267	-0.585117101023	-0.951171875	-0.3037109375	0.216796875	-0.6875	0.0625	0.9375
18	12	13	16	20	56	-0.779627187699	0.218251669267	-0.585117101023	-0.9423828125	-0.3037109375	0.21533203125	0.875	-0.1875	0.875
18	12	13	16	20	56	-0.7796168015	0.218309793249	-0.585109306089	-0.947265625	-0.29296875	0.21533203125	0.3125	-0.375	0.4375
18	12	13	16	20	56	-0.779619404908	0.218432585734	-0.585050228233	-0.951171875	-0.296875	0.22509765625	-1.0625	-0.375	0.1875
18	12	13	16	20	56	-0.779611239035	0.21849132893	-0.585044100312	-0.9521484375	-0.30322265625	0.22509765625	-0.9375	-0.5	0.3125
18	12	13	16	20	56	-0.779587300545	0.218501725198	-0.585071937918	-0.95166015625	-0.3037109375	0.2158203125	0.5625	-0.625	0.375
18	12	13	16	20	56	-0.779709024361	0.218257492846	-0.585010645675	-0.953125	-0.29541015625	0.220703125	1.6875	-0.75	0.5
18	12	13	16	20	56	-0.779709024361	0.218257492846	-0.585010645675	-0.95068359375	-0.29248046875	0.22509765625	0.8125	-0.875	0.6875
18	12	13	16	20	56	-0.77968118448	0.218249699859	-0.585050789387	-0.9541015625	-0.29296875	0.2197265625	-0.5625	-0.875	0.625
18	12	13	16	20	56	-0.779743722235	0.21831115329	-0.584929855502	-0.94580078125	-0.2978515625	0.2216796875	-0.375	-1.0625	0.8125
18	12	13	16	20	57	-0.77974595142	0.218311777413	-0.58493152774	-0.9443359375	-0.30712890625	0.21728515625	0.0625	-0.9375	0.625
18	12	13	16	20	57	-0.779735560822	0.218369899548	-0.584923733165	-0.9462890625	-0.30078125	0.2236328125	0.625	-0.6875	0.625
18	12	13	16	20	57	-0.779735560822	0.218369899548	-0.584923733165	-0.951171875	-0.29833984375	0.22216796875	0.1875	-0.5	0.625
18	12	13	16	20	57	-0.779737787032	0.218370523012	-0.584925403171	-0.94921875	-0.30126953125	0.22265625	-0.0625	-0.5	0.6875
18	12	13	16	20	57	-0.779727393856	0.218428642972	-0.584917606662	-0.95361328125	-0.30224609375	0.22021484375	0.0	-0.5625	0.625
18	12	13	16	20	57	-0.779703466602	0.218439037727	-0.584945442185	-0.95263671875	-0.29736328125	0.2177734375	-0.0625	-0.6875	0.4375
18	12	13	16	20	57	-0.779703466602	0.218439037727	-0.584945442185	-0.94921875	-0.2958984375	0.22412109375	-0.125	-0.875	0.5
18	12	13	16	20	57	-0.779772665368	0.218502359269	-0.584829499026	-0.94384765625	-0.30029296875	0.216796875	-0.125	-1.125	0.4375
18	12	13	16	20	57	-0.779772665368	0.218502359269	-0.584829499026	-0.95068359375	-0.294921875	0.21728515625	0.1875	-1.0	0.3125
18	12	13	16	20	57	-0.779762264988	0.218560478313	-0.584821698741	-0.94775390625	-0.29541015625	0.22265625	0.3125	-0.75	0.375
18	12	13	16	20	57	-0.779762264988	0.218560478313	-0.584821698741	-0.95068359375	-0.29541015625	0.21923828125	0.4375	-0.75	0.4375
18	12	13	16	20	57	-0.779734432476	0.218552677105	-0.584861855543	-0.95068359375	-0.29736328125	0.21923828125	0.5	-0.6875	0.5625
18	12	13	16	20	57	-0.779710505675	0.218563077951	-0.584889688915	-0.95166015625	-0.29638671875	0.216796875	0.625	-0.625	0.625
18	12	13	16	20	57	-0.779710505675	0.218563077951	-0.584889688915	-0.94970703125	-0.29248046875	0.22265625	0.4375	-0.6875	0.625
18	12	13	16	20	57	-0.779702326601	0.218621818699	-0.584883553489	-0.9462890625	-0.29833984375	0.21923828125	0.375	-0.6875	0.625
18	12	13	16	20	57	-0.779702326601	0.218621818699	-0.584883553489	-0.95166015625	-0.2998046875	0.21728515625	0.5	-0.5	0.4375
18	12	13	16	20	57	-0.779702326601	0.218621818699	-0.584883553489	-0.94921875	-0.30224609375	0.2197265625	0.625	-0.3125	0.375
18	12	13	16	20	57	-0.779691921599	0.218679933862	-0.584875748311	-0.953125	-0.2998046875	0.22314453125	0.6875	-0.4375	0.4375
18	12	13	16	20	57	-0.779694141975	0.21868055661	-0.584877413898	-0.947265625	-0.29833984375	0.2216796875	0.9375	-0.5	0.4375
18	12	13	16	20	57	-0.779694141975	0.21868055661	-0.584877413898	-0.94921875	-0.29638671875	0.22021484375	0.8125	-0.5625	0.4375
18	12	13	16	20	57	-0.779694141975	0.21868055661	-0.584877413898	-0.951171875	-0.296875	0.23046875	0.4375	-0.625	0.4375
18	12	13	16	20	57	-0.779694141975	0.21868055661	-0.584877413898	-0.953125	-0.2939453125	0.22607421875	0.1875	-0.5625	0.5
18	12	13	16	20	57	-0.779694141975	0.21868055661	-0.584877413898	-0.95263671875	-0.30078125	0.2236328125	0.4375	-0.5	0.6875
18	12	13	16	20	57	-0.779683734396	0.218738669595	-0.584869606788	-0.94873046875	-0.298828125	0.21826171875	0.1875	-0.625	0.875
18	12	13	16	20	57	-0.779685951799	0.218739291683	-0.584871270144	-0.95068359375	-0.30224609375	0.22314453125	0.1875	-0.625	0.875
18	12	13	16	20	57	-0.779685951799	0.218739291683	-0.584871270144	-0.9482421875	-0.2998046875	0.22412109375	0.3125	-0.5	0.875
18	12	13	16	20	57	-0.779675541644	0.218797402489	-0.584863461101	-0.94580078125	-0.29736328125	0.22021484375	0.1875	-0.6875	0.75
18	12	13	16	20	57	-0.779675541644	0.218797402489	-0.584863461101	-0.95068359375	-0.29638671875	0.22119140625	-0.1875	-0.25	0.5625
18	12	13	16	20	57	-0.779651609172	0.218807814223	-0.584891292524	-0.95068359375	-0.30029296875	0.2158203125	0.0	-0.25	0.6875
18	12	13	16	20	57	-0.779643410341	0.218866546852	-0.584885141796	-0.9443359375	-0.302734375	0.2158203125	0.6875	-0.5625	0.6875
18	12	13	16	20	57	-0.779752544691	0.218679819007	-0.584814408518	-0.94775390625	-0.29443359375	0.2236328125	1.125	-0.625	0.4375
18	12	13	16	20	57	-0.779752544691	0.218679819007	-0.584814408518	-0.96044921875	-0.2939453125	0.22998046875	-0.1875	-0.1875	0.5
18	12	13	16	20	57	-0.779752544691	0.218679819007	-0.584814408518	-0.95166015625	-0.30126953125	0.2255859375	-0.8125	-0.0625	0.8125
18	12	13	16	20	57	-0.779752544691	0.218679819007	-0.584814408518	-0.94970703125	-0.30419921875	0.22509765625	-0.3125	-0.3125	0.9375
18	12	13	16	20	57	-0.779744345243	0.218738551452	-0.584808258932	-0.9443359375	-0.302734375	0.21484375	0.875	-0.6875	0.875
18	12	13	16	20	57	-0.779789461403	0.218734087005	-0.584735292299	-0.9453125	-0.28955078125	0.22021484375	-0.375	-1.0625	0.4375
18	12	13	16	20	57	-0.779835032951	0.218929972857	-0.58458636187	-0.95068359375	-0.296875	0.22412109375	-1.4375	-0.9375	0.1875
18	12	13	16	20	57	-0.779835032951	0.218929972857	-0.58458636187	-0.955078125	-0.30029296875	0.22314453125	-0.625	-0.9375	0.125
18	12	13	16	20	57	-0.779935960626	0.21880197346	-0.584509483912	-0.9501953125	-0.298828125	0.22314453125	1.0625	-1.0	0.1875
18	12	13	16	20	57	-0.780083270394	0.218564915991	-0.584406330805	-0.95068359375	-0.29541015625	0.22021484375	1.625	-1.1875	0.5
18	12	13	16	20	57	-0.78019007834	0.218377540507	-0.584333866074	-0.94970703125	-0.29150390625	0.22216796875	0.75	-1.0625	0.5625
18	12	13	16	20	57	-0.780262938549	0.218380850604	-0.584220654552	-0.95166015625	-0.29296875	0.22216796875	-0.25	-1.1875	0.6875
18	12	13	16	20	57	-0.780353691104	0.218433119073	-0.584075146556	-0.94580078125	-0.302734375	0.22509765625	-0.1875	-1.25	0.625
18	12	13	16	20	57	-0.780443590703	0.218380164819	-0.583974683338	-0.94580078125	-0.3017578125	0.21923828125	0.5625	-1.1875	0.6875
18	12	13	16	20	57	-0.780467447721	0.218369762899	-0.58394686736	-0.94775390625	-0.29833984375	0.23193359375	0.75	-0.9375	0.5625
18	12	13	16	20	57	-0.780469676019	0.218370386362	-0.583948534575	-0.94921875	-0.29833984375	0.2265625	0.625	-0.8125	0.6875
18	12	13	16	20	57	-0.780435415553	0.218438910789	-0.583968566201	-0.94921875	-0.2978515625	0.220703125	0.25	-0.9375	0.6875
18	12	13	16	20	57	-0.780435415553	0.218438910789	-0.583968566201	-0.9501953125	-0.29931640625	0.22900390625	0.4375	-0.9375	0.5
18	12	13	16	20	57	-0.780564335973	0.218440828716	-0.583790591413	-0.951171875	-0.29736328125	0.228515625	0.0	-1.125	0.4375
18	12	13	16	20	57	-0.780727458121	0.218374206157	-0.583592554296	-0.94775390625	-0.2998046875	0.22998046875	0.125	-1.3125	0.4375
18	12	13	16	20	57	-0.780806900021	0.218379354981	-0.583484246401	-0.9482421875	-0.29833984375	0.22216796875	0.3125	-1.3125	0.3125
18	12	13	16	20	58	-0.780982571536	0.218255210676	-0.583295595199	-0.94775390625	-0.29541015625	0.22607421875	0.625	-1.3125	0.3125
18	12	13	16	20	58	-0.781046814005	0.218195073851	-0.583236958242	-0.95068359375	-0.2978515625	0.22412109375	0.625	-1.1875	0.25
18	12	13	16	20	58	-0.781160409052	0.218131674502	-0.583108566926	-0.951171875	-0.2939453125	0.22314453125	0.625	-1.1875	0.3125
18	12	13	16	20	58	-0.781284372419	0.218010138136	-0.582987916987	-0.94970703125	-0.298828125	0.2236328125	0.6875	-1.1875	0.375
18	12	13	16	20	58	-0.781246177369	0.218060510252	-0.583020446247	-0.9501953125	-0.29541015625	0.22705078125	0.6875	-1.0	0.375
18	12	13	16	20	58	-0.781348572179	0.217949988381	-0.582929246437	-0.95068359375	-0.296875	0.2255859375	0.8125	-1.125	0.4375
18	12	13	16	20	58	-0.781464321962	0.217887193799	-0.582802468792	-0.947265625	-0.30419921875	0.22412109375	0.8125	-1.0625	0.4375
18	12	13	16	20	58	-0.781464321962	0.217887193799	-0.582802468792	-0.94873046875	-0.29638671875	0.22314453125	0.8125	-1.0	0.4375
18	12	13	16	20	58	-0.781564857144	0.217759129337	-0.582725383103	-0.94921875	-0.2998046875	0.22900390625	1.25	-0.9375	0.375
18	12	13	16	20	58	-0.781564857144	0.217759129337	-0.582725383103	-0.94921875	-0.3017578125	0.23046875	0.8125	-0.8125	0.375
18	12	13	16	20	58	-0.781582263632	0.217825011627	-0.582677328666	-0.9462890625	-0.30126953125	0.234375	0.8125	-0.5625	0.3125
18	12	13	16	20	58	-0.781584483559	0.217825630316	-0.582678983644	-0.9521484375	-0.2998046875	0.2265625	0.625	-0.4375	0.625
18	12	13	16	20	58	-0.781584483559	0.217825630316	-0.582678983644	-0.947265625	-0.30029296875	0.23046875	0.625	-0.5	0.5
18	12	13	16	20	58	-0.781584483559	0.217825630316	-0.582678983644	-0.94873046875	-0.302734375	0.22802734375	0.5	-0.625	0.5625
18	12	13	16	20	58	-0.78157409155	0.217883765956	-0.582671236298	-0.94677734375	-0.29443359375	0.2265625	0.4375	-0.8125	0.4375
18	12	13	16	20	58	-0.78157409155	0.217883765956	-0.582671236298	-0.9482421875	-0.296875	0.22900390625	0.1875	-0.8125	0.5625
18	12	13	16	20	58	-0.781550339792	0.217894159551	-0.582699031159	-0.94970703125	-0.29736328125	0.22509765625	0.4375	-0.875	0.5625
18	12	13	16	20	58	-0.781552556882	0.21789477767	-0.582700684151	-0.94775390625	-0.30078125	0.22998046875	0.6875	-1.0	0.5625
18	12	13	16	20	58	-0.781576308497	0.217884383987	-0.582672889053	-0.95068359375	-0.294921875	0.2353515625	0.75	-0.9375	0.5
18	12	13	16	20	58	-0.781565913903	0.217942517456	-0.58266513978	-0.9482421875	-0.30078125	0.23095703125	0.8125	-0.8125	0.5625
18	12	13	16	20	58	-0.781565913903	0.217942517456	-0.58266513978	-0.95068359375	-0.294921875	0.23388671875	-0.1875	-0.4375	0.75
18	12	13	16	20	58	-0.781542161612	0.217952913637	-0.582692933769	-0.9482421875	-0.3017578125	0.22265625	0.125	-0.625	0.8125
18	12	13	16	20	58	-0.781544375722	0.217953531097	-0.582694584539	-0.94580078125	-0.2998046875	0.22509765625	0.9375	-0.75	0.8125
18	12	13	16	20	58	-0.781533977867	0.218011664892	-0.582686832229	-0.94873046875	-0.2958984375	0.22802734375	0.75	-0.625	0.6875
18	12	13	16	20	58	-0.781533977867	0.218011664892	-0.582686832229	-0.9541015625	-0.29833984375	0.23876953125	-0.5625	0.1875	0.8125
18	12	13	16	20	58	-0.781439801195	0.218063449677	-0.582784181632	-0.953125	-0.3046875	0.224609375	-0.625	0.3125	1.0625
18	12	13	16	20	58	-0.781424216683	0.218015098179	-0.582818077412	-0.94482421875	-0.3056640625	0.22802734375	0.375	0.0625	1.25
18	12	13	16	20	58	-0.781453582199	0.217823167359	-0.582855491253	-0.9443359375	-0.29736328125	0.2255859375	1.125	-0.125	0.875
18	12	13	16	20	58	-0.781453582199	0.217823167359	-0.582855491253	-0.9482421875	-0.2939453125	0.2294921875	-0.25	-0.125	0.5
18	12	13	16	20	58	-0.781419768765	0.218013857223	-0.582814759973	-0.94482421875	-0.29638671875	0.2314453125	-1.25	-0.0625	0.5625
18	12	13	16	20	58	-0.78142199417	0.218014478105	-0.582816419771	-0.94775390625	-0.30078125	0.23095703125	-0.6875	0.125	0.6875
18	12	13	16	20	58	-0.781459527656	0.217763792149	-0.582859925736	-0.94921875	-0.2939453125	0.228515625	1.125	0.125	0.75
18	12	13	16	20	58	-0.781524808943	0.21752084491	-0.582863094526	-0.9541015625	-0.2900390625	0.2353515625	1.1875	0.0	0.8125
18	12	13	16	20	58	-0.781524808943	0.21752084491	-0.582863094526	-0.95263671875	-0.28759765625	0.23291015625	0.1875	-0.125	0.9375
18	12	13	16	20	58	-0.781511065622	0.217394956325	-0.582913876435	-0.951171875	-0.29443359375	0.22998046875	-0.125	-0.25	1.25
18	12	13	16	20	58	-0.781539927142	0.217219882913	-0.582935403681	-0.94677734375	-0.29736328125	0.22509765625	0.625	-0.5	1.25
18	12	13	16	20	58	-0.781646303832	0.217032424176	-0.582862668978	-0.9453125	-0.29736328125	0.23583984375	1.0	-0.25	1.25
18	12	13	16	20	58	-0.781701093628	0.216847594133	-0.582858014065	-0.94873046875	-0.298828125	0.23095703125	0.8125	-0.0625	1.0
18	12	13	16	20	58	-0.7816907468	0.216905755319	-0.582850299183	-0.94384765625	-0.2998046875	0.23193359375	0.5625	0.125	0.9375
18	12	13	16	20	58	-0.781667006336	0.216916103734	-0.582878106544	-0.94921875	-0.3017578125	0.224609375	0.625	-0.0625	0.8125
18	12	13	16	20	58	-0.78177555789	0.216729253343	-0.582806995261	-0.9501953125	-0.29638671875	0.23486328125	1.0	-0.1875	0.75
18	12	13	16	20	58	-0.781747749665	0.216721544153	-0.582847295597	-0.94970703125	-0.29150390625	0.2265625	0.75	-0.4375	0.625
18	12	13	16	20	58	-0.781765215545	0.21678741866	-0.582799285131	-0.947265625	-0.2978515625	0.22900390625	0.4375	-0.5625	0.625
18	12	13	16	20	58	-0.781765215545	0.21678741866	-0.582799285131	-0.94677734375	-0.29833984375	0.22998046875	0.4375	-0.5625	0.5625
18	12	13	16	20	58	-0.78174371402	0.216798381652	-0.582828757431	-0.94873046875	-0.29345703125	0.22705078125	0.625	-0.375	0.5625
18	12	13	16	20	58	-0.781733368411	0.216856547312	-0.582821044266	-0.94921875	-0.29931640625	0.228515625	0.375	-0.3125	0.75
18	12	13	16	20	58	-0.781733368411	0.216856547312	-0.582821044266	-0.94677734375	-0.2939453125	0.23095703125	0.3125	-0.3125	0.8125
18	12	13	16	20	58	-0.781733368411	0.216856547312	-0.582821044266	-0.95068359375	-0.294921875	0.22998046875	0.6875	-0.125	0.75
18	12	13	16	20	58	-0.781733368411	0.216856547312	-0.582821044266	-0.95068359375	-0.29833984375	0.228515625	0.625	-0.3125	0.875
18	12	13	16	20	58	-0.781780019363	0.216730490183	-0.582810321251	-0.94970703125	-0.30078125	0.2255859375	1.0	-0.5	0.75
18	12	13	16	20	59	-0.781878183489	0.216601801046	-0.582731472637	-0.94482421875	-0.2958984375	0.228515625	1.0625	-0.6875	0.6875
18	12	13	16	20	59	-0.781854460781	0.216612137495	-0.58275928115	-0.947265625	-0.294921875	0.228515625	0.6875	-0.5	0.5625
18	12	13	16	20	59	-0.781878183489	0.216601801046	-0.582731472637	-0.94580078125	-0.29736328125	0.23486328125	0.5	-0.4375	0.5625
18	12	13	16	20	59	-0.781880407117	0.216602417052	-0.5827331299	-0.94921875	-0.294921875	0.23193359375	0.375	-0.4375	0.6875
18	12	13	16	20	59	-0.781880407117	0.216602417052	-0.5827331299	-0.94873046875	-0.29150390625	0.2294921875	-0.0625	-0.4375	0.5
18	12	13	16	20	59	-0.781880407117	0.216602417052	-0.5827331299	-0.94921875	-0.291015625	0.23046875	0.0	-0.6875	0.625
18	12	13	16	20	59	-0.781880407117	0.216602417052	-0.5827331299	-0.95166015625	-0.2919921875	0.2373046875	-0.625	-0.9375	0.5625
18	12	13	16	20	59	-0.781998691596	0.216662401871	-0.58254721855	-0.951171875	-0.29931640625	0.234375	-0.1875	-1.125	0.4375
18	12	13	16	20	59	-0.782127274953	0.216664208044	-0.582368978354	-0.9501953125	-0.298828125	0.2333984375	0.125	-1.125	0.4375
18	12	13	16	20	59	-0.782176537929	0.216660948006	-0.582299184487	-0.947265625	-0.29443359375	0.22509765625	-0.0625	-1.3125	0.625
18	12	13	16	20	59	-0.782261692732	0.216606596513	-0.582195075834	-0.95361328125	-0.29345703125	0.2294921875	-0.125	-1.1875	0.375
18	12	13	16	20	59	-0.78225134984	0.216664764916	-0.582187378179	-0.95263671875	-0.294921875	0.23046875	-0.6875	-1.0	0.3125
18	12	13	16	20	59	-0.782264316765	0.216729389782	-0.582135995421	-0.9501953125	-0.29443359375	0.22607421875	-0.8125	-1.0625	0.625
18	12	13	16	20	59	-0.782251722812	0.216786932935	-0.582126623405	-0.951171875	-0.30078125	0.2138671875	0.25	-1.25	0.625
18	12	13	16	20	59	-0.782262071547	0.216728767735	-0.582134324601	-0.947265625	-0.29248046875	0.2080078125	0.75	-1.4375	0.4375
18	12	13	16	20	59	-0.782270169576	0.216669977529	-0.582140350895	-0.95458984375	-0.29296875	0.21826171875	0.125	-1.1875	0.375
18	12	13	16	20	59	-0.782232030318	0.216720444695	-0.582172999703	-0.9482421875	-0.2958984375	0.22265625	-0.25	-0.625	0.4375
18	12	13	16	20	59	-0.782200241477	0.216789580035	-0.582194764626	-0.94970703125	-0.30810546875	0.22216796875	0.4375	-0.4375	0.5625
18	12	13	16	20	59	-0.782282371004	0.216490252785	-0.582210465554	-0.94482421875	-0.2958984375	0.2294921875	2.0625	-0.0625	0.625
18	12	13	16	20	59	-0.782326276827	0.216241379217	-0.582258751828	-0.93798828125	-0.2900390625	0.2255859375	2.0	0.0	0.4375
18	12	13	16	20	59	-0.782326276827	0.216241379217	-0.582258751828	-0.947265625	-0.2939453125	0.23583984375	0.3125	0.1875	0.25
18	12	13	16	20	59	-0.782326276827	0.216241379217	-0.582258751828	-0.9462890625	-0.29931640625	0.232421875	-0.375	0.3125	0.4375
18	12	13	16	20	59	-0.782326276827	0.216241379217	-0.582258751828	-0.94921875	-0.29541015625	0.2314453125	0.25	0.0	0.4375
18	12	13	16	20	59	-0.782326276827	0.216241379217	-0.582258751828	-0.9482421875	-0.29541015625	0.2412109375	0.8125	-0.25	0.375
18	12	13	16	20	59	-0.782379981949	0.216239353775	-0.582192265217	-0.94775390625	-0.296875	0.2412109375	0.25	-0.8125	0.4375
18	12	13	16	20	59	-0.782495923653	0.216298693817	-0.582004611805	-0.94970703125	-0.29541015625	0.23828125	-0.3125	-1.25	0.375
18	12	13	16	20	59	-0.782665486163	0.216355984751	-0.581750422186	-0.94677734375	-0.2998046875	0.23486328125	-0.1875	-1.6875	0.375
18	12	13	16	20	59	-0.78290704661	0.216294244869	-0.581443360855	-0.94384765625	-0.296875	0.2412109375	0.125	-1.8125	0.5
18	12	13	16	20	59	-0.783052819136	0.216361827267	-0.581216835279	-0.94677734375	-0.296875	0.23193359375	-0.1875	-1.75	0.4375
18	12	13	16	20	59	-0.783196289014	0.216428775004	-0.580988581291	-0.94677734375	-0.30126953125	0.2353515625	-0.4375	-1.75	0.375
18	12	13	16	20	59	-0.783355178247	0.216544150559	-0.580726491704	-0.9462890625	-0.30126953125	0.2353515625	-0.1875	-1.8125	0.4375
18	12	13	16	20	59	-0.783545040578	0.216484986675	-0.580487371937	-0.94775390625	-0.29296875	0.23095703125	0.0	-1.9375	0.4375
18	12	13	16	20	59	-0.783660553569	0.216544209039	-0.580299419263	-0.95263671875	-0.29833984375	0.232421875	-0.1875	-2.0	0.25
18	12	13	16	20	59	-0.783783032198	0.216727421534	-0.580055593989	-0.95361328125	-0.30078125	0.22900390625	-0.625	-2.0	0.25
18	12	13	16	20	59	-0.783911066413	0.216729071694	-0.579876910775	-0.95068359375	-0.29736328125	0.2294921875	-0.1875	-1.875	0.4375
18	12	13	16	20	59	-0.783977430801	0.216791579152	-0.579758786701	-0.95166015625	-0.30029296875	0.23046875	0.0625	-1.75	0.5
18	12	13	16	20	59	-0.784075384661	0.216784912144	-0.579618893759	-0.9443359375	-0.2939453125	0.234375	-0.3125	-1.3125	0.5
18	12	13	16	20	59	-0.784075384661	0.216784912144	-0.579618893759	-0.94873046875	-0.294921875	0.2294921875	-0.75	-0.9375	0.4375
18	12	13	16	20	59	-0.784043904193	0.216976185537	-0.579579706852	-0.94970703125	-0.296875	0.23193359375	-1.125	-0.625	0.4375
18	12	13	16	20	59	-0.783954619086	0.217151462414	-0.579619853442	-0.947265625	-0.2958984375	0.2265625	-1.1875	-0.4375	0.375
18	12	13	16	20	59	-0.783922996811	0.217220643542	-0.579641599246	-0.94921875	-0.30224609375	0.22705078125	-0.8125	-0.125	0.25
18	12	13	16	20	59	-0.783895263235	0.217212958724	-0.579682124743	-0.94873046875	-0.29296875	0.23095703125	-0.8125	0.1875	0.4375
18	12	13	16	20	59	-0.783895263235	0.217212958724	-0.579682124743	-0.94873046875	-0.2900390625	0.22998046875	-0.9375	0.25	0.4375
18	12	13	16	20	59	-0.783871733201	0.217223351122	-0.579709859219	-0.94677734375	-0.29052734375	0.2255859375	-0.5625	0.5	0.375
18	12	13	16	20	59	-0.783871733201	0.217223351122	-0.579709859219	-0.94873046875	-0.29248046875	0.2353515625	-0.9375	0.75	0.375
18	12	13	16	20	59	-0.783843997827	0.217215665208	-0.579750380391	-0.95068359375	-0.29052734375	0.234375	-0.75	0.875	0.5
18	12	13	16	20	59	-0.783843997827	0.217215665208	-0.579750380391	-0.95166015625	-0.29296875	0.23095703125	-0.625	0.8125	0.625
18	12	13	16	20	59	-0.783833604938	0.217273817144	-0.579742693553	-0.95361328125	-0.29296875	0.232421875	-0.375	0.8125	0.75
18	12	13	16	20	59	-0.783683271251	0.217221866229	-0.579950034535	-0.9521484375	-0.2900390625	0.22900390625	-0.375	0.5625	1.0625
18	12	13	16	20	59	-0.78354602128	0.217217657714	-0.580121898447	-0.95166015625	-0.2939453125	0.228515625	-0.5	0.375	1.0625
18	12	13	16	21	00	-0.783487773697	0.217218430053	-0.580184994684	-0.94580078125	-0.29443359375	0.2333984375	-0.6875	0.1875	1.125
18	12	13	16	21	00	-0.783442203417	0.217161682748	-0.580257481138	-0.9453125	-0.29150390625	0.23388671875	-0.1875	-0.0625	1.0625
18	12	13	16	21	00	-0.783431818099	0.217219838004	-0.580249789239	-0.94287109375	-0.2978515625	0.232421875	0.5625	-0.5	0.6875
18	12	13	16	21	00	-0.783544804159	0.217034220563	-0.58018203056	-0.94482421875	-0.296875	0.23095703125	1.6875	-0.6875	0.0625
18	12	13	16	21	00	-0.783557416378	0.216854611341	-0.580252403607	-0.95458984375	-0.291015625	0.2294921875	1.75	-0.3125	-0.4375
18	12	13	16	21	00	-0.783564166398	0.216734409946	-0.580318436993	-0.95361328125	-0.29931640625	0.22705078125	2.25	0.0	-0.5625
18	12	13	16	21	00	-0.783655766234	0.216420821423	-0.580356906629	-0.9541015625	-0.3046875	0.224609375	3.875	-0.1875	-0.6875
18	12	13	16	21	00	-0.783779832344	0.215811048682	-0.580480453623	-0.94091796875	-0.29638671875	0.2197265625	5.875	-0.25	-0.75
18	12	13	16	21	00	-0.783921491428	0.215084034241	-0.580617031139	-0.94384765625	-0.28466796875	0.216796875	6.25	-0.375	-1.375
18	12	13	16	21	00	-0.78403875799	0.214655481228	-0.58067450907	-0.9453125	-0.29248046875	0.2265625	4.625	-0.125	-1.5625
18	12	13	16	21	00	-0.784089649192	0.214286507225	-0.580789063728	-0.9501953125	-0.29638671875	0.228515625	4.0625	0.5	-1.25
18	12	13	16	21	00	-0.784039594752	0.213923305278	-0.581041331312	-0.9482421875	-0.30078125	0.2314453125	4.375	1.25	-0.625
18	12	13	16	21	00	-0.783918030978	0.213496206194	-0.581407907435	-0.94580078125	-0.3037109375	0.2236328125	4.25	1.875	0.1875
18	12	13	16	21	00	-0.783695201599	0.213013726914	-0.581911997823	-0.9482421875	-0.29296875	0.2236328125	3.3125	2.5	0.5625
18	12	13	16	21	00	-0.783423036793	0.212761974623	-0.582379449757	-0.94482421875	-0.2939453125	0.22509765625	1.75	2.625	1.125
18	12	13	16	21	00	-0.783121713838	0.212885085953	-0.58274850937	-0.93701171875	-0.30517578125	0.2255859375	0.0625	2.3125	1.0
18	12	13	16	21	00	-0.78292928043	0.212943581183	-0.582985694315	-0.93701171875	-0.29931640625	0.23974609375	-0.625	2.4375	0.875
18	12	13	16	21	00	-0.782677122797	0.213063461922	-0.583284876994	-0.9365234375	-0.2998046875	0.23876953125	-0.375	2.5	0.6875
18	12	13	16	21	00	-0.782506256673	0.213188858479	-0.583477093347	-0.94140625	-0.31103515625	0.2392578125	-0.25	2.25	0.625
18	12	13	16	21	00	-0.782434913149	0.213186049269	-0.583591469542	-0.94189453125	-0.3046875	0.23974609375	0.8125	1.875	0.4375
18	12	13	16	21	00	-0.782381866097	0.213066159181	-0.583719491954	-0.94384765625	-0.298828125	0.23779296875	0.9375	1.125	0.25
18	12	13	16	21	00	-0.782381866097	0.213066159181	-0.583719491954	-0.953125	-0.294921875	0.23095703125	0.4375	0.1875	0.25
18	12	13	16	21	00	-0.782399562889	0.213132012919	-0.583671660809	-0.94921875	-0.29833984375	0.2412109375	-0.0625	-0.875	0.375
18	12	13	16	21	00	-0.782550159817	0.213123160044	-0.583464321311	-0.955078125	-0.2998046875	0.2353515625	-0.1875	-1.6875	0.5
18	12	13	16	21	00	-0.782758413705	0.213130010188	-0.583177905883	-0.95166015625	-0.2998046875	0.23046875	0.0	-2.0625	0.5625
18	12	13	16	21	00	-0.7829489072	0.213070988076	-0.582939274452	-0.94970703125	-0.2998046875	0.22705078125	0.5	-2.375	0.5625
18	12	13	16	21	00	-0.783175119893	0.212944045613	-0.582681800937	-0.9443359375	-0.298828125	0.22314453125	1.0	-2.4375	0.625
18	12	13	16	21	00	-0.783341627434	0.212878503817	-0.582486364802	-0.9453125	-0.2998046875	0.2236328125	1.0	-2.4375	0.5625
18	12	13	16	21	00	-0.783542067846	0.212761150375	-0.582255127531	-0.94775390625	-0.2978515625	0.2265625	1.0	-2.25	0.8125
18	12	13	16	21	00	-0.783609782431	0.212640897421	-0.582199058697	-0.947265625	-0.298828125	0.21826171875	0.4375	-2.0	1.25
18	12	13	16	21	00	-0.783670745921	0.212701911958	-0.582076939552	-0.94677734375	-0.29931640625	0.2236328125	-0.5	-1.75	1.4375
18	12	13	16	21	00	-0.783659901143	0.212882066603	-0.582007851815	-0.94287109375	-0.30126953125	0.22412109375	-1.1875	-1.125	1.375
18	12	13	16	21	00	-0.783546197865	0.2130674386	-0.582075096513	-0.94677734375	-0.3046875	0.220703125	-1.4375	-0.6875	1.375
18	12	13	16	21	00	-0.783406633557	0.213245775759	-0.58218415998	-0.951171875	-0.30029296875	0.21728515625	-1.1875	-0.375	1.0625
18	12	13	16	21	00	-0.783372858972	0.213314230004	-0.582204417743	-0.9462890625	-0.3056640625	0.21923828125	-0.75	-0.1875	0.8125
18	12	13	16	21	00	-0.783336884524	0.213365465391	-0.582238712767	-0.947265625	-0.3017578125	0.2265625	-0.1875	-0.0625	0.5625
18	12	13	16	21	00	-0.783364720262	0.213373047295	-0.582198369036	-0.951171875	-0.29931640625	0.236328125	-0.75	0.125	0.375
18	12	13	16	21	00	-0.783235276138	0.2134931034	-0.582314951269	-0.9462890625	-0.29345703125	0.2333984375	-1.1875	0.4375	0.75
18	12	13	16	21	00	-0.783235276138	0.2134931034	-0.582314951269	-0.94189453125	-0.294921875	0.22265625	-0.875	0.0	0.625
18	12	13	16	21	00	-0.783225069241	0.213551353329	-0.582307362708	-0.9443359375	-0.28759765625	0.224609375	-0.25	-0.3125	0.5
18	12	13	16	21	00	-0.78315721092	0.213610523552	-0.582363318781	-0.95263671875	-0.28759765625	0.23681640625	-1.125	0.0	0.4375
18	12	13	16	21	00	-0.783043195039	0.21379581545	-0.582430335952	-0.9541015625	-0.29736328125	0.2314453125	-1.6875	0.1875	0.75
18	12	13	16	21	00	-0.782917763751	0.213916959927	-0.582549895152	-0.9541015625	-0.30517578125	0.22314453125	-0.4375	0.0625	1.125
18	12	13	16	21	00	-0.782918485534	0.213734061143	-0.582611464212	-0.94873046875	-0.29931640625	0.2236328125	0.9375	-0.3125	1.5625
18	12	13	16	21	00	-0.782914975794	0.213550007819	-0.582669884152	-0.94580078125	-0.287109375	0.22607421875	0.3125	-0.6875	1.0625
18	12	13	16	21	00	-0.782872031374	0.213799074289	-0.582622313206	-0.9443359375	-0.2919921875	0.2255859375	-1.5	-0.6875	0.625
18	12	13	16	21	00	-0.782864243691	0.214163142677	-0.582494452466	-0.9482421875	-0.31005859375	0.2314453125	-1.5	-0.5625	0.25
18	12	13	16	21	00	-0.782812781381	0.214165760944	-0.58256260707	-0.94921875	-0.306640625	0.22265625	0.625	-0.375	0.1875
18	12	13	16	21	00	-0.782885752608	0.213924889911	-0.5825714905	-0.9501953125	-0.2998046875	0.224609375	2.3125	-0.3125	0.4375
18	12	13	16	21	00	-0.78287513718	0.213677855716	-0.58268565796	-0.94775390625	-0.28857421875	0.22509765625	1.5	-0.0625	0.5625
18	12	13	16	21	01	-0.78287513718	0.213677855716	-0.58268565796	-0.94873046875	-0.28564453125	0.22998046875	-0.625	0.25	0.8125
18	12	13	16	21	01	-0.782750762569	0.213921358503	-0.582744973178	-0.947265625	-0.298828125	0.22705078125	-1.625	0.125	0.8125
18	12	13	16	21	01	-0.782610787903	0.214099558915	-0.582853702291	-0.94775390625	-0.30078125	0.22705078125	-1.375	0.375	1.0
18	12	13	16	21	01	-0.782542705043	0.214158661051	-0.582909481818	-0.951171875	-0.29736328125	0.23486328125	-0.75	0.1875	1.25
18	12	13	16	21	01	-0.782510522625	0.214166556734	-0.582930972747	-0.9501953125	-0.2958984375	0.2333984375	-0.9375	0.0625	1.4375
18	12	13	16	21	01	-0.782483638239	0.214281261513	-0.582910945232	-0.94873046875	-0.30126953125	0.23291015625	-0.9375	-0.375	1.375
18	12	13	16	21	01	-0.782492635827	0.214344757587	-0.582856615876	-0.95068359375	-0.29541015625	0.22705078125	-0.8125	-0.75	1.1875
18	12	13	16	21	01	-0.78249350733	0.214467060663	-0.58279623286	-0.94677734375	-0.29833984375	0.2265625	-0.9375	-1.0625	1.0625
18	12	13	16	21	01	-0.782553898214	0.214527917035	-0.582673691019	-0.9501953125	-0.29833984375	0.22900390625	-0.8125	-1.4375	0.9375
18	12	13	16	21	01	-0.782618597658	0.214589954719	-0.582554356597	-0.94921875	-0.29736328125	0.22216796875	-0.5	-1.5625	0.875
18	12	13	16	21	01	-0.782629607216	0.214654006752	-0.582501518464	-0.94677734375	-0.2919921875	0.22314453125	-0.4375	-1.375	0.9375
18	12	13	16	21	01	-0.782658890556	0.214601002823	-0.582462278139	-0.955078125	-0.2900390625	0.22314453125	-0.375	-1.1875	1.0
18	12	13	16	21	01	-0.782570750089	0.214593570216	-0.582564171705	-0.951171875	-0.28759765625	0.21826171875	-0.6875	-0.8125	1.25
18	12	13	16	21	01	-0.782515473665	0.214717216781	-0.582568457697	-0.94873046875	-0.29345703125	0.2197265625	-1.0625	-0.75	1.375
18	12	13	16	21	01	-0.782444787765	0.214775601259	-0.582622304525	-0.95166015625	-0.294921875	0.22509765625	-0.9375	-0.6875	1.3125
18	12	13	16	21	01	-0.78243805066	0.214773751971	-0.582617287956	-0.951171875	-0.29443359375	0.22412109375	-0.25	-0.8125	1.3125
18	12	13	16	21	01	-0.78243805066	0.214773751971	-0.582617287956	-0.95263671875	-0.29248046875	0.22119140625	0.4375	-0.9375	0.9375
18	12	13	16	21	01	-0.782496967138	0.214590073821	-0.58261571237	-0.95361328125	-0.2939453125	0.21826171875	1.625	-1.125	0.6875
18	12	13	16	21	01	-0.782563841301	0.214347544115	-0.582620061539	-0.94873046875	-0.291015625	0.2177734375	1.625	-1.1875	0.6875
18	12	13	16	21	01	-0.782610204877	0.214221462928	-0.582609141056	-0.9443359375	-0.29833984375	0.22509765625	1.4375	-1.0	0.8125
18	12	13	16	21	01	-0.782645362201	0.21404798294	-0.582635313699	-0.9462890625	-0.2939453125	0.21826171875	1.4375	-0.6875	0.8125
18	12	13	16	21	01	-0.782674068914	0.213856046278	-0.582672281341	-0.95263671875	-0.29052734375	0.2294921875	1.3125	-0.3125	0.75
18	12	13	16	21	01	-0.782650422132	0.213866262119	-0.582700115425	-0.95361328125	-0.29296875	0.2255859375	0.9375	-0.0625	0.9375
18	12	13	16	21	01	-0.782622587166	0.213858655964	-0.582740424414	-0.9501953125	-0.29345703125	0.2216796875	0.875	-0.5	0.8125
18	12	13	16	21	01	-0.782681322491	0.213674930602	-0.582738713907	-0.9482421875	-0.294921875	0.2216796875	1.5625	-0.6875	0.8125
18	12	13	16	21	01	-0.782765634963	0.213498182542	-0.582695011071	-0.9482421875	-0.2900390625	0.234375	1.1875	-0.625	0.5
18	12	13	16	21	01	-0.782755433701	0.213556433725	-0.582687417196	-0.9541015625	-0.29345703125	0.2353515625	0.4375	0.0	0.75
18	12	13	16	21	01	-0.782755433701	0.213556433725	-0.582687417196	-0.9501953125	-0.30029296875	0.22705078125	0.3125	0.0625	0.9375
18	12	13	16	21	01	-0.782688535452	0.213493800453	-0.582805117361	-0.94775390625	-0.2978515625	0.22119140625	0.75	-0.1875	1.125
18	12	13	16	21	01	-0.782688535452	0.213493800453	-0.582805117361	-0.94384765625	-0.29248046875	0.22412109375	0.1875	-0.75	0.875
18	12	13	16	21	01	-0.782686512071	0.213798413271	-0.582681544818	-0.94677734375	-0.2958984375	0.2255859375	-1.6875	-1.0625	0.5625
18	12	13	16	21	01	-0.782714441364	0.214111218053	-0.582519231783	-0.951171875	-0.3046875	0.23291015625	-1.375	-1.0	0.125
18	12	13	16	21	01	-0.782824057894	0.214107811874	-0.582387896493	-0.955078125	-0.30078125	0.23046875	0.75	-1.1875	0.0
18	12	13	16	21	01	-0.782921085425	0.213856835308	-0.582369270122	-0.9501953125	-0.2919921875	0.21826171875	2.5625	-1.1875	-0.1875
18	12	13	16	21	01	-0.783004596472	0.213557805211	-0.582385989518	-0.9541015625	-0.2802734375	0.2236328125	2.3125	-1.0625	-0.5625
18	12	13	16	21	01	-0.783065407273	0.213374642543	-0.582385823554	-0.95166015625	-0.28125	0.22314453125	1.5625	-0.75	-0.625
18	12	13	16	21	01	-0.783036692157	0.213244754668	-0.582486530783	-0.94384765625	-0.28564453125	0.21728515625	1.8125	-0.4375	-0.3125
18	12	13	16	21	01	-0.78307282976	0.212949423463	-0.582574447393	-0.94921875	-0.29150390625	0.22314453125	2.75	0.0	0.125
18	12	13	16	21	01	-0.783066947469	0.212520585432	-0.582753173378	-0.94921875	-0.28857421875	0.2294921875	2.75	0.625	0.8125
18	12	13	16	21	01	-0.782984815453	0.21220969704	-0.582981600842	-0.94970703125	-0.2900390625	0.2294921875	1.625	1.0625	1.25
18	12	13	16	21	01	-0.782872105738	0.212090166636	-0.583171666822	-0.94970703125	-0.29541015625	0.23291015625	0.3125	1.0	1.5
18	12	13	16	21	01	-0.782790585542	0.212084615996	-0.583278467646	-0.9462890625	-0.298828125	0.23583984375	0.0	0.75	1.4375
18	12	13	16	21	01	-0.782748838157	0.212211907234	-0.583292837915	-0.94140625	-0.3076171875	0.23486328125	-0.1875	0.375	1.0625
18	12	13	16	21	01	-0.782800338999	0.212209323148	-0.583224702906	-0.9453125	-0.30224609375	0.2431640625	-0.1875	-0.1875	0.875
18	12	13	16	21	01	-0.782792355425	0.212268190564	-0.583218754751	-0.9462890625	-0.3017578125	0.24072265625	-0.4375	-0.625	0.8125
18	12	13	16	21	01	-0.78287280126	0.21239552104	-0.583050118534	-0.94580078125	-0.291015625	0.23486328125	-1.125	-1.0	0.5625
18	12	13	16	21	01	-0.782930693438	0.212638800744	-0.582864680569	-0.9501953125	-0.29541015625	0.2373046875	-1.875	-1.4375	0.5625
18	12	13	16	21	01	-0.783025363907	0.212936515563	-0.582600165538	-0.953125	-0.291015625	0.23486328125	-2.3125	-1.8125	0.625
18	12	13	16	21	01	-0.783106380006	0.213186079445	-0.582370904685	-0.95263671875	-0.28759765625	0.23291015625	-2.375	-1.9375	0.6875
18	12	13	16	21	01	-0.783179770184	0.213311510037	-0.582196994061	-0.95556640625	-0.2900390625	0.22998046875	-1.75	-2.0	0.875
18	12	13	16	21	02	-0.783232605122	0.213553408036	-0.582007801952	-0.95361328125	-0.29150390625	0.220703125	-1.75	-2.0625	1.0
18	12	13	16	21	02	-0.783246335397	0.213740252985	-0.581895937168	-0.94970703125	-0.28955078125	0.22412109375	-1.5625	-1.8125	0.8125
18	12	13	16	21	02	-0.78322932	0.213796642091	-0.581883295946	-0.95166015625	-0.28955078125	0.21875	-0.75	-1.4375	0.75
18	12	13	16	21	02	-0.783195504186	0.213865106505	-0.581903517527	-0.94873046875	-0.2890625	0.2197265625	0.0625	-1.0	0.75
18	12	13	16	21	02	-0.78316768806	0.213857510829	-0.581943882922	-0.9521484375	-0.28759765625	0.21630859375	0.5625	-0.625	0.6875
18	12	13	16	21	02	-0.78318300414	0.213617558798	-0.582016297341	-0.95263671875	-0.291015625	0.22265625	1.625	-0.625	0.8125
18	12	13	16	21	02	-0.783147237389	0.213668834016	-0.582050748362	-0.95556640625	-0.29443359375	0.224609375	0.9375	-0.1875	0.875
18	12	13	16	21	02	-0.783123636282	0.213679046888	-0.58207856903	-0.9560546875	-0.29345703125	0.2216796875	0.0	0.3125	0.875
18	12	13	16	21	02	-0.783033547964	0.21361008713	-0.582240066062	-0.951171875	-0.2998046875	0.2197265625	1.5625	0.375	0.5625
18	12	13	16	21	02	-0.783016522099	0.21331691829	-0.582394859605	-0.94970703125	-0.2919921875	0.21923828125	2.5625	-0.0625	0.1875
18	12	13	16	21	02	-0.783054034023	0.213127411287	-0.582438398027	-0.95068359375	-0.29248046875	0.22998046875	2.0625	-0.0625	-0.3125
18	12	13	16	21	02	-0.783062913225	0.21312982798	-0.582445002409	-0.95458984375	-0.29833984375	0.24169921875	1.0625	0.75	-0.1875
18	12	13	16	21	02	-0.783062913225	0.21312982798	-0.582445002409	-0.9541015625	-0.30078125	0.23095703125	0.8125	0.75	0.0
18	12	13	16	21	02	-0.78304881282	0.212942892278	-0.582556579764	-0.94970703125	-0.30126953125	0.22802734375	2.0625	0.375	0.4375
18	12	13	16	21	02	-0.783070428987	0.212704633283	-0.582633695644	-0.947265625	-0.28857421875	0.22802734375	2.4375	0.0625	0.0625
18	12	13	16	21	02	-0.783072615352	0.212705227163	-0.582635322381	-0.9501953125	-0.29052734375	0.2314453125	0.375	-0.3125	0.0
18	12	13	16	21	02	-0.783072615352	0.212705227163	-0.582635322381	-0.94873046875	-0.2978515625	0.23876953125	-0.75	-0.5625	0.0625
18	12	13	16	21	02	-0.783062447963	0.212763499111	-0.582627757464	-0.947265625	-0.30078125	0.2314453125	0.0	-0.75	0.3125
18	12	13	16	21	02	-0.783132783403	0.212704991829	-0.582573643331	-0.943359375	-0.30029296875	0.22412109375	1.375	-0.875	0.25
18	12	13	16	21	02	-0.783132783403	0.212704991829	-0.582573643331	-0.943359375	-0.287109375	0.23388671875	0.4375	-0.9375	0.375
18	12	13	16	21	02	-0.783123580855	0.212885593486	-0.582505763828	-0.9521484375	-0.2919921875	0.22802734375	-1.125	-0.9375	0.4375
18	12	13	16	21	02	-0.783129782949	0.213131416262	-0.582388308697	-0.9443359375	-0.29541015625	0.2275390625	-1.8125	-1.1875	0.625
18	12	13	16	21	02	-0.783127883797	0.213436069647	-0.582264828261	-0.947265625	-0.29931640625	0.22802734375	-1.5625	-1.1875	0.625
18	12	13	16	21	02	-0.783116261641	0.213616001539	-0.582195153908	-0.9482421875	-0.2919921875	0.232421875	-1.625	-0.8125	0.6875
18	12	13	16	21	02	-0.783132386646	0.213803503267	-0.582085072983	-0.9501953125	-0.2900390625	0.2353515625	-1.8125	-0.6875	0.6875
18	12	13	16	21	02	-0.78307654327	0.214110094606	-0.582027896853	-0.9501953125	-0.296875	0.22900390625	-1.875	-0.75	0.8125
18	12	13	16	21	02	-0.783062423169	0.214289334976	-0.581956368271	-0.94775390625	-0.29248046875	0.22900390625	-1.625	-0.9375	0.9375
18	12	13	16	21	02	-0.783048201742	0.214468540992	-0.581884766595	-0.94677734375	-0.29248046875	0.2294921875	-1.875	-1.0625	0.9375
18	12	13	16	21	02	-0.783028612999	0.214829362257	-0.581748148021	-0.9501953125	-0.2958984375	0.22998046875	-2.75	-1.3125	0.875
18	12	13	16	21	02	-0.782995472867	0.215142181141	-0.581646804616	-0.9501953125	-0.294921875	0.22998046875	-2.5	-1.25	1.0
18	12	13	16	21	02	-0.783011224994	0.215451681677	-0.581475402644	-0.94970703125	-0.294921875	0.232421875	-2.5	-1.3125	1.0625
18	12	13	16	21	02	-0.783011604189	0.215695924016	-0.581353615239	-0.95166015625	-0.294921875	0.23046875	-2.25	-1.3125	1.0625
18	12	13	16	21	02	-0.782922326325	0.215993304713	-0.581332644079	-0.955078125	-0.296875	0.21875	-2.25	-1.375	1.0625
18	12	13	16	21	02	-0.782863020371	0.216298943182	-0.581272893585	-0.9462890625	-0.29345703125	0.22021484375	-2.125	-1.3125	1.0625
18	12	13	16	21	02	-0.782783753966	0.216538028931	-0.581259353873	-0.95458984375	-0.29345703125	0.22216796875	-2.1875	-1.25	1.0
18	12	13	16	21	02	-0.782721744815	0.216842913008	-0.581197596559	-0.94921875	-0.29541015625	0.22265625	-2.25	-1.1875	1.0
18	12	13	16	21	02	-0.782692150754	0.217156789799	-0.581098874558	-0.9453125	-0.2978515625	0.22607421875	-1.875	-1.0	0.9375
18	12	13	16	21	02	-0.782638060387	0.217280784136	-0.581104029708	-0.9501953125	-0.291015625	0.22998046875	-1.5	-0.6875	0.8125
18	12	13	16	21	02	-0.782583907902	0.217404763683	-0.581109139536	-0.95458984375	-0.29052734375	0.22607421875	-1.0625	-0.4375	0.75
18	12	13	16	21	02	-0.782504388246	0.217521694073	-0.581156445276	-0.947265625	-0.28955078125	0.2236328125	-1.125	-0.3125	0.75
18	12	13	16	21	02	-0.782442578477	0.217582511097	-0.581216901313	-0.94970703125	-0.29296875	0.22509765625	-0.875	-0.0625	0.6875
18	12	13	16	21	02	-0.782363009203	0.21769941913	-0.581264162544	-0.9501953125	-0.29052734375	0.23095703125	-1.3125	0.3125	0.6875
18	12	13	16	21	02	-0.782200336173	0.217888202258	-0.58140140468	-0.951171875	-0.296875	0.22509765625	-1.25	0.4375	0.875
18	12	13	16	21	02	-0.782189932915	0.217946336645	-0.581393672046	-0.94921875	-0.294921875	0.2197265625	0.0625	0.125	0.6875
18	12	13	16	21	02	-0.782138482914	0.217949006827	-0.58146182807	-0.94775390625	-0.2919921875	0.22119140625	0.25	0.0625	0.8125
18	12	13	16	21	02	-0.782138482914	0.217949006827	-0.58146182807	-0.9541015625	-0.2861328125	0.224609375	-0.5	0.5625	0.5
18	12	13	16	21	02	-0.781971224115	0.218014456177	-0.581656709789	-0.951171875	-0.291015625	0.2294921875	-0.625	1.0625	0.5625
