18	11	28	12	32	16	0.729342809102	0.129522591088	0.668793134097	-0.994140625	0.0830078125	0.01513671875	-33.9375	0.4375	-16.25
18	11	28	12	32	16	0.729039980893	0.12421268931	0.67026021686	-0.99853515625	0.0595703125	0.03076171875	-27.6875	3.4375	-13.0
18	11	28	12	32	16	0.728264665062	0.120492368522	0.671863981924	-0.99365234375	0.04833984375	0.04296875	-19.1875	7.25	-8.5
18	11	28	12	32	16	0.727211292972	0.118048232383	0.673497516087	-1.02392578125	0.05126953125	0.048828125	-12.5625	9.3125	-5.5625
18	11	28	12	32	16	0.726054817882	0.116339679099	0.675148578444	-1.0244140625	0.06298828125	0.04443359375	-11.5	10.25	-0.875
18	11	28	12	32	16	0.725008005148	0.114690187041	0.676727037639	-1.02685546875	0.0654296875	0.05908203125	-14.625	11.375	2.5625
18	11	28	12	32	16	0.724231299763	0.11286166652	0.678085588628	-1.03515625	0.0576171875	0.0693359375	-17.75	10.5625	5.25
18	11	28	12	32	16	0.723841110629	0.110843701569	0.679039746669	-1.03857421875	0.03759765625	0.08642578125	-18.3125	8.75	6.125
18	11	28	12	32	16	0.723474607978	0.109256690144	0.679832969177	-1.033203125	0.02587890625	0.09033203125	-13.625	8.0625	6.25
18	11	28	12	32	17	0.723046535015	0.108707232725	0.680442577439	-1.02490234375	0.02783203125	0.0966796875	-5.125	7.5625	5.5
18	11	28	12	32	17	0.722755473523	0.108648318797	0.680761067157	-1.0234375	0.02587890625	0.10009765625	0.125	6.0625	4.25
18	11	28	12	32	17	0.722739378097	0.109012121382	0.680684869904	-1.01611328125	0.02490234375	0.11181640625	4.125	3.75	3.8125
18	11	28	12	32	17	0.722953979479	0.109566227049	0.680287242595	-1.01904296875	0.0380859375	0.11572265625	7.125	1.25	1.9375
18	11	28	12	32	17	0.723358075556	0.10998997993	0.679716102387	-1.0166015625	0.05517578125	0.1083984375	5.9375	-0.4375	0.5
18	11	28	12	32	17	0.723960919586	0.109927798345	0.67903762165	-1.00732421875	0.0703125	0.10009765625	2.375	-2.5625	-1.0
18	11	28	12	32	17	0.724685941498	0.109133198299	0.678359265039	-1.0126953125	0.06884765625	0.08984375	-1.875	-3.6875	-2.6875
18	11	28	12	32	17	0.725341611692	0.107919209751	0.677852276179	-1.017578125	0.0595703125	0.07373046875	-5.125	-4.0625	-2.5
18	11	28	12	32	17	0.72593380484	0.106512611574	0.677469040605	-1.00146484375	0.05859375	0.06640625	-7.125	-3.8125	-1.625
18	11	28	12	32	17	0.726410766921	0.105412267412	0.677153268484	-0.9931640625	0.05908203125	0.0556640625	-6.0	-3.3125	-1.125
18	11	28	12	32	17	0.726599309262	0.104558519554	0.677097289788	-1.0029296875	0.060546875	0.04541015625	-4.5	-2.625	-0.875
18	11	28	12	32	17	0.726726058988	0.103826728233	0.677101643906	-1.0	0.06298828125	0.03466796875	-4.8125	-2.3125	-0.0625
18	11	28	12	32	17	0.726847665073	0.103216274911	0.677101204959	-1.00146484375	0.0693359375	0.033203125	-4.5	-2.1875	0.6875
18	11	28	12	32	17	0.726995808582	0.102967167247	0.677007598757	-1.0	0.0693359375	0.04052734375	-2.6875	-2.4375	1.25
18	11	28	12	32	17	0.727035354571	0.103216924236	0.676922347594	-0.9990234375	0.06640625	0.04541015625	1.1875	-1.8125	1.6875
18	11	28	12	32	17	0.726933437833	0.103943546988	0.676884284263	-0.99658203125	0.0654296875	0.046875	5.125	-0.875	2.1875
18	11	28	12	32	17	0.72677787503	0.10498513018	0.676848900328	-1.00341796875	0.06982421875	0.0537109375	6.375	-0.1875	2.4375
18	11	28	12	32	17	0.726602958417	0.105901892881	0.676856536112	-0.9990234375	0.07177734375	0.05029296875	5.875	0.0625	2.375
18	11	28	12	32	17	0.726531413331	0.1066328135	0.67678571041	-1.0068359375	0.0751953125	0.06103515625	4.625	-0.0625	1.75
18	11	28	12	32	17	0.726408432728	0.106937868594	0.676845904589	-1.0107421875	0.06787109375	0.060546875	2.75	0.125	1.0
18	11	28	12	32	17	0.726436106213	0.106941942533	0.676810650003	-1.01025390625	0.06396484375	0.068359375	0.8125	0.125	0.625
18	11	28	12	32	17	0.726467333531	0.106876516637	0.676782876339	-1.0126953125	0.06396484375	0.06787109375	0.125	0.125	0.375
18	11	28	12	32	17	0.726469728797	0.106815831406	0.676785107789	-1.0048828125	0.06005859375	0.08154296875	-0.375	0.0	0.4375
18	11	28	12	32	17	0.726530950475	0.106754820833	0.676724241612	-1.001953125	0.05615234375	0.0830078125	0.875	-0.0625	0.375
18	11	28	12	32	17	0.726598552638	0.10675578533	0.676608279233	-1.01708984375	0.060546875	0.07666015625	2.5	-0.125	-0.5
18	11	28	12	32	17	0.726665973335	0.106817761725	0.676492144684	-1.02490234375	0.06787109375	0.06787109375	2.125	-0.75	-0.4375
18	11	28	12	32	17	0.726867542786	0.10675943335	0.676265158425	-1.0078125	0.06982421875	0.06884765625	0.625	-1.625	-0.125
18	11	28	12	32	17	0.727072512321	0.106631605022	0.676045596581	-1.00537109375	0.06884765625	0.0654296875	0.1875	-1.6875	-0.5625
18	11	28	12	32	17	0.727192129075	0.106448134389	0.675921238658	-1.00537109375	0.064453125	0.06787109375	0.5625	-1.1875	-0.5625
18	11	28	12	32	17	0.727189700338	0.106447778864	0.67591898116	-1.00439453125	0.0673828125	0.06298828125	0.5	-0.8125	-0.3125
18	11	28	12	32	17	0.727155919451	0.106390730093	0.675944317301	-1.01171875	0.068359375	0.06787109375	1.0	0.1875	-0.4375
18	11	28	12	32	17	0.727155919451	0.106390730093	0.675944317301	-1.00634765625	0.076171875	0.06201171875	-0.625	0.4375	-0.5625
18	11	28	12	32	17	0.727145772372	0.105900941414	0.676056960865	-1.00439453125	0.08251953125	0.0615234375	-3.1875	0.1875	-0.8125
18	11	28	12	32	17	0.727189907586	0.105105004269	0.676163320147	-1.0078125	0.0751953125	0.0595703125	-5.0	0.1875	-1.25
18	11	28	12	32	17	0.727289165249	0.104072851595	0.67625989608	-1.0078125	0.068359375	0.0634765625	-6.625	-0.0625	-1.0625
18	11	28	12	32	17	0.7274333141	0.102846545919	0.676345742032	-0.99853515625	0.0556640625	0.06689453125	-7.625	0.0	-0.5625
18	11	28	12	32	17	0.727507034924	0.1016886249	0.676479609704	-0.9921875	0.0517578125	0.07177734375	-6.8125	0.5	-0.75
18	11	28	12	32	17	0.727516349362	0.100591236156	0.67667138594	-0.99951171875	0.0576171875	0.06640625	-6.5	1.125	-0.9375
18	11	28	12	32	17	0.727525890492	0.0992496935935	0.676924416944	-1.00146484375	0.05908203125	0.0615234375	-8.6875	0.8125	-0.8125
18	11	28	12	32	17	0.727645146643	0.0976622963366	0.677104908288	-0.998046875	0.0595703125	0.0634765625	-10.8125	0.4375	-0.8125
18	11	28	12	32	17	0.727822623163	0.0960135010261	0.677221738006	-0.99462890625	0.0419921875	0.06689453125	-10.8125	0.0	-0.375
18	11	28	12	32	17	0.728015241371	0.094793969133	0.677230577934	-0.99853515625	0.0361328125	0.072265625	-7.125	-0.125	0.5
18	11	28	12	32	17	0.72791729045	0.0944839816884	0.677379346756	-1.0107421875	0.0439453125	0.05810546875	-1.4375	0.25	0.75
18	11	28	12	32	17	0.727926361566	0.0947903437457	0.677326751157	-1.009765625	0.044921875	0.06591796875	1.5	-0.125	2.8125
18	11	28	12	32	17	0.727868449857	0.09558423417	0.67726862219	-1.0029296875	0.064453125	0.06591796875	3.8125	0.0625	3.375
18	11	28	12	32	17	0.72781868182	0.096318171747	0.67721807068	-1.01904296875	0.06982421875	0.06201171875	3.3125	0.125	3.3125
18	11	28	12	32	17	0.727873269955	0.0969276941458	0.677089994433	-1.0146484375	0.07275390625	0.0595703125	1.5	-0.8125	3.6875
18	11	28	12	32	17	0.72801430694	0.0972964538662	0.676924512783	-1.0048828125	0.08154296875	0.0615234375	-0.9375	-1.25	3.5
18	11	28	12	32	17	0.728137928933	0.0974797780624	0.676803869227	-0.9970703125	0.07568359375	0.06396484375	-1.4375	-0.8125	3.3125
18	11	28	12	32	17	0.728198363218	0.097662814849	0.676742267644	-0.9970703125	0.0673828125	0.0673828125	-0.75	0.0625	3.0
18	11	28	12	32	18	0.728132634777	0.0979063413683	0.676798948312	-1.00244140625	0.07080078125	0.0576171875	-0.1875	0.125	3.0
18	11	28	12	32	18	0.728179692278	0.0982706877257	0.676724916034	-0.99755859375	0.07861328125	0.0654296875	-0.1875	-0.125	3.375
18	11	28	12	32	18	0.728244027809	0.0983932086856	0.676666942611	-1.00439453125	0.07373046875	0.05908203125	-1.25	-0.6875	2.6875
18	11	28	12	32	18	0.728361082238	0.0981483801424	0.676601239974	-1.00830078125	0.0703125	0.060546875	-2.4375	-0.9375	1.75
18	11	28	12	32	18	0.728453684652	0.0978474322522	0.676569519079	-1.01025390625	0.068359375	0.060546875	-2.75	-0.8125	1.1875
18	11	28	12	32	18	0.728547025869	0.0974773458706	0.676542831328	-1.00537109375	0.06591796875	0.06396484375	-2.6875	-0.4375	0.875
18	11	28	12	32	18	0.728631370204	0.0971752652563	0.676503432686	-1.00341796875	0.0625	0.0712890625	-1.6875	-0.3125	0.8125
18	11	28	12	32	18	0.728676924086	0.0969900848025	0.676489055926	-1.00537109375	0.06884765625	0.06396484375	-1.1875	-0.25	0.5
18	11	28	12	32	18	0.72867232793	0.0966842827476	0.676545827004	-1.00732421875	0.0732421875	0.064453125	-2.125	-0.25	0.0
18	11	28	12	32	18	0.728849196633	0.0960120413955	0.676478992235	-1.01220703125	0.07470703125	0.06884765625	-4.25	-0.5625	-0.375
18	11	28	12	32	18	0.728955658832	0.0950944416361	0.676525539855	-1.0107421875	0.0703125	0.0615234375	-5.8125	-0.75	-0.625
18	11	28	12	32	18	0.729101715822	0.0940599199734	0.676547795577	-1.013671875	0.06298828125	0.06396484375	-6.5625	-0.875	-0.625
18	11	28	12	32	18	0.729232802873	0.0931454973788	0.676556155273	-1.00830078125	0.05322265625	0.06591796875	-5.375	-0.625	-0.4375
18	11	28	12	32	18	0.729349302093	0.0923512841298	0.676550980367	-0.99951171875	0.04736328125	0.06591796875	-3.875	-0.6875	-0.0625
18	11	28	12	32	18	0.729436703938	0.091980680515	0.676518820722	-0.99169921875	0.0595703125	0.06640625	-2.4375	-0.5	0.625
18	11	28	12	32	18	0.729337568913	0.0917394230543	0.676662171644	-1.00341796875	0.06787109375	0.06005859375	-1.125	0.25	-0.25
18	11	28	12	32	18	0.729291011944	0.0911918958691	0.676797685004	-1.005859375	0.06640625	0.06103515625	-3.125	0.25	-0.6875
18	11	28	12	32	18	0.729351311573	0.0903983004803	0.67685803783	-1.00048828125	0.060546875	0.0595703125	-4.5625	-0.375	-0.875
18	11	28	12	32	18	0.7294169077	0.0895443182926	0.676923305974	-0.99365234375	0.06201171875	0.06494140625	-4.9375	-0.4375	-1.125
18	11	28	12	32	18	0.729440459421	0.0887462495187	0.677010591239	-0.9970703125	0.0546875	0.064453125	-3.875	0.0625	-1.0625
18	11	28	12	32	18	0.729392817029	0.0881375086017	0.677145097249	-0.9921875	0.048828125	0.06787109375	-2.5	0.5	-0.625
18	11	28	12	32	18	0.729382254845	0.0878310514412	0.677196327825	-0.99658203125	0.05517578125	0.0693359375	-1.3125	0.5	-0.1875
18	11	28	12	32	18	0.729221705764	0.0875896164537	0.677400392615	-1.00341796875	0.06494140625	0.05908203125	-1.0625	0.625	-0.5
18	11	28	12	32	18	0.729157989158	0.0872230676801	0.67751997988	-1.01025390625	0.0625	0.05908203125	-1.75	0.1875	-0.625
18	11	28	12	32	18	0.729156768065	0.0867956574744	0.677579882998	-1.009765625	0.05712890625	0.0625	-2.0625	0.0	-0.4375
18	11	28	12	32	18	0.729179897873	0.0864321727263	0.677601376719	-1.00927734375	0.05419921875	0.0732421875	-1.375	0.25	-0.1875
18	11	28	12	32	18	0.72918191647	0.0863713721585	0.677603252531	-1.00439453125	0.0478515625	0.07177734375	0.3125	0.5625	0.25
18	11	28	12	32	18	0.729047549575	0.0864919941182	0.677713910158	-1.00390625	0.0478515625	0.06640625	1.875	0.6875	0.5625
18	11	28	12	32	18	0.728967993703	0.0866729089055	0.677757732737	-1.0029296875	0.05126953125	0.06982421875	1.875	0.8125	0.75
18	11	28	12	32	18	0.728841031603	0.0867333645346	0.677875261451	-1.00341796875	0.056640625	0.06787109375	1.0	0.8125	0.3125
18	11	28	12	32	18	0.728841031603	0.0867333645346	0.677875261451	-1.005859375	0.06103515625	0.06494140625	-0.0625	0.5	0.0
18	11	28	12	32	18	0.728844888711	0.0866727863637	0.677878848842	-1.0068359375	0.06005859375	0.06591796875	-0.5	0.0	-0.25
18	11	28	12	32	18	0.728843024638	0.0866725646919	0.677877115118	-1.00390625	0.06103515625	0.0654296875	-0.625	0.1875	-0.5
18	11	28	12	32	18	0.728805236692	0.0864311737986	0.677959779224	-1.0048828125	0.0703125	0.06640625	-1.5	0.5	-0.375
18	11	28	12	32	18	0.728797844264	0.0858809519999	0.678074979223	-0.9951171875	0.07275390625	0.068359375	-5.0	0.75	0.125
18	11	28	12	32	18	0.728899124845	0.0847798429417	0.67817770693	-0.99755859375	0.08203125	0.07373046875	-9.5	1.1875	-0.3125
18	11	28	12	32	18	0.728916201802	0.0828286121123	0.678498785733	-1.009765625	0.07421875	0.06591796875	-14.8125	1.3125	-0.6875
18	11	28	12	32	18	0.729173665594	0.080327519163	0.678633250801	-1.01171875	0.04345703125	0.06982421875	-18.4375	0.375	0.125
18	11	28	12	32	18	0.729451003343	0.0777609052179	0.678729408181	-0.99755859375	0.02294921875	0.06787109375	-17.6875	-0.25	0.9375
18	11	28	12	32	18	0.729546528669	0.0760554697726	0.678883575289	-0.9921875	0.0185546875	0.06640625	-12.0	0.4375	1.75
18	11	28	12	32	18	0.729460221497	0.0751983091695	0.679104210893	-0.990234375	0.02099609375	0.0654296875	-5.875	1.1875	2.4375
18	11	28	12	32	18	0.729326250653	0.0750750094822	0.679276244332	-0.99365234375	0.04345703125	0.060546875	-2.0	1.0	2.3125
18	11	28	12	32	18	0.72929767854	0.0750783515739	0.679306483468	-0.9970703125	0.06005859375	0.0498046875	-0.3125	0.25	0.9375
18	11	28	12	32	18	0.729238861736	0.0750785803914	0.679369593297	-1.009765625	0.06298828125	0.04150390625	-0.75	-0.3125	-0.5
18	11	28	12	32	18	0.729171691891	0.0746506763086	0.679485959663	-1.0068359375	0.05859375	0.0478515625	-1.25	-0.5	-1.5625
18	11	28	12	32	18	0.729036473005	0.0742831034533	0.679656825762	-1.0068359375	0.0498046875	0.048828125	-0.375	-0.4375	-1.75
18	11	28	12	32	18	0.72887228123	0.0743460713958	0.679796549372	-1.0068359375	0.041015625	0.046875	2.6875	-0.125	-0.875
18	11	28	12	32	18	0.728668524561	0.0750153808583	0.679899371343	-1.00732421875	0.04248046875	0.052734375	6.1875	0.1875	0.375
18	11	28	12	32	18	0.728436913144	0.0761764092177	0.679972114331	-1.0068359375	0.05029296875	0.05908203125	8.375	0.4375	1.5625
18	11	28	12	32	18	0.72826228949	0.0773980875932	0.679980043997	-1.0107421875	0.056640625	0.06103515625	8.25	0.4375	2.0625
18	11	28	12	32	19	0.728175019342	0.0786770829784	0.67989451303	-1.00537109375	0.06982421875	0.0634765625	7.5	-0.0625	2.0625
18	11	28	12	32	19	0.728191476073	0.0796554799895	0.679726762577	-1.00927734375	0.064453125	0.06591796875	6.875	-0.5	1.3125
18	11	28	12	32	19	0.728178590841	0.0805696345272	0.679592659717	-1.0146484375	0.060546875	0.07080078125	6.875	-0.625	0.75
18	11	28	12	32	19	0.728250342796	0.0814863974212	0.679358504343	-1.0146484375	0.06787109375	0.0751953125	7.0625	-0.625	0.1875
18	11	28	12	32	19	0.72836769394	0.0821572878608	0.679109944086	-1.009765625	0.06298828125	0.0751953125	5.8125	-0.75	-0.0625
18	11	28	12	32	19	0.728498720051	0.0827076468931	0.678874131915	-1.00537109375	0.0693359375	0.07568359375	4.0625	-1.0625	-0.0625
18	11	28	12	32	19	0.728622953202	0.0829520477006	0.678693023093	-1.01416015625	0.07958984375	0.07275390625	2.25	-1.0	-1.0
18	11	28	12	32	19	0.728746170271	0.0828300990919	0.678572005604	-1.017578125	0.0771484375	0.06689453125	-0.5625	-0.875	-1.375
18	11	28	12	32	19	0.728957497345	0.0823380778631	0.678419373942	-1.00390625	0.0693359375	0.06640625	-2.8125	-1.5	-1.0
18	11	28	12	32	19	0.729196956785	0.0818492608226	0.678231906235	-0.99609375	0.06005859375	0.06640625	-2.8125	-1.8125	-0.6875
18	11	28	12	32	19	0.72941620655	0.0816091605153	0.67802135752	-0.99560546875	0.048828125	0.072265625	-0.9375	-1.5625	0.0
18	11	28	12	32	19	0.729585252651	0.0816686244496	0.677825167798	-0.9970703125	0.048828125	0.06884765625	0.625	-1.3125	1.0
18	11	28	12	32	19	0.729623987177	0.0819713079119	0.677743412549	-1.0009765625	0.05712890625	0.06103515625	1.625	-1.1875	1.4375
18	11	28	12	32	19	0.729643205141	0.0821565797323	0.677700226425	-1.0068359375	0.05810546875	0.056640625	0.6875	-1.1875	1.3125
18	11	28	12	32	19	0.729766076908	0.0820956317699	0.677578890913	-1.01123046875	0.05419921875	0.060546875	-0.4375	-1.3125	1.125
18	11	28	12	32	19	0.729766076908	0.0820956317699	0.677578890913	-1.00537109375	0.0498046875	0.06494140625	-0.5625	-1.0	0.8125
18	11	28	12	32	19	0.729767955614	0.0820348053149	0.677580635269	-1.00634765625	0.04541015625	0.0703125	0.0625	-0.625	0.6875
18	11	28	12	32	19	0.729709239513	0.0820350663242	0.677643829115	-1.00048828125	0.048828125	0.06298828125	0.6875	-0.375	0.8125
18	11	28	12	32	19	0.729724974103	0.0821589138555	0.677597401716	-1.00048828125	0.05126953125	0.0634765625	1.5625	-0.4375	0.75
18	11	28	12	32	19	0.729770984413	0.0822792980084	0.677522409417	-1.005859375	0.05078125	0.0673828125	1.4375	-0.75	0.6875
18	11	28	12	32	19	0.729813280472	0.0824602945486	0.677443974238	-1.0048828125	0.0556640625	0.064453125	1.3125	-0.9375	0.6875
18	11	28	12	32	19	0.729885695351	0.0826446923821	0.677332460388	-1.0029296875	0.0546875	0.06494140625	1.4375	-1.25	0.625
18	11	28	12	32	19	0.729895709157	0.0828289410709	0.677280714903	-1.00927734375	0.0498046875	0.05517578125	2.0625	-1.25	0.75
18	11	28	12	32	19	0.729892678459	0.0831948252834	0.677216864651	-1.00830078125	0.05322265625	0.0576171875	2.875	-1.125	0.8125
18	11	28	12	32	19	0.729885725263	0.0836212948328	0.677149375821	-1.005859375	0.0546875	0.06298828125	3.0625	-0.8125	0.9375
18	11	28	12	32	19	0.729882285449	0.0840481608181	0.67708514739	-0.9951171875	0.056640625	0.064453125	2.625	-0.625	1.25
18	11	28	12	32	19	0.729816212807	0.0844748380468	0.677080475761	-1.001953125	0.0546875	0.064453125	3.3125	-0.25	0.8125
18	11	28	12	32	19	0.729702546334	0.0847199610465	0.677149314013	-1.01220703125	0.056640625	0.0625	2.5	-0.125	0.25
18	11	28	12	32	19	0.729681710847	0.0849616847762	0.6771299791	-1.0078125	0.060546875	0.0615234375	1.625	-0.4375	0.4375
18	11	28	12	32	19	0.729764814023	0.0849642540247	0.67702838049	-1.00830078125	0.05419921875	0.0751953125	1.0	-0.625	0.0625
18	11	28	12	32	19	0.729836447834	0.0850875644628	0.676916133352	-1.00732421875	0.048828125	0.0732421875	1.625	-0.5625	0.4375
18	11	28	12	32	19	0.729900393285	0.0853320580207	0.676796752027	-1.0048828125	0.0478515625	0.07421875	2.25	-0.5	1.0
18	11	28	12	32	19	0.729952763283	0.0857583102611	0.676666638829	-1.00048828125	0.05419921875	0.0751953125	3.125	-0.25	1.25
18	11	28	12	32	19	0.729944391341	0.0862456246312	0.67659784079	-1.001953125	0.06005859375	0.07470703125	2.875	-0.25	1.25
18	11	28	12	32	19	0.729949361169	0.0865514001286	0.67654140975	-1.0029296875	0.06005859375	0.06396484375	2.0	-0.75	0.875
18	11	28	12	32	19	0.729994346189	0.0866715695308	0.676465496556	-1.005859375	0.0576171875	0.0625	1.4375	-0.9375	0.375
18	11	28	12	32	19	0.730061560545	0.0868554134818	0.676349147429	-1.00830078125	0.05615234375	0.0732421875	1.75	-0.8125	0.1875
18	11	28	12	32	19	0.730068165768	0.0871003488463	0.676294229304	-1.00439453125	0.0576171875	0.06689453125	2.0625	-0.625	0.3125
18	11	28	12	32	19	0.730072656388	0.0873450356401	0.676237351402	-1.00244140625	0.05419921875	0.068359375	2.125	-0.625	0.75
18	11	28	12	32	19	0.730018563575	0.0876510583022	0.67624378477	-1.00244140625	0.05859375	0.05908203125	2.3125	-0.375	0.8125
18	11	28	12	32	19	0.73002505858	0.0879570325597	0.676188762454	-1.001953125	0.064453125	0.06884765625	1.5625	-0.3125	1.0
18	11	28	12	32	19	0.730009359896	0.0881992913921	0.676174221482	-1.001953125	0.0625	0.06298828125	1.0625	-0.5	1.0625
18	11	28	12	32	19	0.730076248128	0.0884441504504	0.676057564105	-1.0078125	0.05615234375	0.0673828125	1.6875	-1.0	1.125
18	11	28	12	32	19	0.730125166496	0.0889309787313	0.675924267997	-1.0	0.05517578125	0.06982421875	3.0	-1.0625	1.5625
18	11	28	12	32	19	0.730183699498	0.0896020789821	0.675738839517	-1.00048828125	0.04931640625	0.0673828125	4.625	-1.1875	2.0
18	11	28	12	32	19	0.730274084394	0.0903381515298	0.675521839852	-0.998046875	0.05126953125	0.06787109375	4.5	-1.6875	3.0
18	11	28	12	32	19	0.730477686612	0.0911876390205	0.675179158531	-0.982421875	0.05615234375	0.07080078125	3.9375	-1.9375	3.75
18	11	28	12	32	19	0.730558821883	0.0920446740245	0.674953584458	-1.00341796875	0.05517578125	0.0634765625	4.9375	-1.75	3.0625
18	11	28	12	32	19	0.730517948971	0.0929017645667	0.674850137352	-1.0146484375	0.06103515625	0.0634765625	5.1875	-1.0625	2.4375
18	11	28	12	32	19	0.730504861749	0.093754634663	0.674715971071	-1.009765625	0.064453125	0.0712890625	5.125	-0.875	2.25
18	11	28	12	32	20	0.730495314522	0.0945468952369	0.674585078217	-1.00830078125	0.0693359375	0.0693359375	5.0	-0.875	1.4375
18	11	28	12	32	20	0.730458752187	0.0952825363219	0.674485603047	-1.00830078125	0.06884765625	0.0693359375	5.0	-0.4375	1.1875
18	11	28	12	32	20	0.730311629662	0.0959506796347	0.674523511859	-1.0078125	0.07373046875	0.0654296875	4.3125	0.1875	0.8125
18	11	28	12	32	20	0.730213711656	0.0964421687216	0.674545826926	-1.00244140625	0.07763671875	0.0703125	2.625	0.375	0.875
18	11	28	12	32	20	0.730242202182	0.0964378702313	0.674515761979	-0.99853515625	0.0830078125	0.07373046875	0.75	0.125	0.875
18	11	28	12	32	20	0.730244418036	0.0964381628633	0.674517808736	-1.00439453125	0.0791015625	0.07763671875	0.0	-0.1875	0.6875
18	11	28	12	32	20	0.730244418036	0.0964381628633	0.674517808736	-1.0068359375	0.07568359375	0.0673828125	-0.375	-0.3125	0.6875
18	11	28	12	32	20	0.730244418036	0.0964381628633	0.674517808736	-1.00927734375	0.07275390625	0.07177734375	-0.75	-0.1875	0.8125
18	11	28	12	32	20	0.730140536888	0.0964405658153	0.674656692378	-1.01123046875	0.0751953125	0.06396484375	-1.6875	0.375	1.5625
18	11	28	12	32	20	0.730095246743	0.09619848749	0.674793324366	-1.0068359375	0.08203125	0.06494140625	-4.0625	0.75	1.375
18	11	28	12	32	20	0.730084185231	0.095525604037	0.674966216896	-1.00634765625	0.07421875	0.06591796875	-6.375	0.8125	1.1875
18	11	28	12	32	20	0.730147632812	0.0946103353	0.67509052156	-1.001953125	0.0703125	0.06787109375	-7.4375	0.25	0.625
18	11	28	12	32	20	0.73014305859	0.093694164432	0.67526940789	-1.00634765625	0.0576171875	0.0615234375	-6.3125	0.125	0.4375
18	11	28	12	32	20	0.730108695507	0.0930793981482	0.675420734366	-1.01123046875	0.0576171875	0.064453125	-4.4375	0.3125	0.4375
18	11	28	12	32	20	0.730087178713	0.0926571638898	0.675518335157	-1.0048828125	0.0556640625	0.06591796875	-2.8125	0.125	0.625
18	11	28	12	32	20	0.730091306541	0.0925966484426	0.675522154459	-0.998046875	0.0576171875	0.07080078125	-0.9375	-0.1875	0.625
18	11	28	12	32	20	0.730093406523	0.0925358752854	0.675524097483	-0.9921875	0.0576171875	0.07177734375	0.25	-0.3125	0.8125
18	11	28	12	32	20	0.730105466992	0.0927127741482	0.67547878308	-0.99072265625	0.05810546875	0.0703125	1.3125	-0.25	0.875
18	11	28	12	32	20	0.73007827726	0.0929612253379	0.675449060794	-1.00927734375	0.0654296875	0.06787109375	2.375	-0.3125	0.1875
18	11	28	12	32	20	0.730146320248	0.0931452336313	0.675333463235	-1.0009765625	0.0712890625	0.07373046875	2.0	-0.625	-0.125
18	11	28	12	32	20	0.730121450872	0.0933251712409	0.67531046083	-1.0029296875	0.07177734375	0.06689453125	2.0	-0.5	-0.75
18	11	28	12	32	20	0.730074194533	0.0933879707077	0.675323207785	-1.01513671875	0.0693359375	0.06298828125	2.0	-0.5	-1.125
18	11	28	12	32	20	0.730074194533	0.0933879707077	0.675323207785	-1.0078125	0.0693359375	0.06787109375	0.3125	-0.3125	-0.75
18	11	28	12	32	20	0.730074194533	0.0933879707077	0.675323207785	-1.00341796875	0.06494140625	0.0732421875	-0.375	-0.125	-0.3125
18	11	28	12	32	20	0.730072098796	0.09338770263	0.675321269215	-1.0029296875	0.06396484375	0.0771484375	-0.0625	0.1875	0.125
18	11	28	12	32	20	0.730072098796	0.09338770263	0.675321269215	-1.00390625	0.06884765625	0.072265625	0.125	-0.0625	0.1875
18	11	28	12	32	20	0.730076259008	0.0933271967246	0.675325117437	-1.00341796875	0.06884765625	0.0673828125	0.1875	-0.4375	0.25
18	11	28	12	32	20	0.730118120187	0.0934468184255	0.675246343724	-1.00732421875	0.06201171875	0.06982421875	1.1875	-0.8125	0.125
18	11	28	12	32	20	0.730173165379	0.0936901955076	0.675118731276	-1.00244140625	0.05908203125	0.07275390625	3.125	-1.0	0.1875
18	11	28	12	32	20	0.730237094506	0.0942398925039	0.67493829748	-0.998046875	0.06640625	0.07470703125	4.125	-0.9375	0.5
18	11	28	12	32	20	0.730152919866	0.0948551778525	0.674912291837	-1.001953125	0.06982421875	0.05615234375	4.1875	-0.8125	0.625
18	11	28	12	32	20	0.730079626397	0.0953418925201	0.674900963889	-1.0009765625	0.07373046875	0.0625	3.4375	-0.6875	0.625
18	11	28	12	32	20	0.730079664478	0.0956470892264	0.674839960745	-1.00537109375	0.0693359375	0.06591796875	1.9375	-0.375	0.3125
18	11	28	12	32	20	0.730053852638	0.0955826714515	0.674877138084	-1.00830078125	0.0693359375	0.06396484375	0.6875	-0.4375	0.1875
18	11	28	12	32	20	0.730025345528	0.0955869306938	0.674907211163	-1.00390625	0.06640625	0.06884765625	0.5625	-0.125	-0.0625
18	11	28	12	32	20	0.730023149227	0.0955866431178	0.674905180686	-1.0146484375	0.064453125	0.0654296875	0.8125	0.625	-0.3125
18	11	28	12	32	20	0.730023149227	0.0955866431178	0.674905180686	-1.01318359375	0.06591796875	0.0693359375	-0.1875	0.625	-0.0625
18	11	28	12	32	20	0.730075115248	0.0952802654379	0.674896793688	-1.01123046875	0.05810546875	0.076171875	-1.25	0.0625	0.125
18	11	28	12	32	20	0.730122772822	0.0950343719516	0.674884425606	-1.00244140625	0.0576171875	0.078125	-1.3125	0.1875	0.375
18	11	28	12	32	20	0.730124812883	0.0949736004721	0.674886311324	-1.009765625	0.05712890625	0.08154296875	0.0	0.1875	-0.0625
18	11	28	12	32	20	0.730124812883	0.0949736004721	0.674886311324	-1.01513671875	0.0625	0.0712890625	0.625	-0.0625	-0.375
18	11	28	12	32	20	0.730126847521	0.0949128279465	0.674888192028	-1.01123046875	0.0576171875	0.06689453125	0.5625	-0.75	-0.5
18	11	28	12	32	20	0.730145899957	0.0949153046675	0.674844764247	-1.00830078125	0.0625	0.06689453125	1.0625	-1.0625	-0.625
18	11	28	12	32	20	0.73018268619	0.0950342257291	0.674761313703	-1.0029296875	0.0615234375	0.0673828125	1.875	-1.0	-0.4375
18	11	28	12	32	20	0.730303739422	0.0952172029669	0.674577261019	-0.9990234375	0.05810546875	0.07666015625	2.5	-1.0	0.125
18	11	28	12	32	20	0.730314052561	0.0957068478409	0.674464712144	-0.99267578125	0.05908203125	0.06884765625	3.5	-0.625	1.0
18	11	28	12	32	20	0.730231419738	0.09631437482	0.674444766642	-0.99853515625	0.06689453125	0.06591796875	3.875	-0.375	1.3125
18	11	28	12	32	20	0.730135444599	0.0968061206431	0.674468873333	-1.00927734375	0.07666015625	0.0625	2.3125	-0.375	1.0625
18	11	28	12	32	20	0.730135444599	0.0968061206431	0.674468873333	-1.01220703125	0.07666015625	0.0673828125	-0.4375	-0.875	0.625
18	11	28	12	32	20	0.730253137459	0.0965003519159	0.674403787678	-1.0068359375	0.0673828125	0.07275390625	-2.0625	-0.8125	0.125
18	11	28	12	32	21	0.730255164327	0.0964395820492	0.674405659533	-1.00048828125	0.0556640625	0.0732421875	-0.875	-0.625	0.375
18	11	28	12	32	21	0.730274088475	0.0965031205182	0.674362097081	-0.9990234375	0.05517578125	0.0732421875	1.0	-0.0625	0.5625
18	11	28	12	32	21	0.730191452466	0.0967444162968	0.674403189693	-1.00341796875	0.06201171875	0.068359375	1.625	0.0625	0.8125
18	11	28	12	32	21	0.730191452466	0.0967444162968	0.674403189693	-1.00146484375	0.0673828125	0.06640625	0.75	-0.1875	0.875
18	11	28	12	32	21	0.730195762951	0.0966839495539	0.674407170847	-1.0048828125	0.06591796875	0.06396484375	-0.125	-0.625	0.6875
18	11	28	12	32	21	0.730134916878	0.0966839749486	0.674468385847	-1.0	0.0546875	0.06103515625	0.375	-0.875	0.5625
18	11	28	12	32	21	0.730147156752	0.0968076735168	0.674418653649	-1.0029296875	0.05517578125	0.068359375	1.8125	-0.4375	0.5
18	11	28	12	32	21	0.730028942611	0.0970523427049	0.674483262195	-1.00244140625	0.0556640625	0.06640625	2.5	0.0625	0.4375
18	11	28	12	32	21	0.729969142229	0.0972966646637	0.67448440686	-1.00048828125	0.05859375	0.06982421875	2.25	0.0	0.4375
18	11	28	12	32	21	0.729897219761	0.0974172907459	0.674535388492	-0.9912109375	0.06005859375	0.0654296875	1.125	-0.0625	0.5625
18	11	28	12	32	21	0.729826905186	0.0974160525782	0.674587852816	-1.005859375	0.0595703125	0.06982421875	1.1875	0.25	-0.375
18	11	28	12	32	21	0.729826905186	0.0974160525782	0.674587852816	-1.0087890625	0.06689453125	0.064453125	0.25	0.25	-0.6875
18	11	28	12	32	21	0.729826905186	0.0974160525782	0.674587852816	-1.00927734375	0.06396484375	0.06884765625	0.0625	-0.125	-0.4375
18	11	28	12	32	21	0.729826905186	0.0974160525782	0.674587852816	-1.00341796875	0.060546875	0.06689453125	0.5625	-0.375	-0.625
18	11	28	12	32	21	0.729758885756	0.097415120581	0.674642435954	-0.99951171875	0.05908203125	0.07080078125	1.0	0.1875	-0.125
18	11	28	12	32	21	0.729758885756	0.097415120581	0.674642435954	-0.9970703125	0.0595703125	0.0732421875	0.875	0.375	0.625
18	11	28	12	32	21	0.729775515447	0.0975394173373	0.674596771221	-0.99658203125	0.0615234375	0.0771484375	1.0	0.25	0.9375
18	11	28	12	32	21	0.729755742922	0.0977809217265	0.674578493708	-0.99365234375	0.064453125	0.07275390625	1.125	0.0625	0.875
18	11	28	12	32	21	0.729755742922	0.0977809217265	0.674578493708	-1.0029296875	0.0712890625	0.0693359375	0.75	-0.3125	0.5625
18	11	28	12	32	21	0.729755742922	0.0977809217265	0.674578493708	-1.00146484375	0.07275390625	0.0673828125	-0.3125	-0.3125	0.25
18	11	28	12	32	21	0.729755742922	0.0977809217265	0.674578493708	-1.00439453125	0.06689453125	0.06787109375	-1.0	0.0	0.125
18	11	28	12	32	21	0.729782228548	0.097479275593	0.67460297674	-1.00439453125	0.0556640625	0.0693359375	-1.375	-0.125	0.5
18	11	28	12	32	21	0.729749809439	0.0974749452722	0.674634045143	-1.0009765625	0.0537109375	0.06884765625	-0.5625	0.1875	0.6875
18	11	28	12	32	21	0.729754149771	0.097414488377	0.674638057663	-1.0048828125	0.0556640625	0.0673828125	0.4375	0.6875	0.8125
18	11	28	12	32	21	0.729693193319	0.097414499083	0.674699168461	-1.009765625	0.05712890625	0.0546875	0.625	0.5	0.75
18	11	28	12	32	21	0.729693193319	0.097414499083	0.674699168461	-1.01025390625	0.06103515625	0.0625	0.625	0.125	0.3125
18	11	28	12	32	21	0.729668991403	0.0973583772199	0.674733229962	-1.00927734375	0.0595703125	0.06201171875	0.75	-0.0625	0.0625
18	11	28	12	32	21	0.729528831259	0.0974780407899	0.674838584204	-1.00390625	0.05419921875	0.064453125	1.8125	0.25	-0.1875
18	11	28	12	32	21	0.729353228678	0.0976621613428	0.67496761258	-1.01171875	0.05615234375	0.0634765625	2.4375	0.625	0.0
18	11	28	12	32	21	0.729238969058	0.0979073663991	0.675035888408	-1.00439453125	0.05908203125	0.068359375	2.1875	0.5	0.4375
18	11	28	12	32	21	0.72915319447	0.0981481949362	0.67507402736	-0.9931640625	0.0634765625	0.0693359375	1.875	0.75	0.375
18	11	28	12	32	21	0.728914120242	0.0983930297965	0.675261841587	-1.01318359375	0.06494140625	0.06201171875	2.8125	0.8125	-0.6875
18	11	28	12	32	21	0.728751542244	0.0984568420839	0.675402949571	-1.01123046875	0.0634765625	0.060546875	1.25	0.5	-0.8125
18	11	28	12	32	21	0.728683012158	0.098455830006	0.675457045782	-1.005859375	0.06201171875	0.0634765625	1.125	0.0	-0.6875
18	11	28	12	32	21	0.728683012158	0.098455830006	0.675457045782	-1.0009765625	0.064453125	0.0673828125	0.9375	0.0625	-0.625
18	11	28	12	32	21	0.728610054757	0.0985152574665	0.675507034933	-0.9990234375	0.05712890625	0.0673828125	1.3125	0.0625	0.0
18	11	28	12	32	21	0.728618888008	0.0986385291966	0.675454185699	-1.0029296875	0.06005859375	0.0703125	1.625	-0.25	0.0
18	11	28	12	32	21	0.728598219683	0.0988188420597	0.675435025468	-1.0009765625	0.06494140625	0.06103515625	1.4375	-0.4375	0.125
18	11	28	12	32	21	0.728569582609	0.0988232367832	0.675465063769	-1.00537109375	0.06884765625	0.05615234375	0.6875	-0.625	-0.1875
18	11	28	12	32	21	0.728539544062	0.0988191623523	0.675498251855	-1.0068359375	0.06396484375	0.05712890625	-0.375	-0.875	-0.4375
18	11	28	12	32	21	0.728539544062	0.0988191623523	0.675498251855	-1.00634765625	0.06103515625	0.0673828125	-0.0625	-0.5625	-0.3125
18	11	28	12	32	21	0.728539544062	0.0988191623523	0.675498251855	-1.00439453125	0.05517578125	0.06201171875	0.75	-0.3125	0.125
18	11	28	12	32	21	0.728464550702	0.0989393411552	0.675546346641	-1.00146484375	0.05615234375	0.06005859375	1.3125	-0.1875	0.8125
18	11	28	12	32	21	0.728435902196	0.0989437403603	0.675576383903	-1.0078125	0.05859375	0.060546875	0.625	0.0625	0.875
18	11	28	12	32	21	0.728435902196	0.0989437403603	0.675576383903	-1.00439453125	0.0595703125	0.06298828125	-0.8125	-0.125	0.875
18	11	28	12	32	21	0.728423438697	0.0986978967968	0.675625862488	-1.00390625	0.04736328125	0.060546875	-1.0625	-0.375	0.625
18	11	28	12	32	21	0.728425313948	0.0986371130668	0.675627601817	-0.9990234375	0.04638671875	0.0654296875	0.0625	-0.5625	0.375
18	11	28	12	32	21	0.728338328669	0.0988167061188	0.675664568706	-1.00341796875	0.0517578125	0.06005859375	2.1875	-0.375	0.0625
18	11	28	12	32	21	0.728301793444	0.099064181257	0.67562626145	-1.00830078125	0.05126953125	0.06494140625	3.0	-0.3125	-0.1875
18	11	28	12	32	21	0.728181439396	0.0993085667978	0.675688896405	-1.0048828125	0.06005859375	0.06005859375	2.5	-0.25	-0.0625
18	11	28	12	32	22	0.728181439396	0.0993085667978	0.675688896405	-0.99560546875	0.05615234375	0.05859375	0.8125	-0.0625	0.375
18	11	28	12	32	22	0.728183284193	0.0992477803937	0.675690608216	-0.9970703125	0.05859375	0.06884765625	0.75	0.3125	0.1875
18	11	28	12	32	22	0.72801805418	0.0993722974935	0.675829286148	-1.01220703125	0.05859375	0.064453125	1.4375	0.8125	-0.5
18	11	28	12	32	22	0.727857641255	0.0993670641479	0.675976803095	-1.01318359375	0.06103515625	0.06787109375	1.1875	1.0625	-0.6875
18	11	28	12	32	22	0.727857641255	0.0993670641479	0.675976803095	-1.0078125	0.06201171875	0.060546875	0.625	0.8125	-0.625
18	11	28	12	32	22	0.727857641255	0.0993670641479	0.675976803095	-1.00390625	0.05908203125	0.07470703125	0.0	0.5625	-0.4375
18	11	28	12	32	22	0.727862054393	0.0993066299789	0.675980901669	-1.0029296875	0.05615234375	0.06884765625	0.1875	0.3125	0.125
18	11	28	12	32	22	0.727859460733	0.0993062761101	0.675978492882	-1.00390625	0.0576171875	0.0693359375	0.5625	0.0	0.625
18	11	28	12	32	22	0.727859460733	0.0993062761101	0.675978492882	-1.00244140625	0.05859375	0.06396484375	0.9375	-0.375	0.6875
18	11	28	12	32	22	0.727830758232	0.0993106879942	0.676008524607	-1.00927734375	0.0615234375	0.0556640625	0.9375	-0.625	0.5
18	11	28	12	32	22	0.727830758232	0.0993106879942	0.676008524607	-1.0078125	0.05908203125	0.06396484375	0.8125	-0.9375	0.3125
18	11	28	12	32	22	0.727877280675	0.0993697453198	0.675934004712	-1.009765625	0.05615234375	0.06201171875	1.0	-0.8125	0.1875
18	11	28	12	32	22	0.727860624013	0.0994895444143	0.675918536714	-1.01123046875	0.05810546875	0.064453125	1.25	-0.5	0.375
18	11	28	12	32	22	0.727860624013	0.0994895444143	0.675918536714	-1.0087890625	0.0546875	0.0654296875	0.75	-0.375	0.625
18	11	28	12	32	22	0.727862429954	0.0994287545824	0.675920213779	-1.00244140625	0.06396484375	0.06591796875	-0.6875	-0.5	0.6875
18	11	28	12	32	22	0.727942228021	0.0992482024788	0.675876596586	-1.00732421875	0.0625	0.06689453125	-1.5	-0.5	0.125
18	11	28	12	32	22	0.728049860758	0.099002085358	0.6758021511	-1.00537109375	0.05078125	0.064453125	-1.375	-0.9375	0.375
18	11	28	12	32	22	0.728110366135	0.0989409760671	0.675740620629	-1.0029296875	0.05419921875	0.0615234375	-0.0625	-1.0625	0.25
18	11	28	12	32	22	0.728081685666	0.0989453732783	0.675770652415	-1.00146484375	0.0634765625	0.056640625	0.75	-0.6875	0.5
18	11	28	12	32	22	0.728086081669	0.098884930609	0.675774732575	-1.00244140625	0.05615234375	0.06591796875	0.3125	-0.6875	0.8125
18	11	28	12	32	22	0.728056049098	0.0988808517386	0.67580789534	-0.99951171875	0.05615234375	0.0615234375	-0.125	-0.75	0.6875
18	11	28	12	32	22	0.728126151188	0.0987600060879	0.675755270333	-0.9931640625	0.04638671875	0.06103515625	-0.8125	-0.625	1.0625
18	11	28	12	32	22	0.728067437519	0.0987603214207	0.675818466483	-1.001953125	0.05419921875	0.060546875	0.5625	-0.125	0.4375
18	11	28	12	32	22	0.728064832118	0.0987599680053	0.675816048056	-1.01806640625	0.0556640625	0.0634765625	0.125	0.0	0.1875
18	11	28	12	32	22	0.728069219678	0.0986995244987	0.675820120748	-1.0068359375	0.052734375	0.06640625	-0.4375	-0.25	0.3125
18	11	28	12	32	22	0.728066611546	0.0986991709314	0.675817699785	-1.0048828125	0.05078125	0.0654296875	-0.25	-0.3125	0.0
18	11	28	12	32	22	0.728070996426	0.0986387265446	0.675821769989	-1.00244140625	0.05517578125	0.0673828125	0.5625	-0.25	0.4375
18	11	28	12	32	22	0.728070996426	0.0986387265446	0.675821769989	-1.00390625	0.052734375	0.064453125	0.9375	-0.375	0.625
18	11	28	12	32	22	0.728052609756	0.0988193473503	0.675804702818	-0.99755859375	0.0595703125	0.0625	1.3125	-0.3125	0.625
18	11	28	12	32	22	0.727972851107	0.0989999131797	0.67584835921	-1.00341796875	0.0615234375	0.06494140625	1.5	0.125	0.125
18	11	28	12	32	22	0.727868749501	0.0991244317978	0.675926082345	-1.00634765625	0.0625	0.060546875	1.125	0.125	-0.375
18	11	28	12	32	22	0.727868749501	0.0991244317978	0.675926082345	-1.0087890625	0.06005859375	0.056640625	-0.125	0.125	-0.875
18	11	28	12	32	22	0.727832001566	0.0988225436544	0.676009679415	-1.01025390625	0.0556640625	0.0654296875	-1.375	0.1875	-0.5
18	11	28	12	32	22	0.727866590993	0.0983916934743	0.676046151936	-1.00537109375	0.046875	0.06689453125	-2.125	-0.0625	-0.0625
18	11	28	12	32	22	0.727924974436	0.0980861507562	0.676043687477	-1.00439453125	0.05078125	0.06640625	-2.0625	-0.375	0.375
18	11	28	12	32	22	0.727926712756	0.0980253480368	0.676045301903	-1.001953125	0.04541015625	0.07275390625	-0.5	-0.625	0.8125
18	11	28	12	32	22	0.727998888665	0.0981489237003	0.675933570309	-1.0	0.04345703125	0.06787109375	1.1875	-0.75	1.0625
18	11	28	12	32	22	0.72805262603	0.0984531259043	0.675804717925	-1.00439453125	0.0498046875	0.0615234375	2.375	-1.125	0.9375
18	11	28	12	32	22	0.728115906656	0.0986975790982	0.67568472518	-1.0029296875	0.0537109375	0.06591796875	2.0625	-1.3125	0.9375
18	11	28	12	32	22	0.728180842553	0.0988812208664	0.675566267006	-1.00244140625	0.0478515625	0.0615234375	1.625	-1.25	0.8125
18	11	28	12	32	22	0.728182599175	0.0991256111534	0.675506858765	-1.001953125	0.04345703125	0.05859375	1.875	-1.0	1.1875
18	11	28	12	32	22	0.728152509122	0.0994266921509	0.675478945386	-1.00341796875	0.05078125	0.0615234375	2.0625	-0.4375	1.1875
18	11	28	12	32	22	0.728130790057	0.0996762159579	0.675454381991	-1.00048828125	0.0517578125	0.0634765625	1.625	-0.1875	1.25
18	11	28	12	32	22	0.728007761953	0.0999812789536	0.675514538571	-1.0107421875	0.052734375	0.05859375	2.4375	-0.3125	0.5
18	11	28	12	32	22	0.727881871796	0.100285946781	0.675572038326	-1.01708984375	0.05859375	0.0615234375	2.6875	0.125	0.0
18	11	28	12	32	22	0.727826184934	0.100469800436	0.675577005606	-1.01318359375	0.05712890625	0.0625	2.125	-0.25	-0.0625
18	11	28	12	32	22	0.727862293017	0.100588432611	0.675492829922	-1.0146484375	0.0537109375	0.06787109375	1.5625	-0.625	-0.0625
18	11	28	12	32	22	0.727895149385	0.100776091542	0.675401243434	-1.01220703125	0.05029296875	0.0732421875	2.125	-0.3125	0.5
18	11	28	12	32	22	0.727954882877	0.101020068016	0.67527795315	-1.01220703125	0.0546875	0.07958984375	2.0625	-0.0625	0.8125
18	11	28	12	32	23	0.72801833492	0.1013256004	0.675158112061	-1.00732421875	0.06396484375	0.078125	1.4375	0.125	1.0
18	11	28	12	32	23	0.728117669883	0.101566585857	0.675014947711	-1.0	0.064453125	0.080078125	1.0625	-0.3125	0.625
18	11	28	12	32	23	0.728117669883	0.101566585857	0.675014947711	-0.9990234375	0.06201171875	0.06494140625	0.25	-0.75	-0.0625
18	11	28	12	32	23	0.72824854528	0.101384698157	0.674901028008	-0.9990234375	0.06396484375	0.064453125	-0.625	-1.3125	-0.5
18	11	28	12	32	23	0.728379377812	0.101202799666	0.67478706291	-0.99658203125	0.0595703125	0.06298828125	-1.0625	-1.375	-0.5625
18	11	28	12	32	23	0.728477394176	0.10101634582	0.674703738184	-0.99853515625	0.05615234375	0.06396484375	-0.3125	-1.4375	-0.1875
18	11	28	12	32	23	0.728584627702	0.101075324074	0.674567923713	-0.99951171875	0.0556640625	0.0654296875	0.625	-1.25	0.3125
18	11	28	12	32	23	0.728618269072	0.101324145653	0.674476993654	-1.00146484375	0.0546875	0.06396484375	1.375	-0.875	0.8125
18	11	28	12	32	23	0.728568796752	0.101569912684	0.674487701417	-1.0048828125	0.05810546875	0.05810546875	1.4375	-0.6875	1.125
18	11	28	12	32	23	0.728550707822	0.101811543285	0.674470955213	-1.00537109375	0.056640625	0.060546875	1.125	-0.625	1.3125
18	11	28	12	32	23	0.728559776548	0.102056966018	0.67441831192	-1.00732421875	0.052734375	0.060546875	1.25	-0.8125	1.375
18	11	28	12	32	23	0.728474578459	0.102297728823	0.674456982989	-1.00830078125	0.05078125	0.05859375	1.625	-0.5	1.3125
18	11	28	12	32	23	0.72841473973	0.10260308174	0.674458092343	-1.0078125	0.0458984375	0.0654296875	1.9375	-0.1875	1.4375
18	11	28	12	32	23	0.728347411661	0.102968413934	0.674452266727	-1.00634765625	0.052734375	0.0673828125	2.5625	0.125	1.1875
18	11	28	12	32	23	0.728341409658	0.103333780822	0.67438567295	-0.99755859375	0.05517578125	0.0703125	2.3125	-0.0625	1.25
18	11	28	12	32	23	0.728305555548	0.103642543859	0.67434795321	-1.0	0.0556640625	0.06884765625	2.625	0.0625	0.6875
18	11	28	12	32	23	0.728180938862	0.103947371239	0.67440663818	-1.00927734375	0.0625	0.06640625	2.375	0.0625	0.125
18	11	28	12	32	23	0.728224623988	0.104066967052	0.674329531961	-1.01171875	0.0615234375	0.06787109375	1.0	-0.4375	0.0
18	11	28	12	32	23	0.728195953983	0.104071592753	0.674359505416	-1.0068359375	0.06005859375	0.0693359375	0.125	-0.875	-0.3125
18	11	28	12	32	23	0.728197717497	0.104010805584	0.674361138551	-1.00390625	0.05908203125	0.068359375	0.625	-0.75	-0.0625
18	11	28	12	32	23	0.728241378412	0.104130399092	0.67428400866	-1.00634765625	0.05908203125	0.06982421875	1.125	-0.375	0.25
18	11	28	12	32	23	0.728188432063	0.104375709877	0.674291501174	-1.00537109375	0.0615234375	0.06787109375	1.5625	-0.0625	0.6875
18	11	28	12	32	23	0.728192296768	0.104681457582	0.674234041081	-1.00341796875	0.06494140625	0.0703125	1.375	-0.125	1.0
18	11	28	12	32	23	0.728192296768	0.104681457582	0.674234041081	-1.00244140625	0.064453125	0.06884765625	0.75	-0.5625	0.625
18	11	28	12	32	23	0.728192296768	0.104681457582	0.674234041081	-1.00390625	0.06396484375	0.064453125	0.0625	-0.625	0.625
18	11	28	12	32	23	0.728192296768	0.104681457582	0.674234041081	-1.00439453125	0.05517578125	0.0654296875	-0.375	-0.625	0.6875
18	11	28	12	32	23	0.728189419599	0.104681043974	0.674231377107	-1.00146484375	0.05419921875	0.06591796875	0.3125	-0.625	0.8125
18	11	28	12	32	23	0.728177228972	0.104801366483	0.674220089792	-1.0029296875	0.05322265625	0.06689453125	1.0625	-0.3125	1.1875
18	11	28	12	32	23	0.728127017917	0.105047078367	0.674230114839	-1.00537109375	0.05517578125	0.06494140625	1.125	-0.1875	1.375
18	11	28	12	32	23	0.728199806599	0.105292930963	0.674118915682	-1.005859375	0.06201171875	0.07421875	0.875	-0.25	1.1875
18	11	28	12	32	23	0.728250874591	0.10535252783	0.674048647063	-1.00244140625	0.056640625	0.0654296875	0.5625	-0.75	1.0
18	11	28	12	32	23	0.728250874591	0.10535252783	0.674048647063	-1.01025390625	0.05615234375	0.06689453125	0.8125	-0.75	0.625
18	11	28	12	32	23	0.72824798907	0.105352110396	0.674045976306	-1.00634765625	0.0537109375	0.0673828125	0.875	-0.5625	0.5625
18	11	28	12	32	23	0.72822270865	0.105287417016	0.67408361364	-1.0029296875	0.05517578125	0.06103515625	0.9375	-0.375	0.5
18	11	28	12	32	23	0.7281742082	0.105472341305	0.674095218387	-1.0029296875	0.06005859375	0.06787109375	1.3125	-0.125	0.4375
18	11	28	12	32	23	0.728171314968	0.105471922235	0.674092540026	-1.00390625	0.056640625	0.06982421875	0.4375	-0.0625	0.5
18	11	28	12	32	23	0.728201275764	0.105476261904	0.674059236233	-0.99951171875	0.06005859375	0.072265625	0.1875	0.0625	0.3125
18	11	28	12	32	23	0.728176001397	0.105411563656	0.67409687841	-1.01708984375	0.0576171875	0.0673828125	0.4375	0.125	-0.5
18	11	28	12	32	23	0.728176001397	0.105411563656	0.67409687841	-1.0166015625	0.06201171875	0.0673828125	-0.5	-0.1875	-0.3125
18	11	28	12	32	23	0.728173105431	0.105411144432	0.674094197517	-1.009765625	0.0625	0.06689453125	-1.0	-0.125	-0.25
18	11	28	12	32	23	0.728197614399	0.105170535592	0.674116886289	-1.01025390625	0.05908203125	0.06982421875	-1.3125	-0.0625	-0.25
18	11	28	12	32	23	0.728199394204	0.105109753296	0.674118533913	-1.0087890625	0.0556640625	0.07763671875	-0.9375	0.1875	0.1875
18	11	28	12	32	23	0.728228064038	0.105105081408	0.674088570885	-1.00341796875	0.0498046875	0.07373046875	-0.9375	0.1875	0.4375
18	11	28	12	32	23	0.728225167936	0.105104663413	0.674085890092	-1.00048828125	0.05810546875	0.0712890625	-0.5625	-0.125	0.8125
18	11	28	12	32	23	0.728225167936	0.105104663413	0.674085890092	-1.001953125	0.06201171875	0.06787109375	-0.0625	-0.4375	0.375
18	11	28	12	32	23	0.728201168595	0.105048969921	0.674120176527	-1.0068359375	0.06103515625	0.06396484375	-0.5	-0.9375	0.25
18	11	28	12	32	23	0.728201168595	0.105048969921	0.674120176527	-1.00830078125	0.05908203125	0.06396484375	-0.5	-0.875	0.125
18	11	28	12	32	23	0.728171205099	0.105044647441	0.674153475299	-1.00146484375	0.05322265625	0.06494140625	-0.1875	-0.6875	0.375
18	11	28	12	32	23	0.728172973859	0.104983865468	0.674155112847	-1.00244140625	0.0556640625	0.0654296875	0.5	-0.375	0.75
18	11	28	12	32	23	0.728172973859	0.104983865468	0.674155112847	-0.99853515625	0.056640625	0.06396484375	0.5	-0.25	0.8125
18	11	28	12	32	23	0.728144298893	0.104988531654	0.67418507681	-1.0029296875	0.060546875	0.06396484375	-0.0625	-0.125	0.875
18	11	28	12	32	24	0.728144298893	0.104988531654	0.67418507681	-1.0078125	0.0634765625	0.06494140625	-0.875	-0.125	0.625
18	11	28	12	32	24	0.728164550664	0.104738505359	0.674208350933	-1.009765625	0.05224609375	0.0654296875	-1.375	-0.5	0.3125
18	11	28	12	32	24	0.728169204409	0.104678137935	0.674212659841	-1.0078125	0.0498046875	0.064453125	-1.0	-0.5625	0.1875
18	11	28	12	32	24	0.728166305811	0.104677721246	0.674209976026	-1.0029296875	0.05517578125	0.0712890625	-0.125	-0.25	0.1875
18	11	28	12	32	24	0.728166305811	0.104677721246	0.674209976026	-1.0048828125	0.05322265625	0.0732421875	0.375	-0.0625	0.3125
18	11	28	12	32	24	0.728170956877	0.104617352899	0.674214282453	-1.00244140625	0.056640625	0.0703125	0.0	-0.3125	0.3125
18	11	28	12	32	24	0.728168055545	0.104616936061	0.674211596107	-0.9951171875	0.0537109375	0.0673828125	-0.9375	-0.5625	0.8125
18	11	28	12	32	24	0.728168055545	0.104616936061	0.674211596107	-1.0078125	0.06005859375	0.06982421875	-0.375	-0.625	0.1875
18	11	28	12	32	24	0.728168055545	0.104616936061	0.674211596107	-1.013671875	0.06103515625	0.0693359375	-0.375	-0.625	-0.1875
18	11	28	12	32	24	0.728172703932	0.104556566793	0.674215900053	-1.009765625	0.05517578125	0.06982421875	-0.375	-0.9375	0.375
18	11	28	12	32	24	0.728231339998	0.104556222062	0.674152640204	-1.00146484375	0.06005859375	0.06494140625	-0.1875	-1.0625	0.3125
18	11	28	12	32	24	0.728231339998	0.104556222062	0.674152640204	-1.00537109375	0.05322265625	0.06787109375	0.25	-0.75	0.5625
18	11	28	12	32	24	0.728312381211	0.104620132534	0.674049080264	-1.00390625	0.05419921875	0.0703125	0.4375	-0.625	1.0625
18	11	28	12	32	24	0.728312381211	0.104620132534	0.674049080264	-0.9970703125	0.052734375	0.07080078125	-0.3125	-0.625	0.9375
18	11	28	12	32	24	0.728312381211	0.104620132534	0.674049080264	-1.001953125	0.0615234375	0.06103515625	-0.625	-0.75	0.75
18	11	28	12	32	24	0.728287065764	0.104555459575	0.674086687421	-1.005859375	0.056640625	0.06005859375	-0.6875	-0.625	0.25
18	11	28	12	32	24	0.728303901735	0.104374762987	0.674102270429	-1.00439453125	0.05712890625	0.0654296875	-1.125	-0.4375	0.0
18	11	28	12	32	24	0.728303901735	0.104374762987	0.674102270429	-1.00390625	0.05419921875	0.068359375	-1.0	-0.1875	0.3125
18	11	28	12	32	24	0.728305635594	0.104313973452	0.674103875251	-1.0	0.048828125	0.06298828125	-0.1875	0.0	0.6875
18	11	28	12	32	24	0.728275669249	0.104309681424	0.67413717456	-1.00048828125	0.05078125	0.068359375	0.25	0.3125	0.8125
18	11	28	12	32	24	0.728244096995	0.104313901749	0.674164449862	-0.9990234375	0.05517578125	0.06298828125	-0.1875	0.4375	0.875
18	11	28	12	32	24	0.728248732492	0.104253527374	0.674168741126	-1.00146484375	0.0546875	0.0654296875	-0.6875	0.1875	0.625
18	11	28	12	32	24	0.728248732492	0.104253527374	0.674168741126	-1.00390625	0.046875	0.06640625	-0.5	-0.125	0.1875
18	11	28	12	32	24	0.728250455395	0.104192735509	0.674170336086	-1.0048828125	0.0556640625	0.0634765625	0.5	-0.1875	0.0625
18	11	28	12	32	24	0.728173805343	0.104312576138	0.67421691985	-1.0029296875	0.052734375	0.0654296875	1.1875	-0.0625	0.0
18	11	28	12	32	24	0.728124154603	0.104436283722	0.674227463471	-0.99951171875	0.05224609375	0.06787109375	1.5	0.0	0.1875
18	11	28	12	32	24	0.728033949192	0.104615206985	0.674261488659	-1.00390625	0.05126953125	0.06640625	2.0625	0.0625	0.125
18	11	28	12	32	24	0.728068559166	0.104559141671	0.674232503735	-0.99853515625	0.0546875	0.0732421875	0.875	0.0	0.5625
18	11	28	12	32	24	0.728038596569	0.104554838692	0.674265792781	-1.0029296875	0.060546875	0.0654296875	0.8125	0.125	0.0
18	11	28	12	32	24	0.728038596569	0.104554838692	0.674265792781	-1.01513671875	0.0615234375	0.06689453125	0.4375	0.0	-0.375
18	11	28	12	32	24	0.728009910143	0.104559484873	0.674295755626	-1.01025390625	0.05517578125	0.06396484375	-0.0625	-0.5	0.125
18	11	28	12	32	24	0.728040294436	0.104494046284	0.674267365244	-1.001953125	0.05029296875	0.072265625	0.0625	-0.9375	0.3125
18	11	28	12	32	24	0.728040294436	0.104494046284	0.674267365244	-0.998046875	0.05078125	0.072265625	0.3125	-0.6875	0.8125
18	11	28	12	32	24	0.72799641375	0.104618584151	0.674283255026	-1.0009765625	0.04736328125	0.06005859375	1.1875	-0.5625	1.0625
18	11	28	12	32	24	0.728057530091	0.104862746202	0.674161252503	-1.0068359375	0.0478515625	0.0673828125	1.8125	-0.75	1.25
18	11	28	12	32	24	0.728062896734	0.105107671712	0.67410518373	-1.001953125	0.05322265625	0.064453125	1.1875	-0.625	1.125
18	11	28	12	32	24	0.72803294026	0.105103347009	0.674138482996	-1.00390625	0.0537109375	0.060546875	0.9375	-0.5	0.8125
18	11	28	12	32	24	0.728008922841	0.105047652906	0.674172763711	-1.005859375	0.0546875	0.0576171875	0.75	-0.3125	0.3125
18	11	28	12	32	24	0.72793669139	0.105107075514	0.674223435611	-1.0087890625	0.04931640625	0.06201171875	1.0	-0.0625	0.4375
18	11	28	12	32	24	0.727855080181	0.105287212856	0.674265414738	-1.00244140625	0.05419921875	0.06494140625	1.3125	0.125	0.5625
18	11	28	12	32	24	0.727809348671	0.105472538955	0.674279593657	-0.9990234375	0.0546875	0.06787109375	1.1875	0.125	0.8125
18	11	28	12	32	24	0.727809348671	0.105472538955	0.674279593657	-1.0009765625	0.056640625	0.068359375	0.8125	-0.125	0.8125
18	11	28	12	32	24	0.727806361977	0.10547210613	0.674276826632	-1.00390625	0.05908203125	0.07080078125	0.5	-0.3125	0.8125
18	11	28	12	32	24	0.727806361977	0.10547210613	0.674276826632	-1.00732421875	0.056640625	0.0673828125	0.5	-0.5	0.4375
18	11	28	12	32	24	0.727811046074	0.105411747448	0.674281166217	-1.00341796875	0.0546875	0.068359375	0.75	-0.6875	0.3125
18	11	28	12	32	24	0.72781965393	0.105535070584	0.67422810276	-1.0107421875	0.05224609375	0.06982421875	1.3125	-0.4375	0.25
18	11	28	12	32	24	0.727826518471	0.105719182321	0.674173423055	-1.00634765625	0.05078125	0.0712890625	1.5625	-0.1875	0.5625
18	11	28	12	32	24	0.727800367007	0.105898493522	0.674149199396	-1.01025390625	0.05810546875	0.072265625	1.875	0.1875	0.375
18	11	28	12	32	24	0.727800367007	0.105898493522	0.674149199396	-1.00048828125	0.05908203125	0.072265625	0.5625	0.125	0.6875
18	11	28	12	32	24	0.727800367007	0.105898493522	0.674149199396	-1.00439453125	0.0576171875	0.0673828125	0.625	0.0	0.0
18	11	28	12	32	25	0.727800367007	0.105898493522	0.674149199396	-1.01708984375	0.06396484375	0.064453125	0.3125	0.1875	-0.75
18	11	28	12	32	25	0.727800367007	0.105898493522	0.674149199396	-1.00927734375	0.05419921875	0.068359375	-0.375	-0.1875	-0.375
18	11	28	12	32	25	0.72776863991	0.105902758554	0.674176350566	-0.9970703125	0.05126953125	0.06884765625	-0.125	-0.375	-0.4375
18	11	28	12	32	25	0.727818220848	0.105901091343	0.674104699014	-1.00146484375	0.05029296875	0.072265625	1.0625	-0.0625	0.1875
18	11	28	12	32	25	0.727794997148	0.106080820617	0.67408318924	-1.00048828125	0.05419921875	0.072265625	1.5625	-0.0625	0.5625
18	11	28	12	32	25	0.727790283537	0.106141169328	0.674078823497	-0.9990234375	0.064453125	0.06640625	0.9375	-0.3125	0.75
18	11	28	12	32	25	0.727790283537	0.106141169328	0.674078823497	-0.99609375	0.0712890625	0.06787109375	-0.0625	-1.0	0.4375
18	11	28	12	32	25	0.728009965747	0.106085463274	0.673868535411	-0.99560546875	0.0703125	0.06982421875	-1.0	-1.5	0.3125
18	11	28	12	32	25	0.728381495921	0.106025195543	0.673507200704	-1.0	0.07470703125	0.087890625	-1.6875	-1.6875	0.3125
18	11	28	12	32	25	0.728727534234	0.105900181916	0.673183346601	-0.9990234375	0.0712890625	0.0849609375	-1.5625	-1.6875	0.625
18	11	28	12	32	25	0.729002416248	0.105843606278	0.672906525724	-1.0185546875	0.06494140625	0.07958984375	-0.8125	-1.8125	0.6875
18	11	28	12	32	25	0.729241673861	0.105659775463	0.672718882365	-1.017578125	0.0673828125	0.06591796875	-2.5	-2.0625	0.9375
18	11	28	12	32	25	0.72953986243	0.105231486181	0.672529300892	-1.01416015625	0.06396484375	0.06689453125	-4.6875	-2.3125	1.25
18	11	28	12	32	25	0.729827920749	0.10449656271	0.672391433885	-1.01171875	0.044921875	0.0625	-5.625	-2.4375	1.4375
18	11	28	12	32	25	0.7300102846	0.103886078962	0.672329706092	-1.005859375	0.03271484375	0.06591796875	-4.0625	-1.75	1.75
18	11	28	12	32	25	0.730066004805	0.103641173494	0.672324809207	-1.00341796875	0.0341796875	0.06201171875	-1.625	-1.0625	2.0
18	11	28	12	32	25	0.730008716685	0.103702743282	0.672389299582	-1.00634765625	0.04248046875	0.05615234375	-0.4375	-0.625	2.0625
18	11	28	12	32	25	0.729942807272	0.103518939805	0.672506886071	-1.00341796875	0.0341796875	0.060546875	-1.125	-0.5	2.0
18	11	28	12	32	25	0.729886047493	0.10345850899	0.672571864637	-1.00390625	0.037109375	0.06005859375	-0.125	-0.25	1.3125
18	11	28	12	32	25	0.729829276198	0.103398075929	0.672636833964	-0.994140625	0.03759765625	0.0673828125	0.1875	-0.0625	1.0625
18	11	28	12	32	25	0.729682754686	0.103516683559	0.672736371572	-1.001953125	0.0361328125	0.06787109375	2.25	0.125	0.375
18	11	28	12	32	25	0.729514827272	0.103824022857	0.672811407381	-1.013671875	0.05029296875	0.068359375	3.625	0.4375	-0.5
18	11	28	12	32	25	0.729331759595	0.104007140208	0.672933521595	-1.0107421875	0.05322265625	0.06689453125	2.9375	0.375	-0.6875
18	11	28	12	32	25	0.729276119751	0.104129984959	0.672938501862	-1.0048828125	0.06005859375	0.07080078125	1.75	0.0625	-0.875
18	11	28	12	32	25	0.729289514804	0.104192936204	0.672889823501	-1.0	0.05859375	0.07861328125	1.25	-0.0625	-0.75
18	11	28	12	32	25	0.729290575843	0.104376203941	0.672829763769	-1.0048828125	0.056640625	0.0791015625	1.875	0.0	-0.25
18	11	28	12	32	25	0.729285239446	0.104680631541	0.672763802241	-1.00634765625	0.06103515625	0.08056640625	2.4375	0.0	0.25
18	11	28	12	32	25	0.729334990298	0.105106272767	0.672631315849	-1.00146484375	0.0703125	0.07666015625	2.125	-0.1875	0.75
18	11	28	12	32	25	0.729396993662	0.105411599	0.672510131897	-1.00341796875	0.0693359375	0.07470703125	1.6875	-0.5625	0.5625
18	11	28	12	32	25	0.729396993662	0.105411599	0.672510131897	-1.00341796875	0.0654296875	0.07568359375	0.6875	-0.8125	0.5625
18	11	28	12	32	25	0.729396993662	0.105411599	0.672510131897	-1.00537109375	0.0625	0.07470703125	0.5	-0.6875	0.6875
18	11	28	12	32	25	0.729396993662	0.105411599	0.672510131897	-0.99951171875	0.0537109375	0.078125	0.875	-0.5625	0.8125
18	11	28	12	32	25	0.729466639354	0.105656995458	0.672395991894	-0.99853515625	0.0625	0.07763671875	0.875	-0.5	1.0625
18	11	28	12	32	25	0.729466639354	0.105656995458	0.672395991894	-1.00048828125	0.0576171875	0.07470703125	0.375	-0.4375	0.9375
18	11	28	12	32	25	0.729466639354	0.105656995458	0.672395991894	-1.00048828125	0.05712890625	0.068359375	-0.1875	-0.625	0.8125
18	11	28	12	32	25	0.729468321641	0.105596200857	0.672397542565	-1.00439453125	0.052734375	0.0673828125	-0.3125	-0.625	0.4375
18	11	28	12	32	25	0.7294383833	0.10559186705	0.672430982246	-1.0048828125	0.05224609375	0.06689453125	0.0625	-0.6875	0.5625
18	11	28	12	32	25	0.729409821561	0.10559656831	0.672460920849	-1.0078125	0.052734375	0.068359375	0.625	-0.4375	0.4375
18	11	28	12	32	25	0.729411498301	0.105535772432	0.672462466676	-1.0068359375	0.04931640625	0.07373046875	0.9375	-0.125	0.75
18	11	28	12	32	25	0.729328124087	0.105776687509	0.672502909966	-1.00439453125	0.0537109375	0.06591796875	1.4375	0.125	0.8125
18	11	28	12	32	25	0.729261873713	0.105836967611	0.67255913847	-0.99755859375	0.04541015625	0.06787109375	0.5	0.0625	1.25
18	11	28	12	32	25	0.729213081369	0.106021856729	0.672570431372	-1.0	0.05078125	0.06884765625	1.5	0.0	0.875
18	11	28	12	32	25	0.729094908645	0.106266574797	0.672635068503	-1.0126953125	0.05712890625	0.07080078125	2.0	0.125	0.375
18	11	28	12	32	25	0.728981372125	0.106450934689	0.672703985781	-1.0087890625	0.05126953125	0.06640625	1.625	0.1875	0.25
18	11	28	12	32	25	0.728967447827	0.10650993858	0.67269113644	-1.0048828125	0.05322265625	0.0712890625	1.0625	-0.1875	0.125
18	11	28	12	32	25	0.72897086161	0.10669354987	0.672633249179	-1.00439453125	0.05322265625	0.07470703125	1.75	-0.0625	0.25
18	11	28	12	32	25	0.728907828145	0.106937407043	0.672631407315	-1.0048828125	0.0517578125	0.07373046875	2.125	0.1875	0.5625
18	11	28	12	32	25	0.728901547074	0.107241669587	0.672564574377	-0.998046875	0.05517578125	0.0791015625	2.375	0.25	0.8125
18	11	28	12	32	25	0.7288380543	0.107607527823	0.672562308042	-1.00390625	0.0595703125	0.07275390625	2.125	0.1875	0.8125
18	11	28	12	32	25	0.728901112592	0.107851973367	0.672442099935	-1.0029296875	0.0634765625	0.0791015625	1.625	-0.25	0.8125
18	11	28	12	32	26	0.728878663078	0.108040803421	0.67241666129	-1.0107421875	0.056640625	0.068359375	1.5625	-0.5	0.3125
18	11	28	12	32	26	0.728908565428	0.108280337889	0.672326900703	-1.00390625	0.060546875	0.07568359375	1.4375	-0.4375	0.5
18	11	28	12	32	26	0.728963471931	0.108584611619	0.672199172433	-1.005859375	0.06201171875	0.07568359375	1.9375	-0.4375	0.625
18	11	28	12	32	26	0.729043329934	0.108953645674	0.672033411133	-1.0029296875	0.06201171875	0.0810546875	2.4375	-0.4375	0.875
18	11	28	12	32	26	0.729037798472	0.109319046975	0.671967274228	-1.00341796875	0.060546875	0.0703125	2.1875	-0.4375	1.125
18	11	28	12	32	26	0.729048219128	0.109564765015	0.671915840268	-1.00634765625	0.0634765625	0.06982421875	0.9375	-0.4375	1.125
18	11	28	12	32	26	0.729103251945	0.1096859392	0.671849266987	-1.00537109375	0.0615234375	0.0712890625	-0.25	-0.75	1.1875
18	11	28	12	32	26	0.729108132019	0.109625634584	0.671853763845	-1.00439453125	0.05224609375	0.0732421875	0.25	-0.9375	0.875
18	11	28	12	32	26	0.729113933091	0.109809624582	0.671798070122	-1.00390625	0.05224609375	0.0673828125	1.4375	-0.75	0.8125
18	11	28	12	32	26	0.729109886859	0.110114209786	0.671733303046	-1.00146484375	0.05615234375	0.07080078125	2.0625	-0.4375	0.8125
18	11	28	12	32	26	0.729085676071	0.110293664015	0.671710997502	-1.0029296875	0.0556640625	0.07177734375	1.6875	-0.25	0.75
18	11	28	12	32	26	0.729082504916	0.110293184293	0.671708075898	-0.99951171875	0.0595703125	0.07080078125	0.625	-0.125	0.5625
18	11	28	12	32	26	0.729082504916	0.110293184293	0.671708075898	-0.998046875	0.05859375	0.0732421875	-0.25	-0.25	0.5625
18	11	28	12	32	26	0.729087411736	0.110232889543	0.67171259658	-1.01123046875	0.05615234375	0.06884765625	0.5625	-0.125	-0.1875
18	11	28	12	32	26	0.729058818153	0.110237795176	0.671742489432	-1.01513671875	0.05859375	0.06689453125	0.25	-0.0625	-0.25
18	11	28	12	32	26	0.729025751376	0.110232795294	0.671773059247	-1.0078125	0.0556640625	0.0654296875	-0.1875	-0.1875	0.0
18	11	28	12	32	26	0.729025751376	0.110232795294	0.671773059247	-1.00537109375	0.05615234375	0.07470703125	-0.125	-0.4375	0.0
18	11	28	12	32	26	0.729030655156	0.110172499377	0.671777577917	-1.00048828125	0.05322265625	0.07568359375	0.375	-0.1875	0.3125
18	11	28	12	32	26	0.729027478756	0.110172019353	0.67177465097	-1.0029296875	0.05419921875	0.07763671875	0.8125	-0.125	0.75
18	11	28	12	32	26	0.729036289667	0.110356464477	0.671721732065	-1.0009765625	0.05517578125	0.07666015625	1.3125	-0.0625	0.9375
18	11	28	12	32	26	0.729043329934	0.110601684012	0.671667180391	-1.0	0.0634765625	0.07275390625	1.25	-0.125	0.8125
18	11	28	12	32	26	0.729043329934	0.110601684012	0.671667180391	-1.001953125	0.06103515625	0.06982421875	0.5625	-0.5625	0.4375
18	11	28	12	32	26	0.729043329934	0.110601684012	0.671667180391	-1.001953125	0.05810546875	0.07080078125	0.1875	-0.6875	0.0
18	11	28	12	32	26	0.729018361266	0.1105368597	0.671705213139	-1.00341796875	0.060546875	0.06640625	0.25	-0.5	-0.0625
18	11	28	12	32	26	0.728989761852	0.11054177834	0.671735102502	-1.005859375	0.05908203125	0.06982421875	0.875	-0.3125	0.0625
18	11	28	12	32	26	0.728973542155	0.110661394283	0.671720156696	-1.0078125	0.05908203125	0.0703125	1.0	-0.25	0.375
18	11	28	12	32	26	0.728973542155	0.110661394283	0.671720156696	-1.00732421875	0.06298828125	0.07275390625	0.75	-0.25	0.75
18	11	28	12	32	26	0.728973542155	0.110661394283	0.671720156696	-1.009765625	0.06396484375	0.068359375	0.375	-0.1875	0.5
18	11	28	12	32	26	0.728970349675	0.110660909651	0.671717214952	-1.01025390625	0.060546875	0.072265625	-0.3125	-0.3125	0.4375
18	11	28	12	32	26	0.728970349675	0.110660909651	0.671717214952	-1.0078125	0.05859375	0.0693359375	-0.5	-0.375	0.25
18	11	28	12	32	26	0.728970349675	0.110660909651	0.671717214952	-1.01025390625	0.060546875	0.07373046875	-0.6875	-0.3125	0.0625
18	11	28	12	32	26	0.729016901467	0.110475602114	0.671703868105	-1.00830078125	0.05712890625	0.076171875	-1.0625	-0.375	0.3125
18	11	28	12	32	26	0.729021815931	0.110415310199	0.671708396209	-1.0087890625	0.05908203125	0.07568359375	-0.8125	-0.4375	0.25
18	11	28	12	32	26	0.729163070543	0.110235100067	0.671603990054	-1.00146484375	0.05419921875	0.0771484375	-1.625	-0.5625	0.625
18	11	28	12	32	26	0.729247512859	0.109994477122	0.671564504602	-0.99951171875	0.05224609375	0.0732421875	-1.375	-0.6875	0.625
18	11	28	12	32	26	0.7292176197	0.109989968251	0.67159801369	-1.01123046875	0.05322265625	0.0703125	-0.25	-0.875	0.125
18	11	28	12	32	26	0.729219333991	0.109929188961	0.671599592526	-1.0087890625	0.05224609375	0.0703125	-0.3125	-1.0	0.375
18	11	28	12	32	26	0.729344341644	0.109868592766	0.671480216121	-1.0009765625	0.05810546875	0.07177734375	-0.3125	-1.1875	0.4375
18	11	28	12	32	26	0.729341161086	0.109868113646	0.6714772879	-0.99951171875	0.0546875	0.06982421875	-0.125	-0.875	0.75
18	11	28	12	32	26	0.729344341644	0.109868592766	0.671480216121	-1.0009765625	0.04931640625	0.06787109375	-0.3125	-0.4375	1.25
18	11	28	12	32	26	0.729348974654	0.109930329178	0.671484481561	-0.9990234375	0.0556640625	0.0732421875	-0.25	-0.125	1.4375
18	11	28	12	32	26	0.72934551823	0.110051884624	0.67148129936	-0.99462890625	0.0595703125	0.0712890625	-0.1875	-0.1875	1.4375
18	11	28	12	32	26	0.729358159417	0.110053792069	0.67149293763	-1.00341796875	0.06298828125	0.0673828125	-0.75	-0.125	1.0
18	11	28	12	32	26	0.729347510016	0.109930108422	0.671544171495	-1.00634765625	0.06103515625	0.064453125	-1.4375	-0.3125	0.5625
18	11	28	12	32	26	0.729340311948	0.109684872422	0.671598581669	-1.0	0.05078125	0.0673828125	-1.375	-0.25	0.375
18	11	28	12	32	26	0.729345193514	0.109624568378	0.671603076762	-1.0029296875	0.05078125	0.078125	-0.3125	0.125	0.5
18	11	28	12	32	26	0.729212190285	0.109745000262	0.671715087812	-1.00146484375	0.05126953125	0.0703125	1.0	0.375	0.8125
18	11	28	12	32	26	0.729167529917	0.109869542428	0.67173017468	-1.001953125	0.0517578125	0.07177734375	1.0	0.3125	0.8125
18	11	28	12	32	26	0.729167529917	0.109869542428	0.67173017468	-1.00244140625	0.0576171875	0.07373046875	0.3125	0.125	0.75
18	11	28	12	32	26	0.729142521536	0.109804737673	0.67176817278	-1.00439453125	0.05517578125	0.068359375	0.125	-0.1875	0.4375
18	11	28	12	32	27	0.729139366468	0.109804262538	0.671765265976	-1.00341796875	0.05126953125	0.06787109375	0.5	-0.3125	0.25
18	11	28	12	32	27	0.729118246973	0.10993235352	0.671741005269	-1.00732421875	0.052734375	0.07470703125	1.5625	-0.25	0.4375
18	11	28	12	32	27	0.729049287974	0.110236354159	0.671733708486	-1.00830078125	0.05615234375	0.07177734375	2.4375	0.125	0.4375
18	11	28	12	32	27	0.728983384655	0.110540811321	0.671729226168	-1.0068359375	0.0556640625	0.07421875	2.375	0.0625	0.6875
18	11	28	12	32	27	0.728917368189	0.11084524708	0.671724638831	-1.00537109375	0.05810546875	0.07177734375	2.1875	-0.0625	0.5625
18	11	28	12	32	27	0.72893418163	0.110969882951	0.671679093507	-0.99755859375	0.05517578125	0.07421875	1.0625	-0.0625	0.9375
18	11	28	12	32	27	0.728898355005	0.111208575014	0.671646080931	-1.0009765625	0.05517578125	0.0732421875	2.0625	0.0	0.3125
18	11	28	12	32	27	0.728748418422	0.111396755475	0.671737695345	-1.01513671875	0.05419921875	0.06884765625	2.375	0.3125	0.0625
18	11	28	12	32	27	0.728662081232	0.111575999706	0.671775411797	-1.00439453125	0.052734375	0.068359375	1.75	0.0625	0.4375
18	11	28	12	32	27	0.728617025777	0.111700524183	0.671790147081	-1.00048828125	0.056640625	0.07421875	1.0625	0.1875	0.3125
18	11	28	12	32	27	0.728597325289	0.111819577777	0.671771983089	-0.9990234375	0.05126953125	0.080078125	1.0625	0.5625	0.6875
18	11	28	12	32	27	0.728480475897	0.112064529011	0.67183783814	-1.00439453125	0.0517578125	0.07080078125	1.9375	0.6875	0.75
18	11	28	12	32	27	0.728326616543	0.112374229053	0.671925862798	-1.00341796875	0.0595703125	0.0703125	2.3125	0.8125	0.75
18	11	28	12	32	27	0.728169687286	0.11273507229	0.672015780135	-1.00439453125	0.06396484375	0.06787109375	2.25	0.5625	0.625
18	11	28	12	32	27	0.728047519999	0.113040242039	0.672076730609	-1.009765625	0.06640625	0.06494140625	2.0	0.1875	0.0625
18	11	28	12	32	27	0.727995600084	0.113163732922	0.672085147357	-1.0078125	0.0556640625	0.0712890625	1.3125	0.3125	0.125
18	11	28	12	32	27	0.727908725403	0.113342822663	0.672122328035	-0.9990234375	0.0546875	0.0712890625	1.9375	0.375	0.4375
18	11	28	12	32	27	0.727799422088	0.113772066653	0.67213411909	-1.00537109375	0.05712890625	0.0703125	3.0	0.4375	0.8125
18	11	28	12	32	27	0.727746733369	0.114261669451	0.672080791842	-1.0009765625	0.06005859375	0.07275390625	3.0625	0.25	1.125
18	11	28	12	32	27	0.727622274802	0.114627517161	0.67213962672	-1.00048828125	0.0595703125	0.0625	1.9375	0.0	1.0625
18	11	28	12	32	27	0.727630155137	0.114811871639	0.672085868486	-1.0009765625	0.06201171875	0.0693359375	1.3125	-0.1875	0.5
18	11	28	12	32	27	0.727582928513	0.114875089888	0.672098626331	-1.0029296875	0.05078125	0.06396484375	1.1875	-0.5	0.4375
18	11	28	12	32	27	0.727513588738	0.115117931736	0.672090957764	-1.0029296875	0.048828125	0.0654296875	2.5625	-0.375	0.3125
18	11	28	12	32	27	0.727393207575	0.115545467982	0.672092524009	-1.00537109375	0.05615234375	0.06298828125	3.625	-0.125	0.375
18	11	28	12	32	27	0.727311490329	0.115969438706	0.672073415576	-1.00390625	0.05908203125	0.06494140625	3.0625	-0.125	0.6875
18	11	28	12	32	27	0.72726973423	0.116277704046	0.672030195037	-1.001953125	0.05615234375	0.06689453125	2.5	-0.125	0.8125
18	11	28	12	32	27	0.727210039897	0.11652207203	0.672031436903	-0.99951171875	0.0517578125	0.06884765625	1.6875	0.0	0.8125
18	11	28	12	32	27	0.727084804795	0.116765717896	0.672089555541	-1.00048828125	0.05126953125	0.06103515625	2.4375	0.1875	0.75
18	11	28	12	32	27	0.726856485268	0.117073458074	0.672226274123	-1.0126953125	0.05224609375	0.0615234375	3.125	0.4375	0.0625
18	11	28	12	32	27	0.726725730017	0.117377253387	0.672279286949	-1.01025390625	0.05419921875	0.0673828125	2.5	0.5625	0.25
18	11	28	12	32	27	0.726596558897	0.117620259492	0.672333761446	-1.00146484375	0.0576171875	0.0673828125	2.5	0.3125	0.1875
18	11	28	12	32	27	0.726591508972	0.117863592391	0.67226805106	-1.0009765625	0.05615234375	0.07568359375	2.0625	0.3125	0.5
18	11	28	12	32	27	0.72649368141	0.118172724518	0.672290489585	-0.99951171875	0.0576171875	0.06689453125	2.375	0.375	0.625
18	11	28	12	32	27	0.726410523352	0.118596390797	0.672270019679	-1.0029296875	0.0625	0.0634765625	2.8125	0.0625	0.5
18	11	28	12	32	27	0.726364039395	0.119026040069	0.672222450912	-1.00830078125	0.07177734375	0.0703125	2.6875	-0.125	0.4375
18	11	28	12	32	27	0.726284050814	0.11945019644	0.672204912313	-1.00927734375	0.072265625	0.06494140625	2.4375	-0.1875	0.125
18	11	28	12	32	27	0.726223367845	0.119694404467	0.672205240383	-1.01171875	0.06640625	0.06005859375	1.6875	-0.125	0.1875
18	11	28	12	32	27	0.726166170712	0.119939188489	0.672208795331	-1.0107421875	0.064453125	0.06884765625	1.625	0.0	0.6875
18	11	28	12	32	27	0.726162234372	0.120243725453	0.672144114054	-1.00146484375	0.06103515625	0.07275390625	1.75	0.4375	1.0625
18	11	28	12	32	27	0.726106699263	0.12054982608	0.672149207488	-1.00439453125	0.060546875	0.0693359375	1.375	0.25	1.5625
18	11	28	12	32	27	0.726118653838	0.120795966371	0.672099234819	-0.9970703125	0.06298828125	0.0654296875	0.8125	-0.0625	1.625
18	11	28	12	32	27	0.726132367564	0.120981367898	0.672050888271	-0.99658203125	0.0595703125	0.0654296875	0.9375	-0.3125	1.125
18	11	28	12	32	27	0.726126430445	0.121224536892	0.671984353797	-1.005859375	0.05859375	0.06494140625	1.8125	-0.5625	0.6875
18	11	28	12	32	27	0.726045631621	0.121526427285	0.67196606629	-1.00341796875	0.04931640625	0.0595703125	2.8125	-0.8125	0.5625
18	11	28	12	32	27	0.725985402457	0.121892790374	0.671905776883	-1.00390625	0.05615234375	0.0625	3.625	-0.5	0.375
18	11	28	12	32	27	0.725869880511	0.122260121987	0.671911843648	-1.0087890625	0.05517578125	0.060546875	3.4375	-0.125	0.3125
18	11	28	12	32	27	0.725733424497	0.122562886156	0.67195956857	-1.005859375	0.056640625	0.05859375	2.4375	0.0625	0.375
18	11	28	12	32	27	0.725618634067	0.122747230241	0.672027352042	-1.0078125	0.056640625	0.060546875	1.625	0.0625	0.5
18	11	28	12	32	27	0.725532687858	0.122926123778	0.672065317238	-0.99560546875	0.060546875	0.06201171875	1.3125	0.1875	0.375
18	11	28	12	32	27	0.725441982593	0.123053515937	0.672094376974	-1.01123046875	0.05908203125	0.06689453125	2.0	0.1875	-0.375
18	11	28	12	32	28	0.725361371743	0.123172269285	0.672137279168	-1.01416015625	0.06640625	0.06591796875	1.3125	0.375	-0.4375
18	11	28	12	32	28	0.725315938721	0.123235957273	0.672151739223	-1.00634765625	0.06103515625	0.0673828125	1.0	0.0625	-0.3125
18	11	28	12	32	28	0.725384141276	0.123298213175	0.672036300526	-1.009765625	0.0625	0.07421875	1.0	-0.1875	-0.1875
18	11	28	12	32	28	0.725428189381	0.123417399994	0.671959523508	-1.00830078125	0.06103515625	0.07421875	1.0	-0.25	0.5625
18	11	28	12	32	28	0.725457942998	0.123422461989	0.671926044302	-1.0029296875	0.0654296875	0.07275390625	0.8125	-0.625	0.9375
18	11	28	12	32	28	0.725579430539	0.123666520255	0.671742376805	-1.0048828125	0.0654296875	0.0693359375	1.3125	-1.0625	1.0625
18	11	28	12	32	28	0.725750273546	0.123969621999	0.671486859486	-1.00537109375	0.06689453125	0.06982421875	1.8125	-1.625	1.125
18	11	28	12	32	28	0.725941478003	0.124337239611	0.671189144213	-1.00830078125	0.0693359375	0.06591796875	2.0	-2.0	0.8125
18	11	28	12	32	28	0.726104531054	0.124638992301	0.670926446314	-1.00830078125	0.060546875	0.064453125	2.375	-2.0	0.9375
18	11	28	12	32	28	0.726170688789	0.125006099911	0.670748062461	-1.00390625	0.05810546875	0.0615234375	2.6875	-1.875	1.0625
18	11	28	12	32	28	0.726265499084	0.125367622079	0.670539774177	-1.00341796875	0.048828125	0.060546875	2.5	-1.8125	1.5625
18	11	28	12	32	28	0.72628582719	0.125676318866	0.670436467422	-1.00390625	0.05029296875	0.0546875	2.1875	-1.75	1.75
18	11	28	12	32	28	0.726360829795	0.125983928798	0.670266241343	-1.0048828125	0.05126953125	0.0595703125	2.3125	-1.625	1.5625
18	11	28	12	32	28	0.726373359924	0.126291300982	0.670155724253	-1.00048828125	0.05322265625	0.06005859375	2.4375	-1.4375	1.0625
18	11	28	12	32	28	0.726350212168	0.126531427716	0.670073330183	-1.00390625	0.046875	0.05859375	3.0	-1.4375	0.4375
18	11	28	12	32	28	0.726284708329	0.126835836953	0.670008172395	-1.00732421875	0.05078125	0.05859375	3.625	-1.125	-0.0625
18	11	28	12	32	28	0.726160316275	0.127140618543	0.670006034441	-1.0107421875	0.0517578125	0.06005859375	3.6875	-0.625	-0.5625
18	11	28	12	32	28	0.7261093125	0.127325489734	0.669954254708	-1.00732421875	0.052734375	0.06982421875	3.1875	-0.5625	-0.375
18	11	28	12	32	28	0.726107034708	0.127569241975	0.669830077243	-1.00390625	0.0517578125	0.0693359375	3.1875	-0.75	-0.4375
18	11	28	12	32	28	0.726110594782	0.127875058513	0.669711284966	-0.998046875	0.05908203125	0.07373046875	3.0625	-0.625	-0.0625
18	11	28	12	32	28	0.726090691769	0.128298809188	0.669570854801	-1.00390625	0.0595703125	0.068359375	4.1875	-0.875	-0.5625
18	11	28	12	32	28	0.726101752854	0.128666988485	0.669397942464	-1.0087890625	0.06298828125	0.0732421875	4.25	-1.0625	-0.6875
18	11	28	12	32	28	0.72617320488	0.129096102238	0.669163389519	-1.00390625	0.06982421875	0.076171875	3.8125	-1.1875	-0.75
18	11	28	12	32	28	0.726282888668	0.129460123276	0.668907822247	-1.0009765625	0.07470703125	0.07177734375	3.5	-1.375	-1.0625
18	11	28	12	32	28	0.726279342737	0.129825713253	0.668782482424	-1.00927734375	0.07080078125	0.06982421875	3.0625	-1.1875	-0.6875
18	11	28	12	32	28	0.726357804258	0.130072981586	0.668615410743	-1.0009765625	0.06689453125	0.072265625	1.8125	-1.0625	0.0
18	11	28	12	32	28	0.726464982945	0.130314462997	0.668418587484	-1.0009765625	0.0654296875	0.07568359375	2.0625	-0.9375	0.1875
18	11	28	12	32	28	0.726477272011	0.13068289694	0.668307818119	-1.0009765625	0.07275390625	0.0693359375	2.125	-0.875	0.3125
18	11	28	12	32	28	0.7265685887	0.130860471621	0.668157454679	-1.00146484375	0.06982421875	0.072265625	1.375	-1.0	0.25
18	11	28	12	32	28	0.726645047716	0.130985323175	0.668049562977	-1.0048828125	0.0703125	0.06982421875	0.5	-1.125	0.0625
18	11	28	12	32	28	0.726783336521	0.130988245584	0.667881352835	-0.99951171875	0.0634765625	0.07421875	0.4375	-1.25	0.25
18	11	28	12	32	28	0.726831676071	0.13123010611	0.667747609693	-1.00927734375	0.056640625	0.0693359375	1.8125	-1.1875	0.5
18	11	28	12	32	28	0.726905405046	0.131476550715	0.667576153748	-1.00146484375	0.05078125	0.0732421875	2.3125	-1.3125	0.9375
18	11	28	12	32	28	0.726975585889	0.131844438751	0.667401432084	-1.00146484375	0.0546875	0.06689453125	2.4375	-1.375	1.5
18	11	28	12	32	28	0.726949322558	0.132205896949	0.667316284091	-1.00830078125	0.0556640625	0.06396484375	2.625	-1.3125	1.1875
18	11	28	12	32	28	0.726958379118	0.132512732247	0.66720252243	-1.00390625	0.056640625	0.0654296875	2.5	-1.25	0.8125
18	11	28	12	32	28	0.726963109301	0.132818784705	0.667084787704	-1.0048828125	0.0556640625	0.06640625	2.75	-1.0625	0.4375
18	11	28	12	32	28	0.726894975935	0.133183712947	0.667017238813	-1.0009765625	0.05712890625	0.06787109375	3.1875	-0.8125	0.0625
18	11	28	12	32	28	0.726724159631	0.133491158837	0.667089563297	-1.0	0.0625	0.05908203125	2.875	-0.3125	-0.25
18	11	28	12	32	28	0.726650524289	0.133732994432	0.667077999157	-1.00244140625	0.06494140625	0.07275390625	2.25	-0.25	-0.1875
18	11	28	12	32	28	0.726603074822	0.133796533939	0.667090474188	-1.00390625	0.06298828125	0.06689453125	1.0	-0.1875	-0.3125
18	11	28	12	32	28	0.726603074822	0.133796533939	0.667090474188	-0.9990234375	0.068359375	0.07373046875	-0.0625	-0.1875	0.25
18	11	28	12	32	28	0.726574224165	0.133913293668	0.667063986551	-1.00830078125	0.0625	0.0751953125	1.4375	-0.25	-0.1875
18	11	28	12	32	28	0.726474098528	0.13422252921	0.667084139036	-1.013671875	0.0703125	0.07275390625	1.875	0.125	0.0
18	11	28	12	32	28	0.726481551204	0.134407021992	0.667029943838	-1.0126953125	0.0693359375	0.07177734375	1.125	-0.125	0.3125
18	11	28	12	32	28	0.726477289604	0.13440623355	0.667026030986	-1.00927734375	0.06396484375	0.078125	0.25	-0.625	0.3125
18	11	28	12	32	28	0.726483248287	0.134346297217	0.66703150204	-1.00732421875	0.06103515625	0.08154296875	-0.125	-0.5625	0.5625
18	11	28	12	32	28	0.726483248287	0.134346297217	0.66703150204	-1.0078125	0.06396484375	0.07958984375	-0.5	-0.5625	0.8125
18	11	28	12	32	28	0.726483248287	0.134346297217	0.66703150204	-0.99951171875	0.06005859375	0.076171875	-0.4375	-0.6875	0.8125
18	11	28	12	32	28	0.726483248287	0.134346297217	0.66703150204	-1.00048828125	0.064453125	0.07666015625	-0.25	-0.9375	0.75
18	11	28	12	32	29	0.72654164782	0.134345809195	0.666968040471	-1.00048828125	0.0654296875	0.06494140625	-0.0625	-1.125	0.25
18	11	28	12	32	29	0.726601733453	0.134284594556	0.666906127328	-1.00634765625	0.0625	0.068359375	-0.25	-1.0625	-0.1875
18	11	28	12	32	29	0.72657810979	0.134219192156	0.666945480987	-1.00439453125	0.0576171875	0.06201171875	-0.6875	-0.875	-0.1875
18	11	28	12	32	29	0.726573842509	0.134218403871	0.666941563936	-1.00390625	0.0576171875	0.0703125	-0.4375	-0.75	0.0625
18	11	28	12	32	29	0.726545026027	0.134224356232	0.666971141679	-1.0009765625	0.05615234375	0.06640625	-0.1875	-0.125	0.375
18	11	28	12	32	29	0.726521398513	0.134158954375	0.66701048836	-1.0029296875	0.0556640625	0.0673828125	-0.1875	0.125	0.625
18	11	28	12	32	29	0.726517128807	0.134158165935	0.667006568395	-1.0029296875	0.05517578125	0.0673828125	0.0	0.0	0.75
18	11	28	12	32	29	0.726488307125	0.134164115196	0.667036146888	-1.01171875	0.05859375	0.06884765625	-0.1875	-0.1875	0.625
18	11	28	12	32	29	0.726494255251	0.134104173986	0.66704160825	-1.009765625	0.05322265625	0.0703125	-0.1875	-0.375	0.5625
18	11	28	12	32	29	0.7264899826	0.134103385294	0.667037685251	-1.00390625	0.04931640625	0.07568359375	0.625	-0.4375	0.6875
18	11	28	12	32	29	0.726490544253	0.134225567704	0.666977161574	-1.0068359375	0.0517578125	0.07958984375	1.75	-0.125	0.6875
18	11	28	12	32	29	0.726479128755	0.13446761222	0.666905642814	-1.0029296875	0.0498046875	0.0810546875	2.125	-0.125	0.875
18	11	28	12	32	29	0.726536292321	0.134650009314	0.666780009856	-1.0009765625	0.056640625	0.07958984375	1.5	-0.25	0.75
18	11	28	12	32	29	0.726536292321	0.134650009314	0.666780009856	-0.9951171875	0.05908203125	0.08154296875	0.625	-0.5	0.8125
18	11	28	12	32	29	0.726536675336	0.134772156527	0.666719323255	-1.00830078125	0.060546875	0.0732421875	1.5	-0.5	-0.0625
18	11	28	12	32	29	0.726536675336	0.134772156527	0.666719323255	-1.01318359375	0.06494140625	0.0732421875	0.875	-0.4375	-0.375
18	11	28	12	32	29	0.726532359347	0.134771355913	0.66671536261	-1.00927734375	0.0615234375	0.068359375	-0.0625	-0.8125	0.1875
18	11	28	12	32	29	0.726508768252	0.134705944008	0.666754749591	-1.00146484375	0.06005859375	0.07177734375	-0.375	-0.6875	0.1875
18	11	28	12	32	29	0.726508768252	0.134705944008	0.666754749591	-1.001953125	0.05810546875	0.07568359375	-0.125	-0.375	0.6875
18	11	28	12	32	29	0.726560263735	0.134837572258	0.666679929473	-1.0009765625	0.06103515625	0.07861328125	0.4375	-0.125	1.0625
18	11	28	12	32	29	0.726540636803	0.135078083613	0.666661920118	-1.00439453125	0.064453125	0.07177734375	0.5625	-0.125	1.25
18	11	28	12	32	29	0.726507705949	0.135194032486	0.66669273898	-1.001953125	0.06201171875	0.06494140625	-0.0625	-0.3125	1.1875
18	11	28	12	32	29	0.726478883804	0.135200027527	0.666722302789	-0.998046875	0.0615234375	0.0654296875	-0.5	-0.375	0.8125
18	11	28	12	32	29	0.726480570042	0.135139302812	0.666723850325	-1.00537109375	0.0556640625	0.068359375	-0.625	-0.1875	0.875
18	11	28	12	32	29	0.726459617416	0.135135405223	0.666765657928	-1.005859375	0.052734375	0.0712890625	-0.375	0.125	1.1875
18	11	28	12	32	29	0.726402132546	0.135258140133	0.666829955304	-1.00244140625	0.0595703125	0.07275390625	-0.3125	0.375	1.9375
18	11	28	12	32	29	0.726412833209	0.135199094661	0.666900816372	-1.00146484375	0.06787109375	0.06982421875	-2.25	0.4375	1.6875
18	11	28	12	32	29	0.726478956883	0.134650695588	0.667027561823	-1.0146484375	0.05322265625	0.07666015625	-4.5625	0.3125	1.4375
18	11	28	12	32	29	0.726659646322	0.134161940581	0.667025335154	-1.00927734375	0.060546875	0.08056640625	-4.625	0.25	1.5625
18	11	28	12	32	29	0.726823031429	0.13367000662	0.66700722938	-1.01123046875	0.052734375	0.0859375	-3.8125	0.0	1.125
18	11	28	12	32	29	0.726911780267	0.133491986182	0.666971620034	-1.01025390625	0.05322265625	0.07861328125	-1.3125	-0.25	1.125
18	11	28	12	32	29	0.72696842325	0.13355221747	0.666906548483	-1.0048828125	0.0595703125	0.07861328125	-0.125	-0.375	1.0625
18	11	28	12	32	29	0.72696842325	0.13355221747	0.666906548483	-1.0029296875	0.06298828125	0.07666015625	-0.0625	-0.75	0.875
18	11	28	12	32	29	0.727119851906	0.133485361883	0.666755415279	-1.0009765625	0.05859375	0.07177734375	-0.125	-1.4375	0.8125
18	11	28	12	32	29	0.727196876899	0.133732445634	0.666586964295	-0.99365234375	0.06396484375	0.06396484375	1.875	-1.8125	0.125
18	11	28	12	32	29	0.727231433834	0.134166081213	0.666374480709	-0.9892578125	0.0654296875	0.0595703125	4.25	-2.5	-0.5
18	11	28	12	32	29	0.727128139598	0.134829686928	0.666213686201	-0.99951171875	0.06494140625	0.05615234375	6.3125	-2.125	-1.25
18	11	28	12	32	29	0.726955655885	0.13544203194	0.66616238693	-1.005859375	0.0634765625	0.05908203125	5.625	-1.0	-0.875
18	11	28	12	32	29	0.726838910189	0.135992365796	0.666106233363	-0.98974609375	0.0703125	0.06298828125	4.4375	-0.5625	-0.25
18	11	28	12	32	29	0.726737194144	0.136179294485	0.666124894985	-0.9853515625	0.06298828125	0.0703125	1.9375	-0.1875	-0.5
18	11	28	12	32	29	0.726743233743	0.136119386128	0.666130430861	-0.9892578125	0.0537109375	0.07861328125	0.5	0.6875	0.125
18	11	28	12	32	29	0.726709340291	0.136113037867	0.666160401473	-0.99560546875	0.04248046875	0.07470703125	-0.3125	0.8125	0.6875
18	11	28	12	32	29	0.726709340291	0.136113037867	0.666160401473	-1.00244140625	0.048828125	0.0791015625	0.25	0.5625	1.1875
18	11	28	12	32	29	0.726713758788	0.13623594067	0.666103414216	-1.00146484375	0.0478515625	0.0849609375	1.25	0.25	1.3125
18	11	28	12	32	29	0.72672079552	0.13654245083	0.665987787663	-1.00341796875	0.04931640625	0.0859375	2.4375	-0.1875	1.125
18	11	28	12	32	29	0.726729373082	0.136788218132	0.665873570548	-1.01513671875	0.05419921875	0.0830078125	2.9375	-0.25	0.4375
18	11	28	12	32	29	0.726791729368	0.137032622191	0.665691660409	-1.013671875	0.0546875	0.08984375	2.6875	-0.25	0.375
18	11	28	12	32	29	0.72682877734	0.137272247249	0.665547614051	-1.00732421875	0.0576171875	0.08203125	2.3125	-0.5625	0.125
18	11	28	12	32	29	0.726832847217	0.137395090619	0.665490303427	-1.00732421875	0.06396484375	0.07373046875	1.375	-0.6875	0.0
18	11	28	12	32	29	0.726832847217	0.137395090619	0.665490303427	-1.00634765625	0.06005859375	0.072265625	-0.3125	-0.6875	0.1875
18	11	28	12	32	30	0.72688876093	0.137211011384	0.665485612597	-1.0078125	0.0595703125	0.06884765625	-1.4375	-0.875	0.375
18	11	28	12	32	30	0.726866058672	0.137157208082	0.665520711933	-1.00341796875	0.0537109375	0.06298828125	-0.6875	-0.875	0.375
18	11	28	12	32	30	0.726776193555	0.137334881624	0.665555355213	-1.00244140625	0.0595703125	0.06201171875	1.25	-0.5	0.25
18	11	28	12	32	30	0.726646937296	0.137577672966	0.665609815305	-1.00830078125	0.06591796875	0.0615234375	2.0	-0.4375	0.1875
18	11	28	12	32	30	0.726584813349	0.137821615301	0.665608819688	-1.0029296875	0.0595703125	0.0615234375	1.4375	-0.8125	0.5625
18	11	28	12	32	30	0.726484906134	0.138069976279	0.665629129675	-1.00634765625	0.05908203125	0.06201171875	2.0	-0.75	0.625
18	11	28	12	32	30	0.726480993633	0.138313386958	0.665564506349	-0.99365234375	0.05712890625	0.0751953125	1.625	-0.375	1.125
18	11	28	12	32	30	0.726464731243	0.13867651398	0.665488570387	-0.99267578125	0.0625	0.07373046875	1.9375	-0.125	1.0
18	11	28	12	32	30	0.726421223033	0.138985053764	0.665443590749	-1.00927734375	0.07275390625	0.0791015625	2.0625	0.0625	0.125
18	11	28	12	32	30	0.726450050425	0.138978891347	0.665414085845	-1.0068359375	0.07470703125	0.0849609375	0.8125	0.3125	-0.1875
18	11	28	12	32	30	0.726450050425	0.138978891347	0.665414085845	-1.00830078125	0.07080078125	0.080078125	-0.875	0.1875	-0.9375
18	11	28	12	32	30	0.72661257561	0.138620393079	0.665329055288	-1.00830078125	0.06494140625	0.0908203125	-2.0	-0.25	-0.75
18	11	28	12	32	30	0.726834248538	0.138188842685	0.665186399107	-1.00244140625	0.06005859375	0.09521484375	-2.125	-0.3125	-0.4375
18	11	28	12	32	30	0.726834248538	0.138188842685	0.665186399107	-1.0068359375	0.05517578125	0.09033203125	-1.0	-0.4375	0.375
18	11	28	12	32	30	0.726898677934	0.138128449758	0.665128465316	-1.01611328125	0.06689453125	0.0859375	-0.1875	-0.6875	0.8125
18	11	28	12	32	30	0.727039244378	0.138070923582	0.665023303459	-1.01171875	0.0693359375	0.080078125	-1.375	-1.0	0.875
18	11	28	12	32	30	0.727277845427	0.137825713384	0.664896145215	-1.0087890625	0.07177734375	0.07763671875	-3.1875	-1.3125	1.1875
18	11	28	12	32	30	0.727519840505	0.13733699481	0.664833132207	-1.00634765625	0.0703125	0.07470703125	-4.8125	-1.25	0.875
18	11	28	12	32	30	0.72773964084	0.136599959423	0.664871920463	-1.00634765625	0.0615234375	0.06982421875	-6.75	-0.9375	1.375
18	11	28	12	32	30	0.727950497268	0.13575062099	0.664958302636	-1.00634765625	0.0556640625	0.07177734375	-7.5	-0.875	1.75
18	11	28	12	32	30	0.728154946408	0.134888720164	0.665044115345	-0.9990234375	0.04638671875	0.068359375	-7.1875	-0.9375	2.0
18	11	28	12	32	30	0.728265152118	0.134287430614	0.665150059729	-0.9990234375	0.05322265625	0.068359375	-5.375	-0.5625	1.6875
18	11	28	12	32	30	0.728297647463	0.133854906209	0.665246066015	-1.00244140625	0.05078125	0.064453125	-3.0625	-0.6875	0.9375
18	11	28	12	32	30	0.728348388493	0.133669904534	0.665236661877	-1.0009765625	0.0517578125	0.0693359375	-1.1875	-1.0625	0.625
18	11	28	12	32	30	0.728302743122	0.13367272942	0.665250720523	-1.0029296875	0.0517578125	0.06884765625	1.0	-0.875	-0.0625
18	11	28	12	32	30	0.728176708099	0.133855114909	0.665308140678	-1.00244140625	0.0595703125	0.0673828125	1.9375	-0.4375	-0.1875
18	11	28	12	32	30	0.728182656146	0.13379517035	0.665313575188	-0.99853515625	0.05859375	0.07275390625	0.6875	-0.5625	0.4375
18	11	28	12	32	30	0.728178390087	0.13379438651	0.665309677447	-1.00341796875	0.0595703125	0.0703125	0.875	-0.5625	0.6875
18	11	28	12	32	30	0.728194373615	0.133980440074	0.665263242081	-0.9931640625	0.05517578125	0.078125	0.75	-0.25	1.5625
18	11	28	12	32	30	0.728108564984	0.134342103406	0.665240611096	-1.00244140625	0.0537109375	0.0732421875	2.5625	-0.3125	1.3125
18	11	28	12	32	30	0.728074025064	0.134835305279	0.665142744058	-1.0126953125	0.060546875	0.08154296875	3.125	-0.1875	1.0625
18	11	28	12	32	30	0.728054703734	0.135197951775	0.665064055323	-1.00634765625	0.06298828125	0.0751953125	2.25	-0.5	1.25
18	11	28	12	32	30	0.728053319048	0.135380806644	0.665001753104	-1.009765625	0.05908203125	0.078125	1.5625	-0.5625	0.8125
18	11	28	12	32	30	0.728062217251	0.135504537416	0.664948842617	-1.00830078125	0.05126953125	0.07666015625	1.1875	-0.5625	1.0
18	11	28	12	32	30	0.728112941749	0.135746766908	0.664817349445	-1.005859375	0.0517578125	0.08349609375	1.5625	-0.5625	1.375
18	11	28	12	32	30	0.728157538339	0.13604888122	0.664680267604	-1.0087890625	0.0595703125	0.0849609375	2.25	-0.3125	1.0625
18	11	28	12	32	30	0.728228947118	0.136294965964	0.664506625369	-1.01123046875	0.0498046875	0.0810546875	2.25	-1.0	1.25
18	11	28	12	32	30	0.728250726719	0.136543196352	0.664404422122	-1.005859375	0.06005859375	0.07861328125	1.9375	-0.9375	0.875
18	11	28	12	32	30	0.728256769192	0.136605368322	0.664348895808	-1.00732421875	0.0537109375	0.07177734375	1.1875	-0.75	0.5
18	11	28	12	32	30	0.728227237933	0.136599828891	0.664382992616	-1.0029296875	0.064453125	0.078125	-0.5	-0.5	0.625
18	11	28	12	32	30	0.72821591285	0.136292526477	0.66449473164	-1.001953125	0.0654296875	0.07568359375	-2.5	0.3125	-0.1875
18	11	28	12	32	30	0.728120860002	0.135748243159	0.664763541477	-0.99853515625	0.0556640625	0.06884765625	-3.625	0.5	0.125
18	11	28	12	32	30	0.72805842927	0.135198643598	0.665006420766	-0.986328125	0.04931640625	0.0703125	-4.0	1.0625	0.5
18	11	28	12	32	30	0.727807553668	0.134953245652	0.665366499709	-0.99365234375	0.0576171875	0.06982421875	-1.9375	1.875	0.375
18	11	28	12	32	30	0.72751446693	0.135016528303	0.665682756636	-0.99853515625	0.0615234375	0.0673828125	0.125	1.6875	0.5625
18	11	28	12	32	30	0.727308672392	0.135195427102	0.665845108017	-0.99951171875	0.064453125	0.072265625	1.5	0.9375	0.0
18	11	28	12	32	30	0.727050226013	0.135742083836	0.665954081265	-0.9990234375	0.07373046875	0.0703125	3.6875	0.9375	-0.4375
18	11	28	12	32	30	0.726835747351	0.136357999629	0.665981259603	-1.00439453125	0.07568359375	0.08154296875	5.0	1.0	-0.8125
18	11	28	12	32	30	0.726595545114	0.136969119895	0.666045916354	-1.00244140625	0.07568359375	0.076171875	4.375	1.1875	-0.25
18	11	28	12	32	31	0.726521355206	0.137454935052	0.665972822537	-1.00244140625	0.07373046875	0.08642578125	3.625	0.8125	-0.0625
18	11	28	12	32	31	0.726495708809	0.137888909948	0.665883186641	-1.0	0.072265625	0.0888671875	2.5	0.75	0.6875
18	11	28	12	32	31	0.726446709509	0.13836789535	0.665838275419	-1.00830078125	0.0771484375	0.08349609375	2.0625	0.8125	1.125
18	11	28	12	32	31	0.726526686014	0.138493577297	0.665733559973	-1.013671875	0.06640625	0.08984375	0.25	0.0625	1.125
18	11	28	12	32	31	0.726771383409	0.138554719101	0.665489912934	-1.01220703125	0.07080078125	0.08740234375	-0.5	-0.6875	1.625
18	11	28	12	32	31	0.726892384299	0.138554514431	0.665366855424	-1.015625	0.06103515625	0.07861328125	-0.3125	-1.125	1.1875
18	11	28	12	32	31	0.727177697887	0.138611763631	0.665043494727	-1.01123046875	0.0556640625	0.0888671875	0.1875	-1.625	1.625
18	11	28	12	32	31	0.727390463687	0.138739491815	0.664765422507	-1.00537109375	0.05078125	0.08349609375	1.25	-1.8125	1.75
18	11	28	12	32	31	0.727706830857	0.139107856695	0.664287320937	-1.0068359375	0.04248046875	0.091796875	2.875	-2.1875	2.3125
18	11	28	12	32	31	0.727869157613	0.139836330406	0.663902123887	-1.00244140625	0.05810546875	0.07958984375	4.6875	-2.25	2.6875
18	11	28	12	32	31	0.728057719963	0.140508792032	0.663479830315	-1.02490234375	0.048828125	0.07275390625	4.75	-3.0625	2.625
18	11	28	12	32	31	0.728549879954	0.142035486817	0.662567773701	-1.03564453125	0.056640625	0.07958984375	7.6875	-5.5625	6.875
18	11	28	12	32	31	0.729121015178	0.143443648863	0.661671980287	-1.07568359375	0.00830078125	0.087890625	5.4375	-5.0625	12.5
18	11	28	12	32	31	0.729474599743	0.146371022524	0.660805959068	-1.05078125	0.0458984375	0.0751953125	8.375	-3.4375	19.625
18	11	28	12	32	31	0.729771847655	0.14984860204	0.660005268375	-1.025390625	0.07177734375	0.08544921875	6.9375	-0.875	24.25
18	11	28	12	32	31	0.729231027356	0.15509969369	0.659890904557	-1.03466796875	0.13427734375	0.109375	9.5	9.3125	32.3125
18	11	28	12	32	31	0.726900476145	0.161445273273	0.661528874	-1.0625	0.04541015625	0.0849609375	11.875	23.1875	44.625
18	11	28	12	32	31	0.723831034598	0.169986460187	0.663282895098	-1.0927734375	0.0029296875	0.03955078125	22.75	24.875	55.6875
18	11	28	12	32	31	0.720662421187	0.181523675837	0.664142271952	-1.095703125	0.03955078125	0.0146484375	36.3125	21.8125	66.0
18	11	28	12	32	31	0.717801491181	0.198494085827	0.662928741132	-1.08544921875	0.16552734375	0.03125	56.0625	17.4375	86.0625
18	11	28	12	32	31	0.715799162188	0.217907649784	0.659948882201	-1.08740234375	0.32666015625	0.013671875	49.9375	13.5625	111.125
18	11	28	12	32	31	0.714321015348	0.238839454247	0.655419897702	-1.123046875	0.33349609375	0.0185546875	44.125	10.0	133.125
18	11	28	12	32	31	0.711200572369	0.264533408912	0.649919644231	-1.09619140625	0.388671875	-0.0380859375	60.9375	14.4375	156.875
18	11	28	12	32	31	0.707993123339	0.292377537787	0.642376035005	-1.09912109375	0.6279296875	-0.076171875	53.3125	13.9375	184.5
18	11	28	12	32	31	0.705048688793	0.320632045903	0.632535673272	-1.06591796875	0.759765625	-0.0400390625	30.0	15.4375	216.4375
18	11	28	12	32	31	0.701090864173	0.351033741934	0.619970390685	-0.90185546875	0.80859375	-0.04931640625	21.3125	18.125	250.75
18	11	28	12	32	31	0.695469591391	0.381122707446	0.605804431679	-0.6484375	0.9384765625	-0.052734375	8.75	26.0625	267.25
18	11	28	12	32	31	0.689106429596	0.407360169276	0.5905928975	-0.44482421875	1.10302734375	-0.03369140625	-19.4375	35.0	270.3125
18	11	28	12	32	31	0.683829698285	0.425875194585	0.57426312608	-0.28125	1.20556640625	0.0234375	-71.875	45.0	266.9375
18	11	28	12	32	31	0.679980118734	0.435761047365	0.556619273136	-0.14599609375	1.14892578125	0.07275390625	-127.0625	55.6875	261.4375
18	11	28	12	32	31	0.676389969577	0.438331953031	0.538682563083	-0.0830078125	1.01904296875	0.1005859375	-162.0	65.5	246.5625
18	11	28	12	32	31	0.670931918015	0.436728336372	0.521937666571	-0.0966796875	0.93505859375	0.1455078125	-166.9375	78.625	229.625
18	11	28	12	32	31	0.6629406471	0.432886020554	0.507963545269	-0.1513671875	0.94287109375	0.13623046875	-152.0	89.3125	205.625
18	11	28	12	32	31	0.653620095956	0.425634378885	0.495586622998	-0.15625	0.9072265625	0.08740234375	-154.4375	100.75	188.125
18	11	28	12	32	31	0.643394463787	0.413649965002	0.485124674905	-0.11669921875	0.91064453125	0.099609375	-162.75	117.6875	167.625
18	11	28	12	32	31	0.631270304434	0.397916371553	0.479220959206	-0.111328125	0.87890625	0.04052734375	-153.125	140.6875	139.3125
18	11	28	12	32	31	0.618266084826	0.377832665127	0.477936957665	-0.16015625	0.86328125	-0.00634765625	-145.1875	161.9375	106.4375
18	11	28	12	32	31	0.606617529303	0.352629248016	0.478555185121	-0.24658203125	0.8681640625	-0.013671875	-152.75	172.5625	74.8125
18	11	28	12	32	31	0.59585886983	0.324359151227	0.479153055538	-0.28515625	0.83642578125	-0.01318359375	-159.3125	174.3125	56.375
18	11	28	12	32	31	0.586518377783	0.294571515369	0.479212798832	-0.30029296875	0.8095703125	0.03955078125	-159.6875	167.25	38.0
18	11	28	12	32	31	0.577483462175	0.265821845235	0.480310470759	-0.37255859375	0.8115234375	0.03955078125	-141.75	158.4375	24.5
18	11	28	12	32	31	0.569420601829	0.238108025269	0.479512085751	-0.462890625	0.80322265625	0.0947265625	-140.375	142.25	20.9375
18	11	28	12	32	31	0.561436400087	0.212903909926	0.477813018035	-0.44091796875	0.712890625	0.1474609375	-129.0	127.6875	21.625
18	11	28	12	32	31	0.55312620748	0.191170964669	0.478415715541	-0.47802734375	0.65673828125	0.1748046875	-96.9375	118.125	17.4375
18	11	28	12	32	31	0.544769703925	0.173593841788	0.480801227766	-0.5615234375	0.685546875	0.20751953125	-67.8125	103.875	17.0625
18	11	28	12	32	31	0.536279121613	0.1590037687	0.486044917528	-0.53857421875	0.71240234375	0.2392578125	-45.375	89.0625	24.125
18	11	28	12	32	31	0.527910216584	0.148869582408	0.490616524558	-0.484375	0.69677734375	0.2568359375	-29.875	71.0	29.3125
18	11	28	12	32	31	0.520535330668	0.142280470894	0.494838171403	-0.45361328125	0.67578125	0.29931640625	-13.4375	54.4375	29.5625
18	11	28	12	32	31	0.513517439529	0.138130270493	0.499783762613	-0.4580078125	0.68212890625	0.35009765625	3.75	46.125	30.375
18	11	28	12	32	31	0.507192862032	0.134718335119	0.505178496351	-0.51220703125	0.7607421875	0.38232421875	10.0625	40.6875	27.25
18	11	28	12	32	32	0.502585725331	0.130254789635	0.508262246154	-0.5546875	0.7578125	0.43408203125	-1.4375	34.0	23.1875
18	11	28	12	32	32	0.499485299911	0.12531386053	0.509312641142	-0.54638671875	0.7529296875	0.50146484375	-9.5	28.0	17.5625
18	11	28	12	32	32	0.497226576766	0.119576094265	0.509922762375	-0.5283203125	0.7216796875	0.54736328125	-9.9375	28.875	11.375
18	11	28	12	32	32	0.495634817886	0.113532113457	0.510955549326	-0.521484375	0.7158203125	0.5419921875	-7.8125	29.3125	4.4375
18	11	28	12	32	32	0.494958842997	0.107732440238	0.51229369457	-0.46240234375	0.724609375	0.54443359375	-3.625	28.0	-5.5625
18	11	28	12	32	32	0.495017283562	0.103520260533	0.514427332412	-0.404296875	0.76513671875	0.51513671875	4.875	22.4375	-13.3125
18	11	28	12	32	32	0.49625413036	0.0999833044932	0.515054409837	-0.365234375	0.7880859375	0.5029296875	-2.1875	13.375	-18.0625
18	11	28	12	32	32	0.497579451208	0.0974161928519	0.514792086787	-0.33203125	0.78271484375	0.5048828125	-4.125	8.125	-15.75
18	11	28	12	32	32	0.498058380543	0.0968650306277	0.515514838489	-0.33251953125	0.80859375	0.46728515625	4.5	4.3125	-8.9375
18	11	28	12	32	32	0.49777105524	0.0964412344917	0.515838527019	-0.330078125	0.8046875	0.423828125	-1.1875	4.4375	-2.9375
18	11	28	12	32	32	0.4967926194	0.09546426548	0.514921063676	-0.3076171875	0.74560546875	0.4384765625	-9.25	6.9375	3.4375
18	11	28	12	32	32	0.495215945192	0.0947337787425	0.514748683077	-0.283203125	0.69482421875	0.45263671875	-2.3125	10.6875	5.375
18	11	28	12	32	32	0.493558224431	0.0940605025784	0.515165893421	-0.2998046875	0.7158203125	0.47216796875	1.875	12.1875	5.25
18	11	28	12	32	32	0.491722424651	0.094120652782	0.516259715454	-0.33642578125	0.76220703125	0.48291015625	7.625	10.8125	6.9375
18	11	28	12	32	32	0.490431873795	0.0936917145333	0.516677761253	-0.37890625	0.77734375	0.4833984375	2.1875	8.0	6.5625
18	11	28	12	32	32	0.489400772113	0.0924722087493	0.516135311673	-0.39599609375	0.7626953125	0.49560546875	-4.75	7.625	6.5625
18	11	28	12	32	32	0.488189951294	0.090642920439	0.516267892979	-0.4189453125	0.759765625	0.4736328125	-4.25	11.125	5.75
18	11	28	12	32	32	0.487211315962	0.0888724224556	0.516265761765	-0.4169921875	0.77099609375	0.47607421875	-4.4375	9.9375	4.25
18	11	28	12	32	32	0.485985833257	0.0878949510035	0.516688027948	-0.373046875	0.7626953125	0.4677734375	-0.0625	9.5625	4.5625
18	11	28	12	32	32	0.484231692085	0.0875316080233	0.517620666693	-0.33935546875	0.78125	0.4453125	2.4375	10.75	5.4375
18	11	28	12	32	32	0.482695286389	0.0864920613066	0.518341979263	-0.33544921875	0.7734375	0.42626953125	-1.4375	11.8125	3.0625
18	11	28	12	32	32	0.481546715716	0.0851511811919	0.518537121309	-0.35546875	0.76904296875	0.46142578125	-2.5	10.875	2.5
18	11	28	12	32	32	0.480670167756	0.0839875747088	0.518757556286	-0.3623046875	0.76708984375	0.45703125	-1.875	9.0	1.375
18	11	28	12	32	32	0.479692028441	0.0831327831451	0.517901369299	-0.34033203125	0.78662109375	0.49462890625	-6.0	7.125	4.0625
18	11	28	12	32	32	0.478039645927	0.0821554345527	0.517103151212	-0.31640625	0.76416015625	0.494140625	-6.9375	10.5	6.625
18	11	28	12	32	32	0.476881064715	0.0806297051694	0.516493993296	-0.36083984375	0.7548828125	0.4912109375	-6.4375	10.125	4.6875
18	11	28	12	32	32	0.476044348632	0.0787405064412	0.515597719309	-0.37255859375	0.73583984375	0.48583984375	-8.6875	9.5	3.5
18	11	28	12	32	32	0.475293040135	0.0768452468896	0.514600696208	-0.365234375	0.74755859375	0.48779296875	-9.75	9.0	2.3125
18	11	28	12	32	32	0.474939967301	0.0750162215414	0.513821442584	-0.36279296875	0.74072265625	0.46875	-8.6875	7.625	-0.1875
18	11	28	12	32	32	0.474992997122	0.073489021914	0.513080330739	-0.37158203125	0.73681640625	0.4658203125	-6.75	4.75	-1.8125
18	11	28	12	32	32	0.475549806716	0.0723914864286	0.512111780047	-0.39208984375	0.75537109375	0.46826171875	-7.0625	0.125	-2.4375
18	11	28	12	32	32	0.476589222794	0.0718424071758	0.510282518258	-0.3994140625	0.763671875	0.4638671875	-10.6875	-6.1875	-1.3125
