19	01	14	15	50	56	0.795676344345	-0.145755991891	0.548965406646	-0.94482421875	-0.03125	0.349609375	9.875	-2.0	-4.25
19	01	14	15	50	56	0.796360312841	-0.14484272418	0.548913029308	-0.9423828125	-0.02734375	0.35498046875	11.0625	-2.125	-4.6875
19	01	14	15	50	56	0.797023956379	-0.143925753495	0.548907676499	-0.94384765625	-0.02880859375	0.3515625	11.125	-2.0	-5.0625
19	01	14	15	50	56	0.797602595319	-0.14301544967	0.548988883623	-0.9384765625	-0.01513671875	0.349609375	10.6875	-1.8125	-5.375
19	01	14	15	50	56	0.798185987399	-0.142217125536	0.549031349442	-0.9384765625	-0.01171875	0.35302734375	10.125	-1.3125	-5.8125
19	01	14	15	50	56	0.798651414767	-0.1414806251	0.54919873367	-0.93115234375	-0.00732421875	0.34912109375	9.6875	-0.75	-6.3125
19	01	14	15	50	56	0.799130994962	-0.140818454429	0.549356779305	-0.935546875	-0.01611328125	0.359375	9.6875	0.1875	-6.375
19	01	14	15	50	56	0.799526791985	-0.14014150045	0.549640336043	-0.93896484375	-0.01318359375	0.3583984375	9.9375	0.875	-6.4375
19	01	14	15	50	56	0.799799449618	-0.139475062381	0.550087204454	-0.93603515625	-0.01220703125	0.35400390625	9.9375	1.5625	-6.125
19	01	14	15	50	56	0.80000278522	-0.138735510094	0.550608463071	-0.939453125	-0.0107421875	0.3525390625	9.4375	2.0625	-5.75
19	01	14	15	50	56	0.800136097197	-0.138127087341	0.551165531901	-0.9404296875	-0.01171875	0.34912109375	9.25	2.3125	-5.3125
19	01	14	15	50	56	0.800270648919	-0.137396783672	0.551723468506	-0.94873046875	-0.01171875	0.3515625	9.0625	2.3125	-4.75
19	01	14	15	50	56	0.800404191111	-0.136727323121	0.552219684053	-0.9501953125	-0.02001953125	0.3505859375	8.8125	1.6875	-4.1875
19	01	14	15	50	56	0.800639802317	-0.135993403946	0.552580020613	-0.9501953125	-0.02392578125	0.34765625	8.9375	0.8125	-3.8125
19	01	14	15	50	56	0.800861386866	-0.135196095717	0.55293066867	-0.951171875	-0.021484375	0.34619140625	9.125	0.375	-3.3125
19	01	14	15	50	56	0.801118446036	-0.134221673359	0.553244769133	-0.947265625	-0.01708984375	0.341796875	9.0625	-0.3125	-2.6875
19	01	14	15	50	56	0.801366818016	-0.13330681168	0.553491835309	-0.9443359375	-0.0185546875	0.34130859375	8.75	-0.9375	-2.125
19	01	14	15	50	56	0.801724102716	-0.132267691708	0.553607735945	-0.94140625	-0.02099609375	0.345703125	8.875	-1.3125	-1.6875
19	01	14	15	50	56	0.802134615127	-0.131166282751	0.553657213043	-0.93359375	-0.02294921875	0.35302734375	9.5625	-1.3125	-1.5
19	01	14	15	50	56	0.802528342867	-0.129827942294	0.553798270066	-0.94140625	-0.00927734375	0.35302734375	10.5625	-1.25	-1.6875
19	01	14	15	50	56	0.802843342541	-0.128486674983	0.554049191838	-0.94140625	0.00048828125	0.35009765625	10.0625	-0.5	-2.125
19	01	14	15	50	56	0.803064371372	-0.127384308205	0.554338422193	-0.94677734375	0.00390625	0.35498046875	8.625	0.0625	-2.3125
19	01	14	15	50	56	0.803264075014	-0.126532403306	0.554594026259	-0.943359375	-0.0048828125	0.35546875	7.75	0.25	-2.625
19	01	14	15	50	56	0.803507270274	-0.125799793682	0.554776479757	-0.9453125	-0.02001953125	0.35546875	7.8125	0.3125	-2.25
19	01	14	15	50	56	0.80369603823	-0.125007175993	0.555085575428	-0.9453125	-0.0234375	0.3466796875	8.375	0.4375	-2.25
19	01	14	15	50	56	0.803878093973	-0.124091432426	0.555390036223	-0.9443359375	-0.01806640625	0.3515625	8.4375	0.1875	-1.875
19	01	14	15	50	56	0.804084219222	-0.123231064112	0.55560791313	-0.94287109375	-0.0126953125	0.34619140625	8.0	-0.125	-1.6875
19	01	14	15	50	56	0.804300517063	-0.122320576474	0.555813956771	-0.9453125	-0.01123046875	0.3525390625	7.875	-0.0625	-1.625
19	01	14	15	50	56	0.804529723479	-0.121280673739	0.556047779447	-0.94580078125	-0.0126953125	0.3515625	8.5	-0.1875	-1.625
19	01	14	15	50	56	0.804784311744	-0.120244603272	0.556238106403	-0.9462890625	-0.015625	0.3564453125	9.0625	-0.125	-1.4375
19	01	14	15	50	56	0.80504522795	-0.119209441973	0.556432807491	-0.94482421875	-0.0166015625	0.3515625	9.0	-0.5625	-1.4375
19	01	14	15	50	56	0.805303410561	-0.118225913768	0.556583431932	-0.9482421875	-0.015625	0.353515625	8.4375	-0.6875	-1.125
19	01	14	15	50	56	0.8055595584	-0.117434201422	0.556652763495	-0.9482421875	-0.0126953125	0.3515625	7.0	-1.0	-1.25
19	01	14	15	50	56	0.80575728231	-0.116764917889	0.556723897579	-0.9453125	-0.01318359375	0.349609375	5.875	-1.0625	-1.25
19	01	14	15	50	56	0.806059809586	-0.116093121144	0.556661022522	-0.94677734375	-0.0126953125	0.35498046875	5.75	-1.4375	-1.375
19	01	14	15	50	56	0.806379798473	-0.115484867059	0.556610202277	-0.9501953125	-0.02197265625	0.349609375	6.375	-1.8125	-1.6875
19	01	14	15	50	56	0.806725621666	-0.11481053903	0.556535084993	-0.94921875	-0.017578125	0.3525390625	7.0625	-1.9375	-2.0
19	01	14	15	50	56	0.807111152533	-0.11408082463	0.556426322808	-0.9482421875	-0.0146484375	0.3544921875	6.9375	-1.9375	-2.1875
19	01	14	15	50	56	0.807462270785	-0.113407279395	0.556354871737	-0.94970703125	-0.01611328125	0.35205078125	6.6875	-1.9375	-2.375
19	01	14	15	50	56	0.80782049359	-0.112856826041	0.556227288106	-0.94970703125	-0.015625	0.35009765625	6.0625	-2.25	-2.5625
19	01	14	15	50	56	0.808158657718	-0.112373118494	0.556127910156	-0.9482421875	-0.017578125	0.349609375	5.8125	-2.375	-2.8125
19	01	14	15	50	56	0.808516839264	-0.111883690652	0.556000293587	-0.95068359375	-0.01806640625	0.349609375	6.0	-2.375	-2.875
19	01	14	15	50	56	0.808879327716	-0.111333828385	0.555875644243	-0.94384765625	-0.0166015625	0.34619140625	6.375	-2.3125	-3.0625
19	01	14	15	50	56	0.809261345838	-0.110725605774	0.555764410458	-0.9443359375	-0.0126953125	0.35205078125	6.625	-2.375	-3.3125
19	01	14	15	50	56	0.809606813202	-0.110112386235	0.555689115455	-0.93994140625	-0.013671875	0.34619140625	6.4375	-2.25	-3.4375
19	01	14	15	50	56	0.809988007134	-0.109565069541	0.55557730527	-0.94189453125	-0.0166015625	0.35205078125	6.75	-2.125	-3.6875
19	01	14	15	50	56	0.810373991518	-0.108949128181	0.555487963908	-0.94189453125	-0.015625	0.349609375	7.5	-2.0625	-3.9375
19	01	14	15	50	56	0.810706964969	-0.108220407235	0.555507008597	-0.935546875	-0.015625	0.341796875	7.875	-1.875	-3.8125
19	01	14	15	50	57	0.811053553824	-0.107546384846	0.555493557597	-0.92724609375	-0.0185546875	0.3515625	7.8125	-1.5	-4.0
19	01	14	15	50	57	0.811304742402	-0.106753836478	0.555620453663	-0.93408203125	-0.01171875	0.3466796875	7.875	-1.0625	-3.5625
19	01	14	15	50	57	0.81148069473	-0.10608149285	0.555798661618	-0.9375	-0.00048828125	0.34814453125	7.0	-0.375	-4.0
19	01	14	15	50	57	0.811555884003	-0.105595042067	0.556052504758	-0.9345703125	-0.0068359375	0.3515625	5.6875	0.75	-3.1875
19	01	14	15	50	57	0.811562083808	-0.105168582311	0.556361942984	-0.927734375	-0.01220703125	0.35302734375	5.1875	1.125	-2.8125
19	01	14	15	50	57	0.811496572714	-0.104679700805	0.556786140376	-0.9287109375	-0.02392578125	0.3515625	5.9375	2.0	-1.625
19	01	14	15	50	57	0.811329345447	-0.104071361269	0.557346392814	-0.9375	-0.013671875	0.34765625	5.75	2.4375	-1.0625
19	01	14	15	50	57	0.811084453929	-0.103460878192	0.55795627584	-0.94580078125	-0.001953125	0.3515625	4.375	2.8125	-0.625
19	01	14	15	50	57	0.810887101763	-0.103092835143	0.558373745347	-0.94677734375	-0.00537109375	0.36083984375	2.75	2.75	0.0
19	01	14	15	50	57	0.810637669919	-0.102848013991	0.558858407182	-0.94384765625	-0.01220703125	0.35498046875	2.4375	2.6875	0.125
19	01	14	15	50	57	0.810529882871	-0.102483596155	0.559173451087	-0.9453125	-0.01708984375	0.36181640625	3.0625	2.1875	0.1875
19	01	14	15	50	57	0.810510304789	-0.102053861707	0.559404092431	-0.94140625	-0.0244140625	0.36572265625	4.25	1.5	0.25
19	01	14	15	50	57	0.810565969625	-0.101381782797	0.559583494693	-0.9423828125	-0.01611328125	0.35986328125	5.0	0.75	0.1875
19	01	14	15	50	57	0.810662586748	-0.100714800703	0.559669095542	-0.94189453125	-0.01123046875	0.3623046875	4.8125	0.3125	0.375
19	01	14	15	50	57	0.810755934333	-0.100161897782	0.559710300221	-0.94091796875	-0.00830078125	0.3583984375	3.8125	0.0	0.5
19	01	14	15	50	57	0.810950141162	-0.0997360026087	0.559534844501	-0.93603515625	-0.00830078125	0.36865234375	2.1875	-0.75	0.5625
19	01	14	15	50	57	0.811084873973	-0.0996154812104	0.559360459444	-0.94482421875	-0.0126953125	0.36376953125	0.8125	-1.1875	0.6875
19	01	14	15	50	57	0.81124731248	-0.0994908674549	0.559163090033	-0.94091796875	-0.017578125	0.35595703125	0.5625	-1.4375	0.625
19	01	14	15	50	57	0.811404700343	-0.0994341575911	0.558943266459	-0.939453125	-0.01513671875	0.3544921875	0.5	-1.875	0.4375
19	01	14	15	50	57	0.811571065538	-0.0994321048256	0.558687572418	-0.94580078125	-0.01025390625	0.35302734375	-0.25	-2.3125	0.4375
19	01	14	15	50	57	0.811794774952	-0.0994906378325	0.558307278683	-0.94580078125	-0.01171875	0.35791015625	-1.0	-2.5625	0.5
19	01	14	15	50	57	0.811944107458	-0.0996160564856	0.55802082622	-0.94970703125	-0.0126953125	0.35302734375	-1.0625	-2.6875	0.6875
19	01	14	15	50	57	0.812107185974	-0.0997356739483	0.557701868339	-0.94482421875	-0.0166015625	0.3525390625	-1.125	-2.5625	1.0
19	01	14	15	50	57	0.812226639406	-0.0997963895265	0.557455917765	-0.9462890625	-0.01708984375	0.35400390625	-1.1875	-2.375	1.3125
19	01	14	15	50	57	0.812339029963	-0.0998562366083	0.557205124693	-0.93994140625	-0.01708984375	0.353515625	-1.125	-2.0625	1.5
19	01	14	15	50	57	0.812397952717	-0.0999780500789	0.557020564726	-0.9443359375	-0.01904296875	0.35595703125	-1.1875	-1.625	1.875
19	01	14	15	50	57	0.812369943006	-0.0999821148579	0.556982172209	-0.9423828125	-0.0166015625	0.35009765625	-0.6875	-1.25	2.0
19	01	14	15	50	57	0.812386508692	-0.0998620728995	0.556932489691	-0.94384765625	-0.01513671875	0.35498046875	-0.0625	-1.0625	1.8125
19	01	14	15	50	57	0.812365519507	-0.0998594928179	0.556918100532	-0.94091796875	-0.0185546875	0.35302734375	0.0	-0.75	1.625
19	01	14	15	50	57	0.812372117705	-0.099860303897	0.556861584629	-0.9365234375	-0.01953125	0.35498046875	-0.375	-0.8125	1.6875
19	01	14	15	50	57	0.812341166584	-0.099978573211	0.556840368379	-0.94189453125	-0.021484375	0.3515625	-0.8125	-0.8125	1.5
19	01	14	15	50	57	0.812268833184	-0.100099255066	0.556893660503	-0.94970703125	-0.015625	0.35009765625	-1.0	-0.6875	1.0
19	01	14	15	50	57	0.812229738065	-0.100407148051	0.556847666669	-0.951171875	-0.02685546875	0.357421875	-1.3125	-0.5	1.0625
19	01	14	15	50	57	0.812266714969	-0.10070935375	0.556709100333	-0.94775390625	-0.02587890625	0.3583984375	-1.5	-1.0	0.6875
19	01	14	15	50	57	0.81235230392	-0.10101758682	0.55654281367	-0.95166015625	-0.03369140625	0.359375	-0.5	-1.4375	0.75
19	01	14	15	50	57	0.812546021839	-0.101018905209	0.556305922704	-0.95166015625	-0.03515625	0.359375	0.9375	-2.125	0.5625
19	01	14	15	50	57	0.812779408148	-0.100956529069	0.556054401339	-0.9560546875	-0.03125	0.35595703125	2.0	-2.875	0.1875
19	01	14	15	50	57	0.813131154513	-0.100710584368	0.555678278839	-0.95849609375	-0.029296875	0.35986328125	2.75	-3.5625	-0.1875
19	01	14	15	50	57	0.813596189746	-0.100349023628	0.555215765768	-0.95263671875	-0.0322265625	0.36328125	3.875	-4.0625	-0.75
19	01	14	15	50	57	0.814125509559	-0.0998582496355	0.554713797486	-0.95703125	-0.0341796875	0.36962890625	5.3125	-4.3125	-1.0625
19	01	14	15	50	57	0.814667547926	-0.0993690543211	0.554220524101	-0.947265625	-0.03271484375	0.3681640625	5.4375	-4.375	-1.5625
19	01	14	15	50	57	0.815223126871	-0.0991256632255	0.553614387595	-0.94189453125	-0.025390625	0.37158203125	3.625	-4.375	-1.8125
19	01	14	15	50	57	0.815655373324	-0.0991262685234	0.553068423085	-0.9345703125	-0.01904296875	0.369140625	1.125	-4.1875	-2.0625
19	01	14	15	50	57	0.816098777934	-0.0994944658215	0.552407923733	-0.9287109375	-0.01220703125	0.373046875	-1.3125	-3.75	-2.875
19	01	14	15	50	57	0.816446245174	-0.100102559965	0.551845880878	-0.92578125	-0.0126953125	0.361328125	-2.3125	-3.5	-3.625
19	01	14	15	50	57	0.816748799216	-0.100834692198	0.551355795779	-0.92626953125	-0.0205078125	0.36376953125	-2.3125	-3.0	-4.3125
19	01	14	15	50	57	0.817053606936	-0.101445024259	0.550928272538	-0.93115234375	-0.0185546875	0.3671875	-1.125	-2.875	-4.6875
19	01	14	15	50	57	0.817364064742	-0.101811907997	0.550565593606	-0.935546875	-0.015625	0.35986328125	0.0625	-2.6875	-4.8125
19	01	14	15	50	57	0.817537516688	-0.102176930188	0.550375973419	-0.93798828125	-0.01611328125	0.3603515625	-0.1875	-2.1875	-4.1875
19	01	14	15	50	57	0.817561294824	-0.102546138219	0.550330941775	-0.9453125	-0.01171875	0.3603515625	-1.125	-1.125	-3.1875
19	01	14	15	50	58	0.817529987556	-0.102908433554	0.550370904718	-0.94580078125	-0.01513671875	0.37060546875	-1.0	-0.0625	-2.375
19	01	14	15	50	58	0.817446004856	-0.103096348731	0.550518631855	-0.93212890625	-0.0263671875	0.3623046875	0.0625	0.625	-1.25
19	01	14	15	50	58	0.817418535599	-0.103092884306	0.550561170184	-0.92822265625	-0.01513671875	0.36669921875	-0.875	0.8125	-0.3125
19	01	14	15	50	58	0.817156920216	-0.103456900192	0.550732513528	-0.9169921875	-0.005859375	0.357421875	-3.875	1.0	0.8125
19	01	14	15	50	58	0.816738165993	-0.104312497248	0.550921357615	-0.91796875	-0.00830078125	0.35693359375	-8.0	1.5625	1.9375
19	01	14	15	50	58	0.816286400822	-0.105537963585	0.551068094416	-0.9248046875	-0.02294921875	0.359375	-9.625	1.6875	2.375
19	01	14	15	50	58	0.815969556008	-0.10651308163	0.551121268791	-0.92919921875	-0.0400390625	0.35986328125	-7.0	0.875	2.5625
19	01	14	15	50	58	0.815805924536	-0.106812836147	0.551215270424	-0.93212890625	-0.04638671875	0.359375	-1.875	0.0625	2.4375
19	01	14	15	50	58	0.815743353958	-0.106507456241	0.551336304999	-0.93212890625	-0.037109375	0.3564453125	1.3125	-0.4375	2.75
19	01	14	15	50	58	0.81559689505	-0.106146011113	0.551544195755	-0.9404296875	-0.02587890625	0.3515625	1.0	-0.6875	3.3125
19	01	14	15	50	58	0.815528198225	-0.105900862504	0.551539016478	-0.94677734375	-0.0224609375	0.37255859375	-0.9375	-0.5625	3.625
19	01	14	15	50	58	0.815451569022	-0.105898837744	0.55146743459	-0.95166015625	-0.0341796875	0.37255859375	-1.9375	-0.5625	4.3125
19	01	14	15	50	58	0.815402567979	-0.105900400887	0.551414536951	-0.94580078125	-0.04150390625	0.37060546875	-0.8125	-0.8125	4.0
19	01	14	15	50	58	0.815413089825	-0.105535536515	0.55142165233	-0.94287109375	-0.048828125	0.369140625	1.75	-0.9375	3.9375
19	01	14	15	50	58	0.815480693956	-0.104987035449	0.551426092006	-0.93603515625	-0.04248046875	0.36767578125	3.25	-0.875	3.3125
19	01	14	15	50	58	0.815522419329	-0.104496248925	0.551474070701	-0.9423828125	-0.0400390625	0.365234375	3.125	-0.875	3.0
19	01	14	15	50	58	0.815541369829	-0.104193482396	0.551486885443	-0.93798828125	-0.0341796875	0.365234375	1.9375	-1.125	2.375
19	01	14	15	50	58	0.815693543418	-0.104006420083	0.551282855743	-0.93017578125	-0.03125	0.3740234375	0.875	-1.25	1.6875
19	01	14	15	50	58	0.815816715389	-0.104006560154	0.551100488048	-0.92822265625	-0.02978515625	0.375	0.1875	-1.0625	0.875
19	01	14	15	50	58	0.815811534936	-0.104066936037	0.551096988548	-0.9287109375	-0.03076171875	0.37353515625	-0.1875	-0.6875	0.125
19	01	14	15	50	58	0.815818560256	-0.104067832204	0.551101734292	-0.93359375	-0.02587890625	0.3720703125	-0.75	-0.4375	-0.6875
19	01	14	15	50	58	0.815827075072	-0.104374105819	0.551046448732	-0.93701171875	-0.021484375	0.37255859375	-1.0	0.0625	-1.1875
19	01	14	15	50	58	0.81575859317	-0.104861448789	0.551102456995	-0.93994140625	-0.02734375	0.36767578125	-1.375	0.375	-1.625
19	01	14	15	50	58	0.815710321383	-0.105351392899	0.551111081395	-0.93212890625	-0.02294921875	0.3671875	-1.8125	0.4375	-1.75
19	01	14	15	50	58	0.815629129387	-0.105898117151	0.551158500214	-0.92919921875	-0.02294921875	0.3544921875	-2.0625	-0.0625	-1.625
19	01	14	15	50	58	0.815511547011	-0.106386993971	0.551222571743	-0.92919921875	-0.0166015625	0.349609375	-2.625	-0.375	-1.375
19	01	14	15	50	58	0.815412494381	-0.106817266649	0.551238134348	-0.93505859375	-0.02001953125	0.35693359375	-2.625	-0.4375	-0.5625
19	01	14	15	50	58	0.815356724967	-0.107062112262	0.551241696599	-0.94921875	-0.02587890625	0.36181640625	-1.5	-0.5	0.25
19	01	14	15	50	58	0.815323961162	-0.107118846522	0.551280582214	-0.9501953125	-0.03125	0.36279296875	0.625	-0.6875	0.875
19	01	14	15	50	58	0.815332059098	-0.106631614556	0.551347094612	-0.95361328125	-0.01953125	0.36865234375	2.0625	-0.75	1.875
19	01	14	15	50	58	0.815270978071	-0.106143312934	0.551469138794	-0.9443359375	-0.01806640625	0.36474609375	1.625	-0.625	2.9375
19	01	14	15	50	58	0.815155720397	-0.105716938055	0.551595825176	-0.9423828125	-0.017578125	0.36328125	0.1875	-0.5	3.6875
19	01	14	15	50	58	0.815052766731	-0.105536301481	0.551608766041	-0.93505859375	-0.021484375	0.36376953125	-1.0625	-0.5625	4.25
19	01	14	15	50	58	0.814984977849	-0.105413350565	0.551543159066	-0.93701171875	-0.0263671875	0.3720703125	-1.625	-0.9375	4.5625
19	01	14	15	50	58	0.814994009712	-0.105353479686	0.551366154114	-0.9375	-0.0341796875	0.36669921875	-1.375	-1.5625	4.5625
19	01	14	15	50	58	0.815088700677	-0.10516682876	0.551103480486	-0.9375	-0.0322265625	0.3720703125	-0.6875	-2.0625	4.5
19	01	14	15	50	58	0.815174953919	-0.104925926304	0.550876372828	-0.939453125	-0.03173828125	0.36669921875	-0.3125	-2.625	4.0625
19	01	14	15	50	58	0.815413718687	-0.10474211702	0.550445461122	-0.94091796875	-0.033203125	0.37841796875	-0.0625	-2.9375	3.75
19	01	14	15	50	58	0.815666620416	-0.104560122785	0.550024090142	-0.9404296875	-0.0361328125	0.37890625	0.25	-3.125	3.25
19	01	14	15	50	58	0.815972196354	-0.10431601463	0.549536032599	-0.947265625	-0.029296875	0.38134765625	0.375	-3.625	2.5
19	01	14	15	50	58	0.816188814877	-0.104312495111	0.549151268879	-0.94384765625	-0.02294921875	0.375	-0.6875	-3.125	1.625
19	01	14	15	50	58	0.81636635451	-0.104678003588	0.548720263704	-0.935546875	-0.02734375	0.37548828125	-2.5	-2.75	1.25
19	01	14	15	50	58	0.816527321875	-0.105171307138	0.548319124797	-0.9306640625	-0.02587890625	0.3681640625	-3.0	-2.8125	0.4375
19	01	14	15	50	58	0.816660932259	-0.105653219263	0.547980706265	-0.927734375	-0.03173828125	0.36669921875	-2.4375	-2.5625	0.0625
19	01	14	15	50	58	0.816781205839	-0.106080237315	0.547735356539	-0.92822265625	-0.03125	0.36474609375	-1.625	-1.9375	-0.6875
19	01	14	15	50	58	0.816873632412	-0.106511581003	0.547512253063	-0.93115234375	-0.0263671875	0.36376953125	-1.75	-1.8125	-0.6875
19	01	14	15	50	58	0.816849018583	-0.106935625836	0.547434719246	-0.93359375	-0.01611328125	0.36181640625	-2.5625	-1.5	-0.6875
19	01	14	15	50	58	0.816798574766	-0.107425309489	0.547380781535	-0.93505859375	-0.02099609375	0.35986328125	-2.5	-1.0	-0.5
19	01	14	15	50	58	0.816746068223	-0.107792657984	0.547386498754	-0.9365234375	-0.0283203125	0.36865234375	-1.3125	-0.5	-0.375
19	01	14	15	50	59	0.816726116827	-0.107790024835	0.547434163502	-0.9365234375	-0.0263671875	0.365234375	-0.375	0.3125	0.125
19	01	14	15	50	59	0.816726116827	-0.107790024835	0.547434163502	-0.935546875	-0.01953125	0.3759765625	-0.1875	0.875	0.5
19	01	14	15	50	59	0.81650284048	-0.107914855496	0.547692306767	-0.9345703125	-0.017578125	0.37548828125	-0.6875	1.375	0.9375
19	01	14	15	50	59	0.816191703595	-0.108097181204	0.548054539828	-0.93408203125	-0.01953125	0.3662109375	-1.625	1.8125	1.3125
19	01	14	15	50	59	0.815962512169	-0.108343316809	0.548247702297	-0.92822265625	-0.021484375	0.3828125	-2.1875	2.0625	1.375
19	01	14	15	50	59	0.815713153773	-0.108586777953	0.548488356765	-0.93017578125	-0.0205078125	0.37890625	-2.0625	2.125	1.5
19	01	14	15	50	59	0.815435729806	-0.108834636293	0.548751194772	-0.9326171875	-0.0166015625	0.37646484375	-2.125	2.1875	1.625
19	01	14	15	50	59	0.815158222834	-0.109135372701	0.548972898253	-0.93603515625	-0.0224609375	0.3828125	-2.75	2.25	1.8125
19	01	14	15	50	59	0.814856411797	-0.109563090575	0.549219325344	-0.943359375	-0.0263671875	0.38134765625	-3.0625	2.1875	2.125
19	01	14	15	50	59	0.814607498279	-0.109928675588	0.549399227634	-0.9423828125	-0.03271484375	0.37744140625	-2.5	1.8125	2.375
19	01	14	15	50	59	0.814422560479	-0.110111541565	0.549520071347	-0.93896484375	-0.03173828125	0.38037109375	-1.875	1.3125	2.625
19	01	14	15	50	59	0.81431808637	-0.110235999099	0.549531948998	-0.93212890625	-0.0302734375	0.38427734375	-1.75	0.875	2.8125
19	01	14	15	50	59	0.814165598456	-0.110414991199	0.549572460341	-0.93408203125	-0.02685546875	0.3740234375	-2.125	0.4375	2.8125
19	01	14	15	50	59	0.814069497094	-0.110662667634	0.549528955713	-0.93017578125	-0.0263671875	0.37548828125	-2.6875	0.0	2.5
19	01	14	15	50	59	0.814042743067	-0.111025249279	0.549327786429	-0.93310546875	-0.0283203125	0.37451171875	-3.375	-0.5	2.3125
19	01	14	15	50	59	0.814010164591	-0.111395362206	0.549163876037	-0.93212890625	-0.0263671875	0.37646484375	-3.1875	-0.8125	1.9375
19	01	14	15	50	59	0.814033681596	-0.111756442304	0.54895545717	-0.93408203125	-0.02685546875	0.37060546875	-2.5625	-1.125	1.4375
19	01	14	15	50	59	0.814005200005	-0.111944026455	0.548855335816	-0.93359375	-0.0224609375	0.36669921875	-2.0625	-1.1875	1.375
19	01	14	15	50	59	0.814041520903	-0.112245809173	0.548655562075	-0.93359375	-0.02880859375	0.369140625	-2.0625	-1.125	1.375
19	01	14	15	50	59	0.814020404905	-0.112434432051	0.548560391337	-0.9365234375	-0.02880859375	0.3662109375	-1.75	-1.0625	1.5
19	01	14	15	50	59	0.81395025869	-0.11255525137	0.548554253832	-0.9365234375	-0.02783203125	0.36376953125	-1.0625	-0.8125	1.875
19	01	14	15	50	59	0.813871654391	-0.112552822161	0.548603452053	-0.94140625	-0.01416015625	0.36474609375	-0.9375	-0.375	1.4375
19	01	14	15	50	59	0.813655621068	-0.112617751003	0.548805528058	-0.94384765625	-0.0166015625	0.37109375	-1.3125	0.8125	1.9375
19	01	14	15	50	59	0.813435512308	-0.112856776638	0.548963682577	-0.9365234375	-0.01953125	0.36962890625	-2.25	0.9375	2.0
19	01	14	15	50	59	0.81317498858	-0.113098645488	0.549196768539	-0.93408203125	-0.02978515625	0.37109375	-1.8125	1.625	2.5
19	01	14	15	50	59	0.812904760676	-0.113225584251	0.549464533383	-0.9326171875	-0.0283203125	0.37109375	-1.1875	1.9375	2.5625
19	01	14	15	50	59	0.812545112133	-0.113287539672	0.549896252645	-0.93896484375	-0.02001953125	0.36279296875	-1.1875	2.1875	2.375
19	01	14	15	50	59	0.812214590074	-0.11358919006	0.550184287588	-0.93603515625	-0.0185546875	0.36865234375	-2.5625	2.125	2.3125
19	01	14	15	50	59	0.811871033887	-0.114019629449	0.550443799985	-0.9365234375	-0.02099609375	0.36962890625	-3.5625	2.1875	2.1875
19	01	14	15	50	59	0.811557751035	-0.114506794595	0.550682463135	-0.939453125	-0.029296875	0.3671875	-3.25	2.0625	2.0
19	01	14	15	50	59	0.81125755239	-0.114934765717	0.550930002849	-0.93603515625	-0.03173828125	0.36572265625	-2.4375	1.9375	1.9375
19	01	14	15	50	59	0.811026578765	-0.115302868013	0.551122072678	-0.93701171875	-0.02978515625	0.36376953125	-2.0625	1.6875	1.5
19	01	14	15	50	59	0.810750183372	-0.115603466635	0.551344305232	-0.939453125	-0.017578125	0.36962890625	-2.625	2.0625	1.625
19	01	14	15	50	59	0.810398569945	-0.116215928084	0.551537356181	-0.93994140625	-0.017578125	0.3701171875	-5.0	2.125	1.875
19	01	14	15	50	59	0.809972198726	-0.117253699604	0.551660040097	-0.943359375	-0.025390625	0.3642578125	-7.9375	2.0	2.4375
19	01	14	15	50	59	0.809537740616	-0.118473403795	0.551716175634	-0.94189453125	-0.02734375	0.3623046875	-9.125	1.75	2.625
19	01	14	15	50	59	0.809060674684	-0.119695811622	0.551845911718	-0.9404296875	-0.03466796875	0.35498046875	-8.5625	1.5	2.625
19	01	14	15	50	59	0.80869893055	-0.120673091229	0.551910010569	-0.9404296875	-0.029296875	0.3505859375	-7.1875	0.9375	2.5
19	01	14	15	50	59	0.808382980066	-0.121464975108	0.551963703469	-0.947265625	-0.025390625	0.35302734375	-6.0	0.375	2.0625
19	01	14	15	50	59	0.808186209363	-0.12207328893	0.551954375898	-0.95654296875	-0.03076171875	0.35107421875	-4.1875	-0.25	1.875
19	01	14	15	50	59	0.80814157071	-0.122258879617	0.551904537943	-0.951171875	-0.0341796875	0.3583984375	-1.5	-1.0	1.5625
19	01	14	15	50	59	0.808252541083	-0.122196162759	0.551774880788	-0.95263671875	-0.04052734375	0.36083984375	1.125	-1.5	1.125
19	01	14	15	50	59	0.808431026064	-0.121829243339	0.551649649948	-0.94677734375	-0.029296875	0.35546875	2.75	-1.875	1.0625
19	01	14	15	50	59	0.808588204959	-0.121468296812	0.55155152261	-0.93701171875	-0.02685546875	0.3544921875	2.4375	-1.9375	0.9375
19	01	14	15	50	59	0.808729972848	-0.121217941591	0.551401250921	-0.93310546875	-0.02587890625	0.3525390625	1.375	-2.0625	0.9375
19	01	14	15	50	59	0.808949473997	-0.121101317167	0.551120863255	-0.92919921875	-0.02734375	0.36279296875	0.9375	-1.9375	0.625
19	01	14	15	50	59	0.809049262855	-0.121036943662	0.551044643158	-0.93310546875	-0.02880859375	0.35791015625	1.25	-1.25	0.125
19	01	14	15	50	59	0.809154974633	-0.120912423983	0.550972464058	-0.9296875	-0.01904296875	0.35986328125	1.125	-0.75	-0.4375
19	01	14	15	50	59	0.809154974633	-0.120912423983	0.550972464058	-0.9306640625	-0.0107421875	0.3583984375	-0.375	0.125	-0.8125
19	01	14	15	50	59	0.80900355634	-0.121344429606	0.551116124204	-0.927734375	-0.0185546875	0.35009765625	-1.875	0.6875	-1.0625
19	01	14	15	50	59	0.808823663871	-0.12189426132	0.551240397586	-0.93701171875	-0.0224609375	0.35693359375	-2.375	1.1875	-0.875
19	01	14	15	51	00	0.808590208372	-0.122384190216	0.551491849675	-0.943359375	-0.01806640625	0.3505859375	-2.25	1.4375	-1.3125
19	01	14	15	51	00	0.808329230276	-0.122869949449	0.551785565333	-0.95263671875	-0.02880859375	0.35498046875	-1.5	1.625	-0.5625
19	01	14	15	51	00	0.808302005608	-0.122865811167	0.55182801727	-0.94775390625	-0.03271484375	0.3466796875	0.625	0.8125	-0.5
19	01	14	15	51	00	0.808253888581	-0.122501552211	0.552142023569	-0.9501953125	-0.03515625	0.34912109375	4.25	0.5	0.1875
19	01	14	15	51	00	0.808235347899	-0.121766313175	0.552495572359	-0.9482421875	-0.02734375	0.3447265625	5.8125	-0.0625	0.6875
19	01	14	15	51	00	0.808266433435	-0.12091646312	0.552760974263	-0.9462890625	-0.01904296875	0.34521484375	5.625	-0.4375	1.0625
19	01	14	15	51	00	0.808272045083	-0.120184840414	0.552947927534	-0.9404296875	-0.01513671875	0.35302734375	3.8125	-0.625	1.625
19	01	14	15	51	00	0.808315384967	-0.119754948675	0.552996857797	-0.9384765625	-0.01953125	0.35986328125	2.5	-0.125	1.75
19	01	14	15	51	00	0.808302097451	-0.119325726838	0.553109839697	-0.93798828125	-0.017578125	0.36181640625	2.125	0.0	1.6875
19	01	14	15	51	00	0.808269649541	-0.118963717486	0.553251480399	-0.93701171875	-0.02294921875	0.35791015625	2.0625	0.1875	1.5
19	01	14	15	51	00	0.808289868523	-0.118722533928	0.553326359927	-0.9404296875	-0.02587890625	0.36181640625	2.25	0.25	0.9375
19	01	14	15	51	00	0.808255400196	-0.11847332214	0.553485875923	-0.94873046875	-0.02685546875	0.35888671875	2.25	0.25	0.625
19	01	14	15	51	00	0.808238629875	-0.118409827968	0.553596463749	-0.9482421875	-0.029296875	0.3544921875	1.5625	0.0	0.3125
19	01	14	15	51	00	0.808278566304	-0.118415678797	0.553623817881	-0.94775390625	-0.0322265625	0.35693359375	1.25	-0.4375	0.0
19	01	14	15	51	00	0.808409526585	-0.118478019564	0.553507821434	-0.94384765625	-0.03662109375	0.35986328125	1.5625	-0.75	-0.25
19	01	14	15	51	00	0.808538223883	-0.11828693877	0.553470567991	-0.93798828125	-0.029296875	0.35693359375	2.3125	-0.8125	-0.5
19	01	14	15	51	00	0.808704448856	-0.118232358475	0.553378710342	-0.9365234375	-0.0283203125	0.35986328125	2.25	-0.8125	-1.125
19	01	14	15	51	00	0.80885635437	-0.11816675989	0.553296321489	-0.93408203125	-0.0205078125	0.357421875	1.75	-0.75	-1.5625
19	01	14	15	51	00	0.808986979311	-0.118106971855	0.553241133279	-0.93408203125	-0.01953125	0.3623046875	1.75	-0.5	-1.875
19	01	14	15	51	00	0.809100018285	-0.118105652941	0.55323495517	-0.93701171875	-0.02099609375	0.35693359375	2.0	-0.3125	-2.1875
19	01	14	15	51	00	0.809170234088	-0.11804595555	0.553302268387	-0.94482421875	-0.0224609375	0.359375	2.25	0.125	-2.1875
19	01	14	15	51	00	0.809164459691	-0.117984076381	0.553481430224	-0.94873046875	-0.021484375	0.3544921875	2.4375	0.5	-1.875
19	01	14	15	51	00	0.809177972669	-0.117925008916	0.553612748895	-0.9482421875	-0.02099609375	0.35888671875	2.0625	0.5625	-1.4375
19	01	14	15	51	00	0.809076947774	-0.117805998431	0.553871310758	-0.95361328125	-0.02099609375	0.353515625	1.8125	0.5625	-0.625
19	01	14	15	51	00	0.808994918074	-0.117619828514	0.554101091465	-0.95068359375	-0.0234375	0.3486328125	1.75	0.4375	0.0625
19	01	14	15	51	00	0.80893239148	-0.117436498997	0.554283184715	-0.9462890625	-0.02490234375	0.35205078125	1.9375	0.125	0.375
19	01	14	15	51	00	0.808964770703	-0.117188196752	0.554324584844	-0.94189453125	-0.02392578125	0.35693359375	1.75	-0.25	0.5625
19	01	14	15	51	00	0.809059559402	-0.116948933671	0.554286673627	-0.93896484375	-0.02685546875	0.35986328125	1.8125	-0.625	0.75
19	01	14	15	51	00	0.809216066458	-0.116700944265	0.554146377084	-0.93798828125	-0.02880859375	0.36669921875	2.125	-1.0	0.625
19	01	14	15	51	00	0.809413304869	-0.116397795972	0.553972939823	-0.94189453125	-0.01953125	0.36474609375	1.8125	-1.25	0.25
19	01	14	15	51	00	0.809508301153	-0.116280599736	0.553874100789	-0.94189453125	-0.02099609375	0.36328125	1.0	-0.875	0.3125
19	01	14	15	51	00	0.809508301153	-0.116280599736	0.553874100789	-0.93896484375	-0.02001953125	0.3603515625	-0.1875	-1.0	-0.0625
19	01	14	15	51	00	0.809545208274	-0.116399209242	0.553796552414	-0.94091796875	-0.029296875	0.35107421875	-0.375	-1.1875	0.3125
19	01	14	15	51	00	0.809611414595	-0.11658306709	0.553678011293	-0.9423828125	-0.03515625	0.3505859375	-0.375	-1.3125	0.375
19	01	14	15	51	00	0.80962724634	-0.116707425739	0.553627798877	-0.9462890625	-0.03125	0.35107421875	0.0625	-1.25	0.5
19	01	14	15	51	00	0.809731723267	-0.116704888805	0.553493688119	-0.94189453125	-0.03173828125	0.35302734375	0.5	-1.625	0.5
19	01	14	15	51	00	0.809793572965	-0.116643967584	0.553433204648	-0.943359375	-0.02734375	0.3486328125	0.4375	-1.6875	0.5625
19	01	14	15	51	00	0.809847700241	-0.116581934539	0.553367444256	-0.94775390625	-0.02978515625	0.34912109375	0.625	-1.625	0.625
19	01	14	15	51	00	0.809909528462	-0.116521010614	0.553306946681	-0.94384765625	-0.029296875	0.3525390625	0.8125	-1.375	0.6875
19	01	14	15	51	00	0.809994453283	-0.11646340745	0.55326222491	-0.93896484375	-0.0380859375	0.34765625	1.5	-1.375	0.5625
19	01	14	15	51	00	0.810117563096	-0.116219397237	0.553201889266	-0.9462890625	-0.033203125	0.35986328125	2.375	-1.125	0.5
19	01	14	15	51	00	0.810150922135	-0.115910238916	0.553305063599	-0.94384765625	-0.02783203125	0.35302734375	2.875	-0.75	0.3125
19	01	14	15	51	00	0.810219136247	-0.115606075339	0.553371002653	-0.94287109375	-0.02734375	0.35302734375	2.8125	-0.375	0.0
19	01	14	15	51	00	0.810289093539	-0.115363192978	0.553438132664	-0.93798828125	-0.02880859375	0.3642578125	2.8125	0.125	-0.4375
19	01	14	15	51	00	0.810277436249	-0.115178419752	0.553613284127	-0.93408203125	-0.0244140625	0.36328125	2.6875	0.875	-0.75
19	01	14	15	51	00	0.810285371242	-0.114996432348	0.553740782517	-0.9365234375	-0.01904296875	0.36669921875	2.125	1.25	-1.0
19	01	14	15	51	00	0.810166116586	-0.115057871601	0.55398686613	-0.939453125	-0.0205078125	0.361328125	0.9375	1.6875	-1.25
19	01	14	15	51	00	0.810057035071	-0.115303876064	0.554178872836	-0.93896484375	-0.02685546875	0.36328125	-0.125	1.625	-1.25
19	01	14	15	51	00	0.809892013013	-0.115602944656	0.554393635858	-0.93896484375	-0.0224609375	0.357421875	-0.625	1.5	-1.25
19	01	14	15	51	00	0.809781680152	-0.115909807086	0.55452374796	-0.9384765625	-0.02099609375	0.35693359375	-1.0625	1.125	-1.0625
19	01	14	15	51	01	0.809676004886	-0.116217347403	0.554596018122	-0.94384765625	-0.01904296875	0.359375	-1.6875	0.6875	-0.6875
19	01	14	15	51	01	0.809599595311	-0.116642402491	0.554585488766	-0.93994140625	-0.02783203125	0.353515625	-2.4375	0.125	-0.1875
19	01	14	15	51	01	0.809547557794	-0.117070965532	0.55446957815	-0.9462890625	-0.02294921875	0.35693359375	-2.8125	-0.5	0.5
19	01	14	15	51	01	0.809520299795	-0.117372203612	0.55432883682	-0.9462890625	-0.02734375	0.3583984375	-2.8125	-0.9375	1.1875
19	01	14	15	51	01	0.809524196212	-0.117555877396	0.554148396095	-0.95068359375	-0.0283203125	0.3564453125	-2.4375	-1.5	2.0625
19	01	14	15	51	01	0.809539474807	-0.117619133526	0.553975742543	-0.9453125	-0.03076171875	0.3525390625	-1.875	-1.9375	2.75
19	01	14	15	51	01	0.809606884085	-0.117559021317	0.553735950876	-0.94873046875	-0.03076171875	0.35546875	-1.4375	-2.25	3.375
19	01	14	15	51	01	0.809673995831	-0.11749886483	0.553495951315	-0.93896484375	-0.03369140625	0.35400390625	-1.0625	-2.375	3.4375
19	01	14	15	51	01	0.80974661299	-0.117378466514	0.553259709041	-0.94482421875	-0.033203125	0.35205078125	-0.8125	-2.6875	3.5625
19	01	14	15	51	01	0.809799340051	-0.117255184461	0.553070914314	-0.9462890625	-0.0244140625	0.3564453125	-1.1875	-2.3125	3.125
19	01	14	15	51	01	0.809819410412	-0.117380170816	0.552840461303	-0.9443359375	-0.0322265625	0.353515625	-2.3125	-1.9375	3.125
19	01	14	15	51	01	0.809850498677	-0.117681019102	0.552575864073	-0.93994140625	-0.0322265625	0.35693359375	-2.9375	-1.9375	2.5625
19	01	14	15	51	01	0.809834907763	-0.118044973742	0.552382116012	-0.9443359375	-0.037109375	0.353515625	-2.8125	-1.8125	2.375
19	01	14	15	51	01	0.809848395699	-0.118352128374	0.552208202886	-0.9423828125	-0.0419921875	0.35498046875	-1.9375	-1.375	1.75
19	01	14	15	51	01	0.809834569856	-0.118533217867	0.552137738839	-0.94140625	-0.03369140625	0.3564453125	-1.125	-1.125	1.3125
19	01	14	15	51	01	0.809836564113	-0.118594546584	0.552139098505	-0.94482421875	-0.03271484375	0.35498046875	-0.875	-1.0	0.6875
19	01	14	15	51	01	0.809811518768	-0.118843975808	0.552102599477	-0.9462890625	-0.03076171875	0.35888671875	-1.125	-0.5625	0.25
19	01	14	15	51	01	0.809753238283	-0.119149579461	0.552104480647	-0.9453125	-0.02978515625	0.35498046875	-1.1875	-0.3125	0.0
19	01	14	15	51	01	0.809655776251	-0.119571478754	0.552140682395	-0.94482421875	-0.0361328125	0.3505859375	-1.8125	-0.3125	0.0625
19	01	14	15	51	01	0.809601171286	-0.1199996911	0.552145069018	-0.943359375	-0.0380859375	0.35107421875	-1.375	-0.4375	-0.125
19	01	14	15	51	01	0.809601171286	-0.1199996911	0.552145069018	-0.939453125	-0.03125	0.35498046875	0.25	-0.1875	-0.1875
19	01	14	15	51	01	0.80960929713	-0.119878819328	0.552211648909	-0.9384765625	-0.0244140625	0.35888671875	1.3125	0.125	-0.1875
19	01	14	15	51	01	0.809605760518	-0.119756220004	0.552331312344	-0.93896484375	-0.025390625	0.361328125	1.9375	0.3125	-0.25
19	01	14	15	51	01	0.809606122472	-0.11951212212	0.552453634989	-0.9375	-0.02197265625	0.36474609375	2.0625	0.5625	-0.1875
19	01	14	15	51	01	0.809592670177	-0.119327025799	0.552566529185	-0.9345703125	-0.0224609375	0.3603515625	1.625	0.5625	0.125
19	01	14	15	51	01	0.809592670177	-0.119327025799	0.552566529185	-0.9365234375	-0.01904296875	0.36083984375	0.5	0.375	0.375
19	01	14	15	51	01	0.809592670177	-0.119327025799	0.552566529185	-0.93603515625	-0.02099609375	0.35986328125	-0.625	0.3125	0.75
19	01	14	15	51	01	0.809493946403	-0.119391506497	0.552643507068	-0.93603515625	-0.0234375	0.35791015625	-0.9375	0.0625	1.0625
19	01	14	15	51	01	0.809516882938	-0.119324851553	0.552556460924	-0.9404296875	-0.02392578125	0.3671875	-0.5	-0.3125	1.375
19	01	14	15	51	01	0.809551916072	-0.119207938784	0.552458296944	-0.9404296875	-0.02392578125	0.365234375	-0.1875	-0.75	1.8125
19	01	14	15	51	01	0.809592192121	-0.119082808114	0.552322055677	-0.9453125	-0.02197265625	0.3671875	-0.375	-1.125	2.3125
19	01	14	15	51	01	0.809560732374	-0.119026119892	0.552220157264	-0.94677734375	-0.0224609375	0.35791015625	-1.5625	-1.4375	2.9375
19	01	14	15	51	01	0.809543835971	-0.119145711213	0.552025518549	-0.9482421875	-0.02978515625	0.36279296875	-2.3125	-1.75	3.4375
19	01	14	15	51	01	0.809607992575	-0.119207208195	0.551722455133	-0.9453125	-0.02880859375	0.36572265625	-2.5	-2.0625	3.625
19	01	14	15	51	01	0.809691476019	-0.119149473139	0.551432551402	-0.94091796875	-0.03076171875	0.3671875	-1.625	-2.125	3.6875
19	01	14	15	51	01	0.809809497241	-0.119026797288	0.551124591135	-0.93701171875	-0.03173828125	0.36669921875	-0.875	-2.125	3.4375
19	01	14	15	51	01	0.809875826215	-0.118905495136	0.550945071406	-0.93701171875	-0.02783203125	0.36572265625	-0.5	-1.625	2.875
19	01	14	15	51	01	0.809954046678	-0.118838020262	0.550793166332	-0.93115234375	-0.0302734375	0.36181640625	0.1875	-1.25	2.0625
19	01	14	15	51	01	0.810156493938	-0.118657743104	0.550623199866	-0.92822265625	-0.04052734375	0.373046875	2.4375	-0.8125	0.8125
19	01	14	15	51	01	0.81031655092	-0.118227113523	0.55060753283	-0.9375	-0.0205078125	0.380859375	3.4375	0.0	-0.4375
19	01	14	15	51	01	0.810327186246	-0.118167628244	0.550675796499	-0.94189453125	-0.0146484375	0.37939453125	1.1875	0.8125	-1.1875
19	01	14	15	51	01	0.810287673143	-0.1189642693	0.550507308782	-0.9384765625	-0.021484375	0.3857421875	-4.5	1.0625	-1.25
19	01	14	15	51	01	0.810146299678	-0.120365290663	0.550250048338	-0.93359375	-0.029296875	0.37744140625	-8.0625	1.125	-1.0625
19	01	14	15	51	01	0.809859520246	-0.12195502875	0.550140477538	-0.9384765625	-0.0400390625	0.36865234375	-9.1875	1.25	-0.625
19	01	14	15	51	01	0.809561420076	-0.123359996228	0.550084258292	-0.93798828125	-0.0322265625	0.35546875	-8.375	0.875	-0.75
19	01	14	15	51	01	0.809357218858	-0.124577532707	0.54994785384	-0.9375	-0.0234375	0.35498046875	-7.75	-0.1875	-0.875
19	01	14	15	51	01	0.80916240831	-0.125796464021	0.549756793516	-0.93896484375	-0.02392578125	0.35009765625	-7.9375	-0.6875	-0.5625
19	01	14	15	51	01	0.808982863845	-0.126773608586	0.549576105784	-0.9453125	-0.0234375	0.349609375	-7.0	-1.3125	0.0625
19	01	14	15	51	01	0.808942011565	-0.127387155975	0.54934566544	-0.93994140625	-0.03515625	0.34375	-4.625	-2.25	1.0
19	01	14	15	51	01	0.808959576941	-0.127634080992	0.549113435008	-0.93701171875	-0.046875	0.33935546875	-2.1875	-2.8125	2.75
19	01	14	15	51	02	0.808987869924	-0.127262691172	0.549030171266	-0.93359375	-0.05029296875	0.3310546875	0.9375	-3.625	4.625
19	01	14	15	51	02	0.809101525423	-0.126345817564	0.54896342182	-0.939453125	-0.04638671875	0.33447265625	3.875	-4.0	6.25
19	01	14	15	51	02	0.809186730465	-0.125067783867	0.548979818496	-0.92919921875	-0.03515625	0.3359375	5.0	-3.875	7.375
19	01	14	15	51	02	0.809244983061	-0.123602435563	0.549038966861	-0.927734375	-0.02880859375	0.34326171875	5.1875	-3.125	8.1875
19	01	14	15	51	02	0.809223551948	-0.122073246636	0.549207536614	-0.923828125	-0.015625	0.35791015625	5.1875	-1.5625	8.1875
19	01	14	15	51	02	0.809102325716	-0.12073056731	0.549513294993	-0.92138671875	-0.01708984375	0.3623046875	4.8125	0.25	7.5625
19	01	14	15	51	02	0.808753364196	-0.119817573881	0.550074363633	-0.9267578125	-0.0185546875	0.36328125	3.375	2.3125	6.8125
19	01	14	15	51	02	0.808214496514	-0.119269777674	0.550813957899	-0.92919921875	-0.01806640625	0.369140625	1.5	4.3125	6.0625
19	01	14	15	51	02	0.807572118296	-0.119081944131	0.551646648413	-0.93359375	-0.0244140625	0.37158203125	0.25	5.9375	5.25
19	01	14	15	51	02	0.80679795577	-0.119206869997	0.552636457221	-0.93896484375	-0.02685546875	0.361328125	-0.75	6.8125	4.3125
19	01	14	15	51	02	0.806004734318	-0.119512099189	0.553613248032	-0.94091796875	-0.01806640625	0.3603515625	-1.9375	7.0625	3.375
19	01	14	15	51	02	0.805268344035	-0.119999815385	0.554465067628	-0.94580078125	-0.02099609375	0.36279296875	-2.4375	6.5	2.4375
19	01	14	15	51	02	0.80467060618	-0.120490008086	0.555206237868	-0.94970703125	-0.0302734375	0.35498046875	-1.5625	5.375	1.625
19	01	14	15	51	02	0.804291680374	-0.120793294032	0.555746812613	-0.95263671875	-0.0283203125	0.35546875	0.0	3.875	0.8125
19	01	14	15	51	02	0.804113937725	-0.12079410071	0.556116751679	-0.9521484375	-0.0263671875	0.35498046875	2.0	2.1875	0.125
19	01	14	15	51	02	0.804177911828	-0.120489350888	0.556240858481	-0.95751953125	-0.02001953125	0.3564453125	3.5625	0.3125	-0.3125
19	01	14	15	51	02	0.804365407663	-0.120001699155	0.556243888301	-0.9560546875	-0.013671875	0.35693359375	4.1875	-1.0625	-0.5625
19	01	14	15	51	02	0.804667714662	-0.119329847695	0.556119817059	-0.955078125	-0.0078125	0.36181640625	4.9375	-1.8125	-0.3125
19	01	14	15	51	02	0.805035605987	-0.118475556238	0.555937849673	-0.94677734375	-0.0068359375	0.35595703125	6.0	-2.375	-0.125
19	01	14	15	51	02	0.805468629159	-0.117438742233	0.555697665949	-0.95263671875	0.00439453125	0.3642578125	6.3125	-2.9375	0.0
19	01	14	15	51	02	0.805741620251	-0.116518502618	0.555553384404	-0.95263671875	0.0126953125	0.361328125	4.5625	-2.4375	0.75
19	01	14	15	51	02	0.805922611271	-0.115968870147	0.555368815507	-0.94921875	0.00927734375	0.3544921875	1.9375	-2.375	1.25
19	01	14	15	51	02	0.806069829372	-0.115667297188	0.555141988349	-0.94091796875	0.005859375	0.357421875	0.3125	-2.25	1.6875
19	01	14	15	51	02	0.806202846488	-0.115424710986	0.554905366249	-0.94287109375	-0.0048828125	0.359375	0.25	-2.0	2.25
19	01	14	15	51	02	0.806314800583	-0.114995994269	0.554776322672	-0.9404296875	-0.00048828125	0.361328125	1.375	-1.5	2.25
19	01	14	15	51	02	0.806375873346	-0.114385617035	0.554776346441	-0.93798828125	0.00537109375	0.35693359375	2.3125	-1.3125	2.3125
19	01	14	15	51	02	0.806414276515	-0.113833077937	0.554760774996	-0.943359375	0.00732421875	0.36083984375	1.625	-0.875	2.4375
19	01	14	15	51	02	0.806364990542	-0.113590587192	0.554768859211	-0.94580078125	0.00634765625	0.3583984375	0.0625	-0.4375	2.6875
19	01	14	15	51	02	0.806263433375	-0.113593477895	0.554782977208	-0.94873046875	-0.00537109375	0.359375	-1.1875	-0.375	2.8125
19	01	14	15	51	02	0.806204788397	-0.11365485433	0.554723585475	-0.94970703125	-0.0126953125	0.3623046875	-1.375	-0.4375	2.9375
19	01	14	15	51	02	0.806172950664	-0.113650366001	0.554640642238	-0.94287109375	-0.0048828125	0.3583984375	-1.25	-0.875	2.6875
19	01	14	15	51	02	0.806141287905	-0.113715546253	0.554538774939	-0.94140625	-0.00341796875	0.35498046875	-1.375	-1.125	2.4375
19	01	14	15	51	02	0.806201158405	-0.113837459148	0.554293815829	-0.94189453125	-0.00341796875	0.361328125	-2.125	-1.5	2.1875
19	01	14	15	51	02	0.806195350819	-0.114141831165	0.554106707657	-0.935546875	-0.00634765625	0.353515625	-2.4375	-1.625	1.875
19	01	14	15	51	02	0.806306327772	-0.11432337259	0.553793891891	-0.93505859375	-0.00830078125	0.36083984375	-2.0	-1.8125	1.5
19	01	14	15	51	02	0.806385601398	-0.114509074879	0.553562260168	-0.9375	-0.005859375	0.3564453125	-1.4375	-1.8125	1.3125
19	01	14	15	51	02	0.80642448218	-0.114628003144	0.553424975774	-0.9375	-0.00634765625	0.353515625	-0.9375	-1.4375	1.0
19	01	14	15	51	02	0.806418838522	-0.114688237783	0.553421102701	-0.94580078125	-0.00048828125	0.36083984375	-0.75	-1.0	0.9375
19	01	14	15	51	02	0.806380361786	-0.114691446506	0.553436586202	-0.94384765625	0.0029296875	0.35595703125	-0.6875	-0.5	1.0
19	01	14	15	51	02	0.8062648227	-0.114814454652	0.553502113123	-0.9443359375	0.001953125	0.35595703125	-0.9375	0.0	1.1875
19	01	14	15	51	02	0.806119030016	-0.11487211437	0.553607905069	-0.9423828125	0.00537109375	0.35986328125	-1.375	0.5625	1.4375
19	01	14	15	51	02	0.805883200565	-0.115056413926	0.553796733979	-0.943359375	0.00244140625	0.3525390625	-2.0	0.8125	1.875
19	01	14	15	51	02	0.805651475553	-0.115302343914	0.553927353636	-0.94189453125	-0.0009765625	0.3583984375	-2.4375	0.9375	2.25
19	01	14	15	51	02	0.805386522943	-0.11560455282	0.554096161825	-0.939453125	0.0	0.35302734375	-2.625	0.9375	2.5
19	01	14	15	51	02	0.805145501036	-0.115849151768	0.554220388857	-0.93701171875	-0.00048828125	0.353515625	-2.75	0.8125	2.625
19	01	14	15	51	02	0.804855394941	-0.11609547711	0.554413889902	-0.93994140625	-0.00048828125	0.34765625	-2.625	0.625	2.75
19	01	14	15	51	02	0.804646587596	-0.116213843797	0.554518262027	-0.943359375	0.00341796875	0.35400390625	-2.375	0.5	2.8125
19	01	14	15	51	02	0.804427737899	-0.116400614324	0.55465777785	-0.93994140625	-0.00537109375	0.349609375	-2.0	0.4375	2.75
19	01	14	15	51	02	0.804254393476	-0.116524107251	0.554725556156	-0.94482421875	-0.00732421875	0.3515625	-1.625	0.1875	3.0625
19	01	14	15	51	02	0.804095383682	-0.116518755689	0.554822152548	-0.94970703125	0.0087890625	0.35302734375	-1.4375	0.0	2.5
19	01	14	15	51	03	0.803876681827	-0.116705559275	0.554900752809	-0.9541015625	0.005859375	0.35498046875	-2.75	0.375	2.8125
19	01	14	15	51	03	0.803670827033	-0.117068477728	0.554946089419	-0.94580078125	0.00048828125	0.3525390625	-3.4375	0.0625	2.3125
19	01	14	15	51	03	0.803519036875	-0.117439275824	0.554906682181	-0.94384765625	-0.0048828125	0.35205078125	-2.8125	-0.0625	2.5625
19	01	14	15	51	03	0.803426894062	-0.117617839767	0.55488520048	-0.9375	-0.0048828125	0.35498046875	-1.8125	-0.25	2.25
19	01	14	15	51	03	0.803318748932	-0.117741954767	0.554894821559	-0.93701171875	-0.00048828125	0.34912109375	-1.5	-0.1875	2.125
19	01	14	15	51	03	0.803250416677	-0.117862960076	0.554828745258	-0.9375	0.0078125	0.3544921875	-2.125	-0.375	1.9375
19	01	14	15	51	03	0.803133955371	-0.118168972306	0.554771585375	-0.9384765625	0.0048828125	0.35205078125	-2.9375	-0.1875	1.6875
19	01	14	15	51	03	0.80295986473	-0.118658607148	0.554777819121	-0.94775390625	-0.0029296875	0.35498046875	-3.125	-0.0625	1.6875
19	01	14	15	51	03	0.802791242356	-0.119088025687	0.554787834685	-0.94580078125	-0.00537109375	0.34814453125	-3.125	0.1875	1.8125
19	01	14	15	51	03	0.802644010648	-0.119511556871	0.554770449641	-0.9462890625	-0.0078125	0.35546875	-2.9375	0.25	1.8125
19	01	14	15	51	03	0.802462464519	-0.119878016302	0.554832570357	-0.9462890625	-0.00341796875	0.35009765625	-2.4375	0.4375	1.875
19	01	14	15	51	03	0.802262524081	-0.120241720362	0.554943005854	-0.9423828125	-0.00634765625	0.345703125	-2.375	0.375	1.8125
19	01	14	15	51	03	0.802092308829	-0.120487802879	0.555012964324	-0.93701171875	0.0009765625	0.34765625	-2.375	0.5	1.625
19	01	14	15	51	03	0.801930957467	-0.12073522864	0.555089064333	-0.939453125	0.001953125	0.353515625	-1.8125	0.625	1.375
19	01	14	15	51	03	0.801797179674	-0.120916581374	0.55520304098	-0.9443359375	-0.00341796875	0.353515625	-0.875	0.875	1.0625
19	01	14	15	51	03	0.801629340302	-0.121040964122	0.555396738552	-0.9501953125	0.00146484375	0.35498046875	-0.5625	1.0625	0.9375
19	01	14	15	51	03	0.801431440436	-0.121282884398	0.555569609356	-0.94873046875	0.0048828125	0.3544921875	-1.25	1.1875	0.8125
19	01	14	15	51	03	0.801251524504	-0.121527522304	0.555693904097	-0.95166015625	0.00390625	0.35986328125	-1.6875	1.375	0.9375
19	01	14	15	51	03	0.801022638911	-0.121957115945	0.555826575472	-0.94873046875	0.0009765625	0.35791015625	-2.8125	1.5625	1.0
19	01	14	15	51	03	0.800772392623	-0.122505540971	0.555944428082	-0.94775390625	-0.001953125	0.35400390625	-3.4375	1.5	1.25
19	01	14	15	51	03	0.800561712441	-0.123050656624	0.555986324995	-0.9462890625	-0.00244140625	0.35986328125	-3.75	1.4375	1.1875
19	01	14	15	51	03	0.800340672702	-0.123664597536	0.556002378558	-0.94580078125	-0.00439453125	0.35791015625	-4.0	1.1875	1.3125
19	01	14	15	51	03	0.800076693473	-0.124332943592	0.556049639726	-0.94140625	-0.00048828125	0.34814453125	-4.875	0.875	1.25
19	01	14	15	51	03	0.799900201875	-0.12506642607	0.555932166248	-0.94140625	-0.00244140625	0.353515625	-5.5	0.5	1.3125
19	01	14	15	51	03	0.7997776868	-0.125920885894	0.555687709733	-0.9404296875	-0.0048828125	0.3544921875	-5.75	0.0	1.125
19	01	14	15	51	03	0.799678862006	-0.126718061028	0.555459708744	-0.9423828125	-0.00634765625	0.34521484375	-5.5625	-0.75	1.0625
19	01	14	15	51	03	0.799598185572	-0.127447405456	0.555201915722	-0.94873046875	-0.00634765625	0.34619140625	-5.5	-1.375	1.0
19	01	14	15	51	03	0.799599167159	-0.128118981059	0.554836368662	-0.94482421875	-0.0068359375	0.34521484375	-4.9375	-2.0625	1.0
19	01	14	15	51	03	0.799715180192	-0.128545273201	0.554465936259	-0.94189453125	-0.01220703125	0.34375	-2.875	-2.5625	1.0
19	01	14	15	51	03	0.799865355627	-0.128732908655	0.554119177227	-0.95166015625	0.001953125	0.3466796875	-1.8125	-2.6875	0.4375
19	01	14	15	51	03	0.799924820271	-0.128793694832	0.553934967109	-0.95556640625	0.0029296875	0.3427734375	-1.125	-2.3125	0.875
19	01	14	15	51	03	0.800036286506	-0.128914064019	0.553683463409	-0.94921875	-0.00244140625	0.34423828125	-1.25	-2.375	0.5625
19	01	14	15	51	03	0.800126922038	-0.128970034806	0.553478597074	-0.9443359375	-0.00390625	0.34814453125	-0.6875	-1.875	0.875
19	01	14	15	51	03	0.800177885686	-0.129029447013	0.553349558476	-0.93896484375	-0.0048828125	0.34765625	-0.5625	-1.5	0.9375
19	01	14	15	51	03	0.800104534903	-0.129220422672	0.553322216119	-0.94091796875	-0.0009765625	0.3408203125	-1.4375	-0.8125	1.0625
19	01	14	15	51	03	0.799972615881	-0.129524026469	0.553315409962	-0.94091796875	-0.00048828125	0.34521484375	-2.75	-0.375	1.125
19	01	14	15	51	03	0.799821479027	-0.130007612205	0.55329530734	-0.9375	-0.00146484375	0.35205078125	-3.375	0.375	0.8125
19	01	14	15	51	03	0.799646268677	-0.130436155726	0.553361809925	-0.93994140625	-0.00537109375	0.3515625	-2.6875	0.875	0.5625
19	01	14	15	51	03	0.799472136142	-0.130864884707	0.553490100056	-0.93896484375	-0.0087890625	0.3505859375	-1.5625	1.1875	0.125
19	01	14	15	51	03	0.799340333029	-0.131107440084	0.553666475328	-0.94091796875	-0.01171875	0.3525390625	-0.1875	1.5	-0.0625
19	01	14	15	51	03	0.799252873239	-0.131113118353	0.553873573528	-0.94287109375	-0.00390625	0.35595703125	0.8125	1.625	-0.3125
19	01	14	15	51	03	0.799113089285	-0.131171251823	0.554105455586	-0.94677734375	-0.00341796875	0.3525390625	0.5625	1.5625	-0.125
19	01	14	15	51	03	0.799002098486	-0.131295150026	0.554235221868	-0.94580078125	-0.00048828125	0.357421875	-0.4375	1.125	0.0
19	01	14	15	51	03	0.799027165899	-0.13135027584	0.554210271665	-0.94482421875	-0.0078125	0.35986328125	-0.6875	0.8125	0.125
19	01	14	15	51	03	0.799027165899	-0.13135027584	0.554210271665	-0.94189453125	-0.0068359375	0.3564453125	-0.625	0.375	0.1875
19	01	14	15	51	03	0.799054194462	-0.131354719004	0.554167980408	-0.939453125	-0.00048828125	0.35986328125	-0.9375	-0.25	0.3125
19	01	14	15	51	03	0.799114649359	-0.131659815053	0.553923422161	-0.93701171875	-0.00439453125	0.35888671875	-2.25	-0.6875	0.3125
19	01	14	15	51	03	0.799114691041	-0.132148129094	0.553679297466	-0.9326171875	-0.00341796875	0.35205078125	-3.5	-1.1875	0.5
19	01	14	15	51	03	0.799195022703	-0.132761718046	0.553265384998	-0.9287109375	-0.00927734375	0.353515625	-4.3125	-1.375	0.5
19	01	14	15	51	03	0.799233825878	-0.133246329761	0.552944801331	-0.93505859375	-0.00927734375	0.35107421875	-3.75	-1.375	0.5625
19	01	14	15	51	04	0.799228269599	-0.133611629918	0.552757844012	-0.9287109375	-0.0087890625	0.34375	-2.6875	-1.25	0.5625
19	01	14	15	51	04	0.799218116142	-0.133854080396	0.552628747789	-0.9365234375	-0.00244140625	0.345703125	-1.9375	-1.125	0.75
19	01	14	15	51	04	0.799155876356	-0.134036989573	0.552566879145	-0.93408203125	-0.00341796875	0.3408203125	-1.875	-1.0	0.875
19	01	14	15	51	04	0.799076108671	-0.134216954092	0.552553926963	-0.93701171875	-0.00390625	0.33837890625	-1.5	-0.75	1.125
19	01	14	15	51	04	0.798984307629	-0.13422203915	0.552574861494	-0.939453125	-0.0029296875	0.34716796875	-0.9375	-0.25	1.75
19	01	14	15	51	04	0.798809101746	-0.134040252727	0.552763446581	-0.9453125	-0.00146484375	0.34619140625	-0.1875	0.25	2.3125
19	01	14	15	51	04	0.798557714181	-0.133855925032	0.553063628235	-0.94921875	-0.00341796875	0.34375	0.1875	0.625	2.875
19	01	14	15	51	04	0.798304326682	-0.133671265038	0.553301377886	-0.94970703125	-0.0029296875	0.345703125	-0.25	0.875	3.8125
19	01	14	15	51	04	0.79799189612	-0.133486941779	0.553601537235	-0.943359375	-0.0029296875	0.34814453125	-0.8125	1.125	4.3125
19	01	14	15	51	04	0.797647221217	-0.133307432747	0.553921681401	-0.9482421875	0.0	0.345703125	-0.8125	1.3125	4.375
19	01	14	15	51	04	0.797262087571	-0.133243235122	0.554274767817	-0.951171875	-0.00537109375	0.3515625	-1.5	1.875	4.3125
19	01	14	15	51	04	0.796839044245	-0.133488088071	0.554582884413	-0.95068359375	-0.00830078125	0.34375	-2.625	1.75	4.125
19	01	14	15	51	04	0.796534415267	-0.133793366917	0.554705346049	-0.94775390625	-0.01318359375	0.3515625	-3.0625	1.4375	4.0
19	01	14	15	51	04	0.796178988064	-0.134039332857	0.554957019279	-0.94482421875	-0.01806640625	0.34423828125	-2.375	1.4375	3.9375
19	01	14	15	51	04	0.79586500389	-0.13428200081	0.555195036075	-0.947265625	-0.0146484375	0.34228515625	-1.9375	1.75	3.4375
19	01	14	15	51	04	0.795577683015	-0.134529170889	0.555390619745	-0.94775390625	-0.01171875	0.3505859375	-2.0	1.5	3.0
19	01	14	15	51	04	0.795270415732	-0.13495608943	0.555572286745	-0.9482421875	-0.00634765625	0.3427734375	-2.9375	1.5	2.125
19	01	14	15	51	04	0.794983154649	-0.135447452408	0.555706898028	-0.951171875	-0.00537109375	0.349609375	-3.3125	1.75	1.5625
19	01	14	15	51	04	0.794697436605	-0.136050736267	0.555860948937	-0.9501953125	-0.0068359375	0.3466796875	-3.4375	1.8125	0.6875
19	01	14	15	51	04	0.794461111091	-0.136723485621	0.555988495769	-0.95068359375	-0.01123046875	0.3427734375	-3.1875	1.8125	0.25
19	01	14	15	51	04	0.794213872943	-0.137333324172	0.556169444379	-0.96044921875	-0.00927734375	0.34521484375	-2.4375	1.6875	-0.1875
19	01	14	15	51	04	0.793969161322	-0.137760485632	0.556413197618	-0.9638671875	-0.0048828125	0.3408203125	-1.5625	1.5625	-0.25
19	01	14	15	51	04	0.793780452317	-0.138125733456	0.55659238329	-0.96044921875	-0.00537109375	0.3388671875	-1.5	1.0625	-0.125
19	01	14	15	51	04	0.7936357077	-0.13849864796	0.556680330274	-0.95849609375	-0.00537109375	0.33740234375	-1.75	0.625	0.1875
19	01	14	15	51	04	0.793542746435	-0.138798262087	0.556718974712	-0.95703125	-0.0107421875	0.33935546875	-1.0625	0.125	0.4375
19	01	14	15	51	04	0.793545838806	-0.138859840265	0.556721144201	-0.95458984375	-0.00634765625	0.33642578125	-0.4375	-0.3125	0.6875
19	01	14	15	51	04	0.793545838806	-0.138859840265	0.556721144201	-0.95654296875	-0.0009765625	0.33984375	-0.1875	-0.5	0.875
19	01	14	15	51	04	0.793496268739	-0.138861847029	0.556790227956	-0.9482421875	0.0	0.3359375	-0.1875	-1.0	0.8125
19	01	14	15	51	04	0.793545838806	-0.138859840265	0.556721144201	-0.94873046875	0.0	0.345703125	-0.5625	-0.6875	0.8125
19	01	14	15	51	04	0.793539111614	-0.138919699872	0.556716424662	-0.9423828125	-0.00341796875	0.34521484375	-0.5	-0.8125	0.875
19	01	14	15	51	04	0.793540288232	-0.139041979586	0.556595176401	-0.94482421875	-0.00244140625	0.34033203125	-1.5625	-1.0625	1.125
19	01	14	15	51	04	0.793568346803	-0.13916897398	0.556431739824	-0.94921875	-0.0078125	0.33447265625	-1.3125	-1.625	1.1875
19	01	14	15	51	04	0.793622020355	-0.13935079776	0.556243460352	-0.9521484375	-0.0146484375	0.33349609375	-0.9375	-1.875	1.1875
19	01	14	15	51	04	0.793807877319	-0.139412317708	0.55594018813	-0.95361328125	-0.01318359375	0.33984375	-0.25	-2.3125	1.125
19	01	14	15	51	04	0.793967240145	-0.13928607334	0.555679409154	-0.9580078125	-0.0068359375	0.3427734375	0.0625	-2.375	1.25
19	01	14	15	51	04	0.794107063205	-0.139228148437	0.5554476768	-0.95068359375	-0.00537109375	0.34228515625	-0.1875	-2.25	1.1875
19	01	14	15	51	04	0.794220304102	-0.139226599574	0.555197347534	-0.9462890625	-0.0078125	0.33935546875	-0.75	-2.125	1.375
19	01	14	15	51	04	0.794283529935	-0.13941009624	0.555015764059	-0.93798828125	-0.013671875	0.333984375	-1.125	-1.8125	1.0
19	01	14	15	51	04	0.794346688057	-0.139593581957	0.554834132045	-0.947265625	-0.01171875	0.33642578125	-0.9375	-1.75	0.8125
19	01	14	15	51	04	0.794382883682	-0.13977232452	0.554694709712	-0.94921875	-0.001953125	0.3388671875	-0.875	-1.375	0.125
19	01	14	15	51	04	0.79446884813	-0.140020861832	0.554529001634	-0.9482421875	-0.0166015625	0.3388671875	-0.875	-1.5	-0.0625
19	01	14	15	51	04	0.794646422552	-0.140264035565	0.554280986497	-0.9521484375	-0.01708984375	0.3408203125	-0.125	-1.6875	-0.5625
19	01	14	15	51	04	0.794843984402	-0.140266585483	0.554107947351	-0.9423828125	-0.01953125	0.34521484375	1.5625	-1.75	-0.3125
19	01	14	15	51	04	0.795067277679	-0.140079794432	0.553971335192	-0.943359375	-0.01171875	0.34130859375	2.375	-1.5625	-0.5
19	01	14	15	51	04	0.795222330528	-0.139780406579	0.553933270612	-0.9423828125	-0.00048828125	0.33984375	2.25	-1.5625	-0.4375
19	01	14	15	51	04	0.795356565501	-0.139588708871	0.553838191647	-0.9404296875	0.00048828125	0.34130859375	1.3125	-1.375	-0.4375
19	01	14	15	51	04	0.795484719495	-0.139589776221	0.553720354121	-0.93994140625	-0.00390625	0.34619140625	0.875	-1.0625	-0.5625
19	01	14	15	51	04	0.795616098903	-0.139408298419	0.553665794641	-0.939453125	-0.00390625	0.34375	1.4375	-1.0	-0.375
19	01	14	15	51	04	0.795701171433	-0.139290432127	0.553682519643	-0.94482421875	-0.00830078125	0.34228515625	1.9375	-0.625	-0.1875
19	01	14	15	51	04	0.795753157339	-0.139044695284	0.553737258831	-0.94384765625	-0.00634765625	0.341796875	2.1875	-0.8125	0.1875
19	01	14	15	51	05	0.795808734069	-0.138677515248	0.553794496411	-0.9443359375	0.00244140625	0.3408203125	1.875	-0.75	0.6875
19	01	14	15	51	05	0.795808734069	-0.138677515248	0.553794496411	-0.939453125	0.00439453125	0.341796875	0.6875	-0.8125	0.875
19	01	14	15	51	05	0.795770379802	-0.138559389595	0.553810282729	-0.93994140625	0.00048828125	0.3408203125	0.125	-0.8125	1.1875
19	01	14	15	51	05	0.795747115363	-0.138433263607	0.553855129616	-0.9462890625	-0.00439453125	0.33935546875	0.625	-0.5625	1.4375
19	01	14	15	51	05	0.795733597013	-0.138064692525	0.553967793702	-0.9521484375	-0.00390625	0.35009765625	1.75	-0.25	1.625
19	01	14	15	51	05	0.795717201331	-0.137706198696	0.554120953796	-0.95556640625	-0.009765625	0.34521484375	2.4375	-0.1875	1.75
19	01	14	15	51	05	0.7957101142	-0.137277696137	0.554238097341	-0.94970703125	-0.00634765625	0.3505859375	2.4375	-0.1875	2.0625
19	01	14	15	51	05	0.795685756132	-0.136846230841	0.554404243859	-0.9521484375	-0.005859375	0.34228515625	2.625	-0.1875	1.9375
19	01	14	15	51	05	0.795730851924	-0.136477271221	0.55445417342	-0.9423828125	-0.00634765625	0.35302734375	2.25	-0.1875	1.75
19	01	14	15	51	05	0.795754150513	-0.136176076536	0.554470407552	-0.94189453125	0.001953125	0.3544921875	1.5	-0.125	1.5
19	01	14	15	51	05	0.795767373425	-0.136056261054	0.554479621093	-0.94384765625	-0.0009765625	0.35009765625	0.625	-0.0625	1.125
19	01	14	15	51	05	0.795767373425	-0.136056261054	0.554479621093	-0.9453125	-0.0009765625	0.35009765625	0.1875	-0.3125	0.75
19	01	14	15	51	05	0.795760763369	-0.136116169542	0.554475015298	-0.9482421875	-0.00341796875	0.35107421875	-0.375	-0.3125	0.3125
19	01	14	15	51	05	0.795733831207	-0.136111562752	0.554517285918	-0.95068359375	0.0	0.3427734375	-0.6875	-0.5	-0.0625
19	01	14	15	51	05	0.795743639362	-0.136113240452	0.554524120856	-0.95068359375	0.0	0.3466796875	-0.9375	-0.8125	-0.0625
19	01	14	15	51	05	0.795790231025	-0.136293878346	0.554391982543	-0.94970703125	-0.00244140625	0.345703125	-0.625	-1.125	0.0
19	01	14	15	51	05	0.795901832393	-0.136353120672	0.554262618095	-0.94921875	-0.00927734375	0.345703125	0.25	-1.25	0.25
19	01	14	15	51	05	0.796030077355	-0.136171070586	0.554144845293	-0.94677734375	-0.00634765625	0.34521484375	1.25	-1.5625	0.5625
19	01	14	15	51	05	0.796240350843	-0.135870526713	0.553980638118	-0.95263671875	-0.00537109375	0.34521484375	2.1875	-2.125	0.6875
19	01	14	15	51	05	0.796354723201	-0.135564025464	0.553914241822	-0.95068359375	0.0029296875	0.34423828125	1.8125	-1.875	0.6875
19	01	14	15	51	05	0.796472971629	-0.135380262938	0.553789506598	-0.94580078125	0.001953125	0.34033203125	1.0	-1.875	0.8125
19	01	14	15	51	05	0.796657506038	-0.135197393187	0.553546347093	-0.94140625	-0.00048828125	0.3515625	0.5625	-2.1875	0.8125
19	01	14	15	51	05	0.796851744406	-0.135016166881	0.5533099244	-0.943359375	-0.0078125	0.3447265625	0.9375	-2.3125	1.1875
19	01	14	15	51	05	0.797028786065	-0.134832025457	0.553122596057	-0.9443359375	-0.00537109375	0.34423828125	1.4375	-2.125	0.875
19	01	14	15	51	05	0.797163137413	-0.134589947779	0.553009037133	-0.94580078125	-0.00634765625	0.345703125	1.5	-2.125	1.0
19	01	14	15	51	05	0.797349822277	-0.134407433871	0.552828396261	-0.94580078125	-0.0029296875	0.34423828125	1.25	-2.1875	0.625
19	01	14	15	51	05	0.797460389815	-0.134222380192	0.55275937927	-0.9453125	-0.001953125	0.3427734375	1.5625	-1.9375	0.4375
19	01	14	15	51	05	0.797705005108	-0.13397830639	0.552576586674	-0.943359375	-0.0078125	0.34912109375	2.3125	-1.8125	-0.0625
19	01	14	15	51	05	0.797876690908	-0.133793276199	0.552507635106	-0.94140625	-0.00634765625	0.3505859375	2.5	-1.25	-0.25
19	01	14	15	51	05	0.798008889688	-0.133428746585	0.552514645056	-0.94189453125	0.00390625	0.35302734375	2.75	-0.875	-0.4375
19	01	14	15	51	05	0.798101011716	-0.133179596785	0.552554944866	-0.9423828125	0.005859375	0.35400390625	2.4375	-0.25	-0.5
19	01	14	15	51	05	0.798135729035	-0.133063313651	0.552640019172	-0.943359375	0.0029296875	0.3515625	1.625	0.0625	-0.4375
19	01	14	15	51	05	0.798078153316	-0.133002852472	0.552825532282	-0.9453125	-0.00244140625	0.34130859375	1.4375	0.125	-0.375
19	01	14	15	51	05	0.798138090073	-0.132941630482	0.552885807577	-0.94873046875	-0.00634765625	0.3525390625	1.875	-0.125	-0.375
19	01	14	15	51	05	0.798239466682	-0.132694035829	0.552932507163	-0.9482421875	-0.00732421875	0.35205078125	2.8125	-0.4375	-0.1875
19	01	14	15	51	05	0.798320595537	-0.132270107082	0.553068500356	-0.9453125	-0.0009765625	0.34521484375	3.5625	-0.8125	-0.125
19	01	14	15	51	05	0.798496369954	-0.131780588804	0.553063416003	-0.94287109375	0.0029296875	0.35595703125	3.5625	-0.875	0.1875
19	01	14	15	51	05	0.79867951308	-0.131292291375	0.553002398816	-0.9404296875	0.00341796875	0.353515625	3.25	-1.1875	0.3125
19	01	14	15	51	05	0.798856008843	-0.130863942769	0.55293678057	-0.9375	0.00732421875	0.3564453125	2.6875	-1.0625	0.1875
19	01	14	15	51	05	0.798970515434	-0.130557519673	0.55293154311	-0.93798828125	0.00537109375	0.35498046875	2.4375	-0.9375	0.125
19	01	14	15	51	05	0.799080185193	-0.130260263937	0.552904156862	-0.9404296875	0.0048828125	0.353515625	1.9375	-0.75	0.0625
19	01	14	15	51	05	0.799116788522	-0.130134203569	0.552948288055	-0.94287109375	0.00146484375	0.34912109375	1.5	-0.625	0.0
19	01	14	15	51	05	0.799180319259	-0.130012531889	0.552950012386	-0.94384765625	0.00048828125	0.3515625	1.4375	-0.625	0.1875
19	01	14	15	51	05	0.799223167513	-0.129826460768	0.552998464768	-0.94482421875	0.00048828125	0.349609375	1.75	-0.625	0.4375
19	01	14	15	51	05	0.799250231868	-0.129586699424	0.55307823056	-0.94873046875	0.00146484375	0.34619140625	2.0	-0.75	0.5
19	01	14	15	51	05	0.799284892739	-0.129216198391	0.553182052913	-0.9423828125	0.00439453125	0.34375	2.25	-0.75	0.625
19	01	14	15	51	05	0.79934639621	-0.128850049053	0.553243412893	-0.94287109375	0.00390625	0.3525390625	2.5	-0.625	0.625
19	01	14	15	51	05	0.799417306732	-0.128485411214	0.553311283922	-0.9423828125	-0.00048828125	0.35546875	2.875	-0.125	0.6875
19	01	14	15	51	05	0.799399510145	-0.128238403513	0.553482076658	-0.9423828125	-0.0009765625	0.3525390625	2.4375	0.375	0.5625
19	01	14	15	51	05	0.799370802208	-0.128060472131	0.553626540625	-0.94677734375	0.01220703125	0.35595703125	1.5625	0.4375	0.0
19	01	14	15	51	06	0.799221927365	-0.128117215942	0.553852128373	-0.947265625	0.0068359375	0.35546875	0.125	1.375	0.125
19	01	14	15	51	06	0.799111524754	-0.128424278039	0.553982294429	-0.94677734375	-0.00390625	0.3544921875	-0.6875	1.0625	-0.4375
19	01	14	15	51	06	0.799105259279	-0.128484308798	0.553977950902	-0.939453125	-0.0107421875	0.35302734375	0.1875	0.625	-0.4375
19	01	14	15	51	06	0.799171797707	-0.128607269363	0.553981763995	-0.94482421875	-0.009765625	0.34912109375	1.125	0.0625	-0.6875
19	01	14	15	51	06	0.799230014485	-0.128545777494	0.554040846302	-0.94287109375	-0.0009765625	0.35400390625	1.5625	0.0	-0.8125
19	01	14	15	51	06	0.799223742181	-0.128605806077	0.554036498227	-0.9453125	-0.00146484375	0.35546875	0.9375	-0.3125	-0.6875
19	01	14	15	51	06	0.799223742181	-0.128605806077	0.554036498227	-0.94287109375	-0.0029296875	0.35791015625	0.375	-0.125	-0.6875
19	01	14	15	51	06	0.799226943077	-0.128667358791	0.554038717146	-0.94677734375	-0.00927734375	0.35498046875	0.8125	-0.5	-0.5
19	01	14	15	51	06	0.799345397086	-0.12866677589	0.553975169819	-0.94775390625	-0.0107421875	0.35400390625	1.5	-0.5625	-0.25
19	01	14	15	51	06	0.799495202773	-0.128549159951	0.553933345943	-0.94873046875	-0.0166015625	0.35009765625	2.375	-1.0625	-0.25
19	01	14	15	51	06	0.799783716206	-0.12824128732	0.553738676137	-0.9443359375	-0.01123046875	0.3623046875	3.3125	-1.375	-0.1875
19	01	14	15	51	06	0.800087548006	-0.12787484079	0.553554621061	-0.93994140625	-0.01025390625	0.3642578125	3.75	-1.5625	-0.4375
19	01	14	15	51	06	0.800504516614	-0.127445934479	0.553242313274	-0.93798828125	-0.00634765625	0.373046875	4.0625	-1.625	-0.8125
19	01	14	15	51	06	0.800871948961	-0.127018864857	0.552998998368	-0.93408203125	-0.0048828125	0.3740234375	4.125	-1.4375	-1.0625
19	01	14	15	51	06	0.801248175113	-0.126593183148	0.552761748597	-0.9384765625	0.00048828125	0.3701171875	3.8125	-1.375	-1.4375
19	01	14	15	51	06	0.801599011992	-0.126224530328	0.552506986717	-0.93505859375	0.00146484375	0.3701171875	3.4375	-1.5	-1.5625
19	01	14	15	51	06	0.801957917172	-0.126040269348	0.552196763578	-0.93603515625	-0.00146484375	0.3701171875	2.5625	-1.75	-1.5625
19	01	14	15	51	06	0.802303137257	-0.12586344104	0.551858084597	-0.93798828125	0.00146484375	0.36962890625	1.9375	-2.125	-1.5
19	01	14	15	51	06	0.802641975744	-0.125676032552	0.551473022878	-0.93603515625	0.00537109375	0.3642578125	1.1875	-2.75	-1.0625
19	01	14	15	51	06	0.802995224209	-0.125612965295	0.551036856504	-0.9375	-0.0009765625	0.36474609375	0.875	-3.0	-0.5625
19	01	14	15	51	06	0.80337509214	-0.125370949647	0.550557919093	-0.9384765625	0.0029296875	0.3671875	1.125	-3.375	0.0
19	01	14	15	51	06	0.803702887882	-0.12506928057	0.55014613264	-0.943359375	0.0	0.36376953125	1.5	-3.625	0.5625
19	01	14	15	51	06	0.804064224899	-0.124641247039	0.549715509712	-0.9384765625	-0.00048828125	0.365234375	1.625	-3.75	1.0625
19	01	14	15	51	06	0.804376641491	-0.124215090714	0.549354209548	-0.94189453125	-0.00244140625	0.3603515625	2.125	-3.6875	1.5625
19	01	14	15	51	06	0.804667846571	-0.123724624516	0.549039465972	-0.9384765625	-0.00390625	0.35986328125	2.5	-3.5625	1.75
19	01	14	15	51	06	0.804970803752	-0.123113899846	0.54873275142	-0.9365234375	-0.00244140625	0.36279296875	2.75	-3.375	2.0
19	01	14	15	51	06	0.805212844298	-0.122625273211	0.548487160314	-0.9326171875	-0.00244140625	0.36376953125	2.625	-3.0625	1.9375
19	01	14	15	51	06	0.805463890674	-0.122138014947	0.548247701275	-0.93212890625	-0.001953125	0.3623046875	2.4375	-2.75	1.5625
19	01	14	15	51	06	0.805639026512	-0.121831615798	0.54805915744	-0.9296875	-0.0048828125	0.36328125	1.75	-2.25	1.375
