18	11	28	11	37	28	0.463893606303	-0.546661991849	0.295365942224	-0.94384765625	-0.15576171875	0.2197265625	-17.6875	-8.625	4.625
18	11	28	11	37	28	0.462659881664	-0.546829799449	0.293099307619	-0.90673828125	-0.1728515625	0.1982421875	-14.75	-10.1875	5.125
18	11	28	11	37	28	0.462105185813	-0.546518271532	0.291264819271	-0.89697265625	-0.1904296875	0.21142578125	-9.1875	-10.0625	5.0625
18	11	28	11	37	28	0.462180533987	-0.545802738367	0.290846572167	-0.9296875	-0.19189453125	0.208984375	0.5625	-7.375	5.8125
18	11	28	11	37	28	0.462217231419	-0.544858474168	0.29156367549	-0.95751953125	-0.1689453125	0.2060546875	5.3125	-5.1875	7.0
18	11	28	11	37	28	0.462001897544	-0.544098945001	0.292436397296	-0.99267578125	-0.14013671875	0.21533203125	4.1875	-3.375	6.3125
18	11	28	11	37	28	0.461271946598	-0.543857753631	0.293231498142	-1.009765625	-0.11669921875	0.21435546875	0.4375	-0.9375	5.25
18	11	28	11	37	28	0.459912104672	-0.54450907575	0.293281707093	-1.0244140625	-0.1064453125	0.21923828125	-6.5	1.5625	2.9375
18	11	28	11	37	28	0.457946276638	-0.546141980989	0.292297043692	-1.03076171875	-0.107421875	0.22802734375	-15.1875	3.6875	0.75
18	11	28	11	37	28	0.455452772826	-0.548533110343	0.290349616769	-1.0244140625	-0.11669921875	0.23681640625	-22.6875	5.5	-0.8125
18	11	28	11	37	28	0.452528666087	-0.551591793287	0.287484491134	-1.0126953125	-0.130859375	0.23486328125	-28.875	6.0	-1.8125
18	11	28	11	37	28	0.449410846774	-0.554881706916	0.284002264028	-0.99267578125	-0.14697265625	0.23046875	-32.6875	5.125	-2.25
18	11	28	11	37	28	0.446304254884	-0.558124467541	0.280160903982	-0.978515625	-0.16552734375	0.22119140625	-33.5	3.5625	-1.625
18	11	28	11	37	28	0.443550018565	-0.560861582578	0.276554992998	-0.96337890625	-0.17529296875	0.21435546875	-30.1875	1.625	-1.0625
18	11	28	11	37	28	0.441353285322	-0.562937539831	0.273564572647	-0.9453125	-0.1806640625	0.2099609375	-24.5625	0.1875	0.3125
18	11	28	11	37	28	0.43970750512	-0.564405233183	0.271307587488	-0.9404296875	-0.185546875	0.20751953125	-17.8125	-0.625	1.3125
18	11	28	11	37	28	0.438671033	-0.565017079794	0.269965490324	-0.95166015625	-0.1728515625	0.2119140625	-10.8125	-1.875	2.1875
18	11	28	11	37	28	0.437817724045	-0.565079672272	0.269172753804	-0.95703125	-0.15478515625	0.21533203125	-6.8125	-2.9375	3.1875
18	11	28	11	37	28	0.43702944463	-0.564964321158	0.268626618131	-0.95703125	-0.14697265625	0.212890625	-5.75	-3.75	3.4375
18	11	28	11	37	28	0.436175181847	-0.564964663193	0.267955366402	-0.97607421875	-0.142578125	0.208984375	-6.4375	-3.9375	2.75
18	11	28	11	37	28	0.435247691232	-0.565071255845	0.267215592794	-0.98876953125	-0.13818359375	0.216796875	-7.4375	-3.3125	2.25
18	11	28	11	37	28	0.434215918957	-0.565445076358	0.2663036343	-0.99658203125	-0.14306640625	0.2021484375	-8.6875	-3.0625	1.5625
18	11	28	11	37	28	0.433304671985	-0.565877956609	0.265512793792	-0.99658203125	-0.15283203125	0.1982421875	-7.6875	-2.75	1.5
18	11	28	11	37	28	0.432393531795	-0.566249970985	0.264844090127	-0.98583984375	-0.15625	0.1982421875	-6.9375	-2.5	2.75
18	11	28	11	37	28	0.431468708413	-0.566543011952	0.264411153607	-0.97998046875	-0.1552734375	0.1982421875	-5.75	-2.0	3.3125
18	11	28	11	37	28	0.430725485964	-0.566711936684	0.264099359185	-0.98095703125	-0.16015625	0.19970703125	-4.3125	-1.875	3.4375
18	11	28	11	37	28	0.42992994532	-0.566831260958	0.263792905121	-0.9755859375	-0.16064453125	0.20556640625	-4.375	-2.0	4.125
18	11	28	11	37	28	0.428967493388	-0.566971975822	0.263496395696	-0.97412109375	-0.14990234375	0.20654296875	-5.375	-1.6875	4.5625
18	11	28	11	37	28	0.427985172167	-0.567208528943	0.262943542741	-0.96728515625	-0.1533203125	0.20849609375	-6.5625	-1.9375	4.0
18	11	28	11	37	28	0.426949975239	-0.567577958505	0.262151557348	-0.97314453125	-0.1591796875	0.2041015625	-7.8125	-2.125	3.0625
18	11	28	11	37	28	0.426156661725	-0.568005427387	0.261297145352	-0.97607421875	-0.17236328125	0.2041015625	-7.25	-2.125	2.75
18	11	28	11	37	28	0.425438792367	-0.568330071124	0.260634669069	-0.9736328125	-0.17236328125	0.20703125	-5.5625	-1.8125	3.0
18	11	28	11	37	28	0.424993405534	-0.568488952915	0.260318379234	-0.9794921875	-0.171875	0.203125	-2.9375	-1.75	2.9375
18	11	28	11	37	28	0.424570616561	-0.568555965105	0.260076969116	-0.9775390625	-0.16357421875	0.2021484375	-2.4375	-1.875	2.875
18	11	28	11	37	28	0.424154401148	-0.568631803295	0.259778548178	-0.97509765625	-0.1630859375	0.205078125	-2.8125	-1.8125	2.625
18	11	28	11	37	28	0.42367097148	-0.56869938644	0.259476343432	-0.97314453125	-0.15673828125	0.205078125	-2.9375	-1.9375	2.375
18	11	28	11	37	28	0.423406931102	-0.568794751469	0.259158977867	-0.97119140625	-0.1640625	0.20849609375	-2.25	-1.6875	1.8125
18	11	28	11	37	28	0.423359972462	-0.568813665423	0.258984481424	-0.978515625	-0.16552734375	0.2109375	-0.625	-1.1875	1.25
18	11	28	11	37	29	0.423345273685	-0.56885495253	0.258975489655	-0.9775390625	-0.1591796875	0.21142578125	0.1875	-0.8125	0.9375
18	11	28	11	37	29	0.423362220117	-0.568877723686	0.258985856395	-0.97412109375	-0.15771484375	0.21533203125	0.6875	-0.6875	0.8125
18	11	28	11	37	29	0.423544152561	-0.568815096947	0.258985133206	-0.9833984375	-0.1650390625	0.212890625	1.4375	-0.75	0.6875
18	11	28	11	37	29	0.423604495573	-0.568814163436	0.259045746284	-0.98193359375	-0.16455078125	0.2080078125	0.9375	-1.0	1.0625
18	11	28	11	37	29	0.42358754275	-0.568791399263	0.259035379169	-0.97998046875	-0.1572265625	0.20361328125	0.125	-1.5	1.125
18	11	28	11	37	29	0.423421200612	-0.568752882701	0.258862521521	-0.97119140625	-0.15625	0.20458984375	-1.25	-2.0625	1.3125
18	11	28	11	37	29	0.423360354955	-0.568753141216	0.258496410501	-0.970703125	-0.16015625	0.20703125	-1.375	-2.1875	0.75
18	11	28	11	37	29	0.423357560808	-0.568688349777	0.258189515891	-0.98046875	-0.16015625	0.21875	-1.125	-1.9375	0.5
18	11	28	11	37	29	0.423298847666	-0.568752510822	0.257824705485	-0.982421875	-0.15869140625	0.2177734375	-1.375	-1.5625	0.125
18	11	28	11	37	29	0.423348312048	-0.568736962466	0.257512475278	-0.97998046875	-0.15966796875	0.21630859375	-0.9375	-1.625	-0.125
18	11	28	11	37	29	0.423416963461	-0.5688082287	0.257211919277	-0.98193359375	-0.15771484375	0.21484375	-0.875	-1.375	-0.375
18	11	28	11	37	29	0.423302186342	-0.569001150841	0.256789084058	-0.98486328125	-0.15771484375	0.20458984375	-2.25	-1.875	-0.75
18	11	28	11	37	29	0.423420019055	-0.569056485174	0.256176130889	-0.9814453125	-0.16650390625	0.22216796875	-2.0	-2.0	-0.9375
18	11	28	11	37	29	0.423645951462	-0.569032013468	0.255615796675	-0.97900390625	-0.17236328125	0.22314453125	-0.9375	-2.125	-0.8125
18	11	28	11	37	29	0.423956518332	-0.568856140347	0.255313866424	-0.9755859375	-0.16650390625	0.220703125	0.5	-2.375	-0.75
18	11	28	11	37	29	0.424396547435	-0.568568076996	0.255016363467	-0.962890625	-0.16455078125	0.22216796875	0.9375	-2.75	-0.875
18	11	28	11	37	29	0.424703092185	-0.568386777008	0.254589910535	-0.96826171875	-0.15673828125	0.22265625	-0.1875	-2.75	-1.3125
18	11	28	11	37	29	0.424934292185	-0.568247380098	0.254093860725	-0.9677734375	-0.15625	0.224609375	-1.0	-2.9375	-1.625
18	11	28	11	37	29	0.425249813806	-0.568078084842	0.253428624504	-0.962890625	-0.15966796875	0.22998046875	-1.25	-3.0	-1.9375
18	11	28	11	37	29	0.425612451008	-0.567890182731	0.252938189729	-0.966796875	-0.1611328125	0.2255859375	-0.1875	-2.9375	-1.8125
18	11	28	11	37	29	0.426040981252	-0.567647725737	0.252755831428	-0.962890625	-0.1591796875	0.22216796875	1.5	-2.5625	-1.5625
18	11	28	11	37	29	0.426529137356	-0.567281311188	0.252755746679	-0.9658203125	-0.1513671875	0.2265625	2.4375	-2.4375	-1.375
18	11	28	11	37	29	0.427017134044	-0.566914685678	0.252755567764	-0.97216796875	-0.15185546875	0.2255859375	2.5	-2.3125	-1.4375
18	11	28	11	37	29	0.427392788356	-0.566683040146	0.252761144899	-0.97021484375	-0.15283203125	0.21728515625	1.9375	-2.1875	-1.25
18	11	28	11	37	29	0.427684171675	-0.566420595568	0.252752983432	-0.9775390625	-0.154296875	0.2275390625	1.5625	-2.0	-1.0
18	11	28	11	37	29	0.427988428805	-0.566236259843	0.252813472919	-0.97705078125	-0.15966796875	0.220703125	1.75	-1.8125	-0.4375
18	11	28	11	37	29	0.428119297346	-0.566064779524	0.252940742543	-0.974609375	-0.154296875	0.2236328125	1.8125	-1.5	0.3125
18	11	28	11	37	29	0.42817409953	-0.565812388118	0.253120169744	-0.9755859375	-0.154296875	0.2265625	1.125	-1.4375	0.8125
18	11	28	11	37	29	0.428170844632	-0.565624977505	0.253240318514	-0.97119140625	-0.15380859375	0.22216796875	0.625	-1.5625	1.0625
18	11	28	11	37	29	0.42811376118	-0.565447089189	0.253242656849	-0.96435546875	-0.1572265625	0.22998046875	0.0	-1.5625	1.3125
18	11	28	11	37	29	0.427877757207	-0.565335775642	0.253064362536	-0.95361328125	-0.1533203125	0.2294921875	-1.25	-1.5625	1.4375
18	11	28	11	37	29	0.427752871993	-0.565332063413	0.252818549628	-0.96484375	-0.16015625	0.2294921875	-1.375	-1.5	0.75
18	11	28	11	37	29	0.427621349118	-0.565319574013	0.252629854981	-0.96826171875	-0.15771484375	0.23095703125	-1.3125	-1.125	0.625
18	11	28	11	37	29	0.427373697411	-0.5654370084	0.252322602842	-0.9736328125	-0.16064453125	0.23583984375	-2.4375	-0.4375	0.6875
18	11	28	11	37	29	0.427195473816	-0.565626583205	0.252020304527	-0.97509765625	-0.162109375	0.2314453125	-2.25	-0.6875	0.25
18	11	28	11	37	29	0.426950094532	-0.565808059516	0.251714394546	-0.9658203125	-0.16015625	0.22412109375	-2.1875	-0.75	0.375
18	11	28	11	37	29	0.426717723847	-0.56600678776	0.251294073677	-0.9716796875	-0.1630859375	0.2265625	-2.9375	-0.875	0.3125
18	11	28	11	37	29	0.426453317461	-0.566224048388	0.250854892624	-0.97216796875	-0.16259765625	0.22900390625	-3.0	-1.0	0.1875
18	11	28	11	37	29	0.426210041777	-0.566408304123	0.250367118913	-0.9716796875	-0.1689453125	0.2275390625	-3.125	-1.1875	0.1875
18	11	28	11	37	29	0.425990255867	-0.56662380645	0.249832084434	-0.97119140625	-0.16552734375	0.2275390625	-3.1875	-1.25	0.0625
18	11	28	11	37	29	0.425850770989	-0.566783755111	0.249455654441	-0.96923828125	-0.16796875	0.22607421875	-2.1875	-1.3125	0.1875
18	11	28	11	37	29	0.425734201862	-0.566852119382	0.249153693477	-0.97021484375	-0.1650390625	0.22412109375	-1.5	-1.3125	0.0
18	11	28	11	37	29	0.425745356462	-0.566928010153	0.248916066473	-0.97216796875	-0.1689453125	0.2275390625	-0.9375	-1.125	0.0
18	11	28	11	37	29	0.425791722206	-0.567030547491	0.248663342355	-0.9697265625	-0.171875	0.22607421875	-0.625	-1.125	0.0
18	11	28	11	37	29	0.42572683309	-0.567025416402	0.248477983872	-0.966796875	-0.16357421875	0.23046875	-0.875	-1.125	0.1875
18	11	28	11	37	29	0.425670788309	-0.567093102119	0.248236750222	-0.96630859375	-0.1669921875	0.2216796875	-1.0625	-1.3125	0.1875
18	11	28	11	37	29	0.425610445985	-0.567155064405	0.247870933765	-0.96533203125	-0.1650390625	0.22607421875	-1.6875	-1.5	0.0
18	11	28	11	37	29	0.425543607461	-0.567208368349	0.247562374048	-0.966796875	-0.16455078125	0.2275390625	-1.625	-1.375	-0.25
18	11	28	11	37	29	0.425529121529	-0.567311128028	0.247248776723	-0.96435546875	-0.16455078125	0.22412109375	-1.1875	-1.3125	-0.4375
18	11	28	11	37	29	0.425604779113	-0.567330621233	0.247013127932	-0.96923828125	-0.1640625	0.2294921875	-0.6875	-1.0625	-0.6875
18	11	28	11	37	30	0.425607192342	-0.567394874518	0.247014528526	-0.9677734375	-0.1650390625	0.224609375	-0.0625	-0.8125	-0.9375
18	11	28	11	37	30	0.425607192342	-0.567394874518	0.247014528526	-0.96923828125	-0.1689453125	0.22998046875	0.5625	-0.375	-0.8125
18	11	28	11	37	30	0.425793833555	-0.567460617913	0.247016577465	-0.97314453125	-0.169921875	0.22265625	1.125	-0.25	-0.5625
18	11	28	11	37	30	0.425982354559	-0.567467824951	0.247141790172	-0.96533203125	-0.166015625	0.22705078125	1.625	-0.1875	-0.1875
18	11	28	11	37	30	0.426103731532	-0.567466894722	0.247263460312	-0.9638671875	-0.16748046875	0.22265625	1.0	-0.3125	0.125
18	11	28	11	37	30	0.42608897262	-0.567508274949	0.247254895872	-0.96240234375	-0.16552734375	0.22900390625	0.75	-0.6875	0.5
18	11	28	11	37	30	0.42608897262	-0.567508274949	0.247254895872	-0.97021484375	-0.16162109375	0.228515625	0.6875	-0.125	0.0625
18	11	28	11	37	30	0.426095402222	-0.567516838541	0.24719759046	-0.96630859375	-0.1650390625	0.22705078125	-0.1875	0.25	0.375
18	11	28	11	37	30	0.426112560627	-0.567539691837	0.247207544842	-0.9638671875	-0.17138671875	0.2333984375	0.0625	-0.0625	-0.0625
18	11	28	11	37	30	0.426338099463	-0.567514910351	0.247440895522	-0.96142578125	-0.17236328125	0.2265625	2.3125	0.375	0.5
18	11	28	11	37	30	0.42652839765	-0.567463439175	0.247689215464	-0.95947265625	-0.1708984375	0.22705078125	2.125	0.4375	0.6875
18	11	28	11	37	30	0.426651553841	-0.567403840415	0.24793399309	-0.9599609375	-0.1689453125	0.23291015625	1.9375	0.125	0.75
18	11	28	11	37	30	0.426813883688	-0.567315179304	0.248105024623	-0.96435546875	-0.16943359375	0.232421875	1.6875	0.1875	0.5625
18	11	28	11	37	30	0.426831054	-0.567338001849	0.24811500565	-0.9677734375	-0.1650390625	0.22998046875	0.6875	-0.125	0.5625
18	11	28	11	37	30	0.426837517354	-0.567346592851	0.248057724943	-0.96240234375	-0.169921875	0.22607421875	0.375	-0.1875	0.8125
18	11	28	11	37	30	0.426835292636	-0.567343635786	0.248239544566	-0.9677734375	-0.17138671875	0.22705078125	0.875	-0.1875	1.125
18	11	28	11	37	30	0.426880578549	-0.56726166672	0.248413490806	-0.9697265625	-0.169921875	0.232421875	1.4375	0.125	1.3125
18	11	28	11	37	30	0.426884233012	-0.567144451408	0.248659760551	-0.970703125	-0.1669921875	0.2314453125	1.25	0.0	1.5
18	11	28	11	37	30	0.426779731921	-0.567106763341	0.248853113136	-0.97314453125	-0.16943359375	0.23046875	0.625	-0.1875	1.625
18	11	28	11	37	30	0.426714446505	-0.567040081251	0.248972711671	-0.9716796875	-0.169921875	0.232421875	0.5625	-0.3125	1.6875
18	11	28	11	37	30	0.426655637373	-0.566982005087	0.24903505014	-0.97265625	-0.17041015625	0.22998046875	0.3125	-0.625	1.625
18	11	28	11	37	30	0.426661512524	-0.56686773488	0.249099518256	-0.96728515625	-0.171875	0.232421875	0.5625	-0.75	1.375
18	11	28	11	37	30	0.426767225998	-0.5667239264	0.249151003507	-0.9619140625	-0.17138671875	0.2333984375	1.25	-0.8125	1.25
18	11	28	11	37	30	0.427017131658	-0.566487421229	0.24939851343	-0.96533203125	-0.1748046875	0.22802734375	2.5625	-0.8125	1.0625
18	11	28	11	37	30	0.427321024782	-0.566241557907	0.249763981347	-0.9697265625	-0.16748046875	0.2333984375	3.3125	-0.5	0.8125
18	11	28	11	37	30	0.427553564706	-0.565982042187	0.250001342047	-0.9755859375	-0.16162109375	0.2392578125	2.4375	-0.4375	0.5625
18	11	28	11	37	30	0.427728630784	-0.565910368811	0.250057676986	-0.96826171875	-0.16796875	0.22705078125	1.375	-0.75	0.25
18	11	28	11	37	30	0.427935659341	-0.565819934688	0.250132696046	-0.96533203125	-0.1748046875	0.2294921875	1.625	-0.875	0.4375
18	11	28	11	37	30	0.428179452209	-0.565697386041	0.25031559993	-0.9580078125	-0.17041015625	0.22509765625	2.3125	-0.625	0.75
18	11	28	11	37	30	0.428531091898	-0.565495024417	0.250551222367	-0.9619140625	-0.17041015625	0.22802734375	3.0625	-0.5625	0.3125
18	11	28	11	37	30	0.428789521672	-0.565391792064	0.250925796953	-0.9716796875	-0.15380859375	0.2265625	2.6875	0.0625	-0.5625
18	11	28	11	37	30	0.429021512934	-0.565497839996	0.250979721324	-0.97119140625	-0.1650390625	0.228515625	1.375	0.4375	-0.5625
18	11	28	11	37	30	0.429278909646	-0.565576336809	0.251109545611	-0.97021484375	-0.16650390625	0.224609375	1.8125	0.5	-0.875
18	11	28	11	37	30	0.429572715838	-0.565683422902	0.251530145207	-0.96630859375	-0.16943359375	0.21728515625	3.25	0.875	-0.3125
18	11	28	11	37	30	0.429824971149	-0.565694097218	0.251840078239	-0.96728515625	-0.1640625	0.22314453125	2.6875	0.8125	-0.0625
18	11	28	11	37	30	0.429936528052	-0.565680258658	0.252200132583	-0.96240234375	-0.15869140625	0.22314453125	2.1875	0.625	0.5
18	11	28	11	37	30	0.430004880777	-0.565689884321	0.252509608485	-0.96875	-0.16259765625	0.22314453125	1.75	0.4375	0.6875
18	11	28	11	37	30	0.429934960822	-0.565739232234	0.252870605151	-0.9736328125	-0.16015625	0.22216796875	1.4375	0.5625	0.9375
18	11	28	11	37	30	0.429951066391	-0.565699387182	0.253185267375	-0.96630859375	-0.15771484375	0.228515625	1.5	0.875	1.125
18	11	28	11	37	30	0.429941350776	-0.565747640594	0.253606801885	-0.96826171875	-0.1640625	0.22216796875	2.0	1.125	1.25
18	11	28	11	37	30	0.430060319649	-0.565743557029	0.254215332293	-0.97021484375	-0.16162109375	0.22509765625	3.0625	1.4375	1.375
18	11	28	11	37	30	0.430131296428	-0.565634557116	0.254770545096	-0.97216796875	-0.162109375	0.22607421875	3.0	1.0	1.6875
18	11	28	11	37	30	0.430060058499	-0.565560105315	0.255252790894	-0.96875	-0.158203125	0.2236328125	2.25	0.8125	1.8125
18	11	28	11	37	30	0.430002137406	-0.565503165801	0.255620858972	-0.96875	-0.15771484375	0.22607421875	1.25	0.4375	1.875
18	11	28	11	37	30	0.429886840508	-0.565451042236	0.255746963187	-0.96923828125	-0.16015625	0.232421875	0.4375	0.375	1.5
18	11	28	11	37	30	0.429825063226	-0.565389031619	0.255990672418	-0.970703125	-0.1640625	0.2353515625	0.8125	0.5	1.75
18	11	28	11	37	30	0.429870884912	-0.565246949478	0.256286787696	-0.97119140625	-0.16357421875	0.234375	1.8125	0.5625	1.875
18	11	28	11	37	30	0.429868260248	-0.565060393778	0.256712466648	-0.9697265625	-0.154296875	0.2353515625	2.0625	0.5	1.75
18	11	28	11	37	30	0.429773813797	-0.565035675943	0.25697312258	-0.97412109375	-0.15380859375	0.2216796875	1.0625	0.0625	1.375
18	11	28	11	37	30	0.429633139015	-0.565011218619	0.257023035714	-0.97412109375	-0.15771484375	0.22705078125	-0.375	-0.3125	1.5
18	11	28	11	37	31	0.42946289508	-0.565028143797	0.256908659095	-0.974609375	-0.16455078125	0.23291015625	-0.8125	-0.5	1.375
18	11	28	11	37	31	0.429395918842	-0.565020329883	0.256905106241	-0.9765625	-0.16748046875	0.23193359375	-0.0625	-0.3125	1.5625
18	11	28	11	37	31	0.429394868626	-0.564896874078	0.257026551782	-0.96435546875	-0.1650390625	0.2275390625	0.875	-0.5	2.0
18	11	28	11	37	31	0.429515587168	-0.564711981311	0.257391961218	-0.970703125	-0.162109375	0.2236328125	2.5	-0.4375	1.625
18	11	28	11	37	31	0.429577294476	-0.564468715447	0.257819620896	-0.97607421875	-0.1513671875	0.2275390625	2.4375	-0.3125	1.5
18	11	28	11	37	31	0.429518357061	-0.564410437366	0.25788191823	-0.9775390625	-0.15478515625	0.23291015625	0.0	-0.25	1.0625
18	11	28	11	37	31	0.42951031956	-0.564460911651	0.257816056533	-0.97265625	-0.1640625	0.2294921875	-0.6875	-0.8125	0.8125
18	11	28	11	37	31	0.429450100296	-0.564461985153	0.257755510738	-0.97412109375	-0.1650390625	0.22119140625	-0.25	-1.0625	1.1875
18	11	28	11	37	31	0.429455731972	-0.564347313504	0.257819927779	-0.97265625	-0.1650390625	0.22607421875	0.5625	-1.0	1.625
18	11	28	11	37	31	0.429462620677	-0.564173252263	0.258007177033	-0.9716796875	-0.16015625	0.22119140625	1.375	-1.1875	1.6875
18	11	28	11	37	31	0.429456616741	-0.563921216895	0.258125644144	-0.96923828125	-0.15576171875	0.22802734375	1.125	-1.375	1.8125
18	11	28	11	37	31	0.429465871948	-0.563811293232	0.25831432207	-0.9716796875	-0.15771484375	0.216796875	1.125	-1.3125	1.4375
18	11	28	11	37	31	0.429457897507	-0.563678749783	0.258492637285	-0.97216796875	-0.1572265625	0.22216796875	1.125	-1.1875	1.625
18	11	28	11	37	31	0.4295789989	-0.563433324645	0.258675163021	-0.97265625	-0.15771484375	0.2294921875	1.75	-1.0	1.5
18	11	28	11	37	31	0.429755904464	-0.563242080158	0.258976608811	-0.97314453125	-0.1630859375	0.2255859375	2.8125	-0.625	1.625
18	11	28	11	37	31	0.429812805504	-0.563053554498	0.259462402186	-0.9755859375	-0.15576171875	0.21826171875	2.625	-0.5	1.9375
18	11	28	11	37	31	0.429773295803	-0.562898641371	0.25978059181	-0.97216796875	-0.15380859375	0.22216796875	1.875	-0.5625	2.0625
18	11	28	11	37	31	0.429758332432	-0.562756969893	0.260015693248	-0.9677734375	-0.15478515625	0.22216796875	1.3125	-0.625	1.9375
18	11	28	11	37	31	0.42981031966	-0.562623051211	0.260254359987	-0.96875	-0.1591796875	0.2255859375	1.625	-0.5625	1.6875
18	11	28	11	37	31	0.429947560813	-0.562459791722	0.260629767841	-0.96728515625	-0.15771484375	0.22265625	2.75	-0.5625	1.625
18	11	28	11	37	31	0.430192126382	-0.562216185599	0.261057282142	-0.96826171875	-0.15625	0.2236328125	3.5625	-0.3125	1.6875
18	11	28	11	37	31	0.430422813707	-0.561954459132	0.261598437258	-0.97314453125	-0.1552734375	0.22900390625	3.9375	0.0625	1.5
18	11	28	11	37	31	0.430627714487	-0.561738746481	0.262099986677	-0.9765625	-0.15380859375	0.22998046875	3.4375	0.25	1.5625
18	11	28	11	37	31	0.430735990734	-0.56159867518	0.262579882689	-0.9794921875	-0.1494140625	0.2255859375	2.625	0.4375	1.4375
18	11	28	11	37	31	0.430793498247	-0.561533038236	0.262943948774	-0.9765625	-0.14892578125	0.22998046875	2.125	0.5625	1.3125
18	11	28	11	37	31	0.430857861082	-0.561476337171	0.263251162324	-0.97705078125	-0.15185546875	0.228515625	1.9375	0.5625	1.125
18	11	28	11	37	31	0.430871564101	-0.561494194385	0.263442650611	-0.9658203125	-0.15234375	0.22509765625	1.375	0.4375	1.0625
18	11	28	11	37	31	0.430972774407	-0.561344937858	0.263674038442	-0.95947265625	-0.1484375	0.23291015625	1.625	0.25	1.3125
18	11	28	11	37	31	0.431151172055	-0.561216736559	0.2639763334	-0.970703125	-0.1484375	0.23583984375	2.25	0.4375	0.5625
18	11	28	11	37	31	0.431281431157	-0.561227393078	0.264164454295	-0.9794921875	-0.14892578125	0.234375	1.4375	0.8125	0.5
18	11	28	11	37	31	0.431351693781	-0.561239397809	0.264292179718	-0.97998046875	-0.146484375	0.22900390625	1.0	0.375	0.1875
18	11	28	11	37	31	0.431582092343	-0.561160480413	0.264588936544	-0.96875	-0.14892578125	0.22412109375	2.8125	0.125	0.375
18	11	28	11	37	31	0.431900239211	-0.560872145012	0.265085180737	-0.962890625	-0.14306640625	0.22607421875	3.625	-0.1875	0.625
18	11	28	11	37	31	0.432134036792	-0.560553530211	0.265567117808	-0.9580078125	-0.134765625	0.2216796875	3.75	-0.5625	0.8125
18	11	28	11	37	31	0.432389457775	-0.560201925954	0.266001306745	-0.9521484375	-0.1328125	0.2265625	3.0	-0.625	0.8125
18	11	28	11	37	31	0.432498648109	-0.559941094801	0.266420632091	-0.96142578125	-0.1328125	0.22607421875	2.5625	-0.3125	0.875
18	11	28	11	37	31	0.432612723369	-0.559808676459	0.266842949572	-0.97509765625	-0.134765625	0.22119140625	2.75	-0.0625	0.8125
18	11	28	11	37	31	0.432625410243	-0.559825093503	0.267339065585	-0.98046875	-0.13818359375	0.21142578125	2.4375	0.5	0.875
18	11	28	11	37	31	0.432640453178	-0.559905597771	0.267836668813	-0.9814453125	-0.13720703125	0.22021484375	2.1875	1.3125	0.75
18	11	28	11	37	31	0.432576160034	-0.560084499009	0.268322957459	-0.98388671875	-0.13818359375	0.21875	1.5625	2.0	0.625
18	11	28	11	37	31	0.432503406089	-0.560374509075	0.268620870759	-0.984375	-0.14453125	0.22265625	0.9375	2.25	0.6875
18	11	28	11	37	31	0.432561806042	-0.560615237547	0.268924413351	-0.97607421875	-0.15625	0.2216796875	1.5625	2.3125	0.8125
18	11	28	11	37	31	0.432812226144	-0.560684404084	0.269538681519	-0.97900390625	-0.16064453125	0.22509765625	4.25	2.6875	1.5
18	11	28	11	37	31	0.433061011149	-0.56056833353	0.270396092937	-0.9765625	-0.15234375	0.2294921875	5.0625	2.5	2.0
18	11	28	11	37	31	0.433236774084	-0.560436751147	0.271001870518	-0.97314453125	-0.15234375	0.22607421875	3.75	1.5625	1.9375
18	11	28	11	37	31	0.43331460757	-0.56033639914	0.271317570172	-0.97119140625	-0.15185546875	0.22705078125	2.25	0.6875	2.0625
18	11	28	11	37	31	0.433347867499	-0.56017841238	0.271544318662	-0.96630859375	-0.1552734375	0.22998046875	1.5625	0.3125	2.375
18	11	28	11	37	31	0.433603511361	-0.560010165645	0.271734632965	-0.9716796875	-0.1630859375	0.2314453125	2.5625	0.1875	1.75
18	11	28	11	37	31	0.433901868466	-0.559757214194	0.272096571898	-0.97998046875	-0.14990234375	0.23681640625	3.125	0.125	1.25
18	11	28	11	37	31	0.434100631309	-0.559594289629	0.272350536685	-0.984375	-0.1435546875	0.22900390625	2.375	0.25	0.4375
18	11	28	11	37	32	0.434085803951	-0.559636211533	0.272341234143	-0.9833984375	-0.13623046875	0.2275390625	0.375	0.375	-0.5625
18	11	28	11	37	32	0.434220996098	-0.559836235059	0.272105313551	-0.99267578125	-0.1376953125	0.2294921875	-0.875	0.5	-1.6875
18	11	28	11	37	32	0.434216445509	-0.560257626275	0.271553129894	-0.982421875	-0.14111328125	0.22705078125	-2.8125	0.6875	-2.5
18	11	28	11	37	32	0.434282726923	-0.560874768475	0.270884995374	-0.982421875	-0.15185546875	0.2265625	-3.1875	0.9375	-3.1875
18	11	28	11	37	32	0.434455369998	-0.561410577865	0.270268105978	-0.98974609375	-0.14306640625	0.2255859375	-2.5625	1.125	-3.875
18	11	28	11	37	32	0.434577545119	-0.562021072395	0.269535735849	-0.98583984375	-0.1533203125	0.22412109375	-2.875	0.875	-3.9375
18	11	28	11	37	32	0.434939068896	-0.562442256508	0.268678330239	-0.97607421875	-0.16015625	0.22802734375	-2.625	-0.0625	-4.0
18	11	28	11	37	32	0.435326621315	-0.56271398232	0.268142154717	-0.96337890625	-0.15869140625	0.21630859375	-0.875	-0.625	-3.375
18	11	28	11	37	32	0.435813069405	-0.562772619036	0.2675306279	-0.95849609375	-0.1572265625	0.2216796875	-0.375	-1.5	-3.0
18	11	28	11	37	32	0.436223876339	-0.562690347834	0.267093281497	-0.95947265625	-0.15625	0.22705078125	0.0625	-1.8125	-2.375
18	11	28	11	37	32	0.436709081704	-0.56256430553	0.266725183375	-0.95703125	-0.16162109375	0.21923828125	1.1875	-2.25	-1.6875
18	11	28	11	37	32	0.437213778373	-0.562280235428	0.266735196355	-0.96435546875	-0.15869140625	0.20849609375	2.625	-2.5625	-0.875
18	11	28	11	37	32	0.437697722788	-0.561908413887	0.267037726565	-0.96142578125	-0.15234375	0.203125	4.1875	-2.625	-0.0625
18	11	28	11	37	32	0.43812029295	-0.561414106235	0.267401087129	-0.97314453125	-0.15380859375	0.2099609375	4.0625	-2.75	0.6875
18	11	28	11	37	32	0.438433800192	-0.560936464397	0.267711352867	-0.9716796875	-0.15234375	0.21875	3.5625	-2.3125	1.3125
18	11	28	11	37	32	0.438604176765	-0.560553960396	0.268130830577	-0.9736328125	-0.15087890625	0.21533203125	3.1875	-1.875	1.625
18	11	28	11	37	32	0.438791776639	-0.56019347976	0.268560831438	-0.97705078125	-0.1513671875	0.220703125	3.25	-1.25	1.6875
18	11	28	11	37	32	0.438848827289	-0.56000528378	0.269168752204	-0.970703125	-0.1474609375	0.2138671875	3.1875	-0.1875	1.8125
18	11	28	11	37	32	0.438911808266	-0.55994672911	0.269475126338	-0.97021484375	-0.15478515625	0.22216796875	2.1875	0.375	1.375
18	11	28	11	37	32	0.43878912436	-0.5600680213	0.269718895611	-0.974609375	-0.150390625	0.216796875	0.5	0.75	1.0625
18	11	28	11	37	32	0.438620851554	-0.560270080214	0.269666980541	-0.96923828125	-0.15185546875	0.22119140625	-1.1875	0.5	0.6875
18	11	28	11	37	32	0.438493475429	-0.560568496428	0.269419571345	-0.9736328125	-0.16064453125	0.22216796875	-1.5	0.5625	0.1875
18	11	28	11	37	32	0.438549985559	-0.560562709446	0.269355753134	-0.97119140625	-0.16064453125	0.22998046875	-0.8125	0.8125	-0.1875
18	11	28	11	37	32	0.438552344811	-0.560626762295	0.269357202178	-0.9775390625	-0.1611328125	0.22705078125	0.4375	0.9375	-0.5
18	11	28	11	37	32	0.438789533846	-0.560678906372	0.269475002355	-0.9814453125	-0.15576171875	0.2255859375	1.375	0.75	-0.5625
18	11	28	11	37	32	0.438796750303	-0.560688127456	0.269418396973	-0.98388671875	-0.15234375	0.2275390625	0.9375	0.375	-0.5
18	11	28	11	37	32	0.438781733377	-0.560729974202	0.269409176677	-0.98046875	-0.15869140625	0.22802734375	0.5	-0.1875	-0.5625
18	11	28	11	37	32	0.438799099468	-0.560752166756	0.269419839345	-0.97802734375	-0.15478515625	0.22119140625	0.5	-0.9375	-0.5625
18	11	28	11	37	32	0.438973445531	-0.560679931959	0.269170313514	-0.9697265625	-0.15673828125	0.22021484375	-0.125	-1.625	-0.4375
18	11	28	11	37	32	0.43921923868	-0.560559962207	0.268866140409	-0.962890625	-0.15771484375	0.22509765625	0.125	-2.0625	-0.5625
18	11	28	11	37	32	0.439465579695	-0.560379650997	0.268684372475	-0.98095703125	-0.146484375	0.22802734375	0.4375	-1.875	-1.25
18	11	28	11	37	32	0.43958268973	-0.5603733233	0.268376157559	-0.978515625	-0.14794921875	0.2236328125	-0.75	-1.8125	-1.125
18	11	28	11	37	32	0.439772928424	-0.56044344605	0.26789221136	-0.98193359375	-0.16259765625	0.21826171875	-0.8125	-2.1875	-1.6875
18	11	28	11	37	32	0.440061069176	-0.560421738859	0.267820800492	-0.97314453125	-0.15966796875	0.2119140625	1.1875	-1.75	-0.875
18	11	28	11	37	32	0.440307802539	-0.560364005421	0.267822378367	-0.97705078125	-0.1611328125	0.20751953125	1.5	-1.8125	-0.375
18	11	28	11	37	32	0.440495744887	-0.560248086784	0.267886355038	-0.97607421875	-0.15576171875	0.2099609375	1.5	-2.0	0.1875
18	11	28	11	37	32	0.440632109538	-0.560083146851	0.267956082681	-0.9794921875	-0.15673828125	0.21337890625	1.375	-1.875	0.375
18	11	28	11	37	32	0.440753396184	-0.55996006877	0.268016640721	-0.97900390625	-0.15771484375	0.21142578125	1.25	-1.9375	0.75
18	11	28	11	37	32	0.440827871818	-0.559916099168	0.268085850599	-0.97607421875	-0.15966796875	0.208984375	1.25	-1.6875	0.625
18	11	28	11	37	32	0.440991089476	-0.559768758697	0.268195826596	-0.96923828125	-0.162109375	0.21484375	1.5625	-1.5	0.75
18	11	28	11	37	32	0.441238330493	-0.559650608976	0.268319781553	-0.9736328125	-0.1669921875	0.2265625	2.1875	-0.75	0.8125
18	11	28	11	37	32	0.441429152051	-0.559538307087	0.268507582947	-0.9716796875	-0.16162109375	0.2236328125	1.9375	-0.375	0.5625
18	11	28	11	37	32	0.441537659081	-0.559521111528	0.268560367702	-0.966796875	-0.158203125	0.2236328125	1.1875	-0.25	0.375
18	11	28	11	37	32	0.441555121824	-0.559543240498	0.268570989221	-0.9658203125	-0.15869140625	0.220703125	0.8125	-0.1875	0.0
18	11	28	11	37	32	0.441589176159	-0.559570085283	0.268554578452	-0.962890625	-0.158203125	0.2197265625	0.875	-0.125	-0.6875
18	11	28	11	37	32	0.44161387696	-0.559601385483	0.268508561817	-0.966796875	-0.15966796875	0.22216796875	0.5625	0.0625	-0.9375
18	11	28	11	37	32	0.441790099289	-0.559775766867	0.26832125953	-0.9716796875	-0.16455078125	0.2236328125	0.125	-0.0625	-1.125
18	11	28	11	37	32	0.44195902309	-0.559940902891	0.268190574155	-0.9755859375	-0.16259765625	0.2255859375	0.1875	0.0625	-1.25
18	11	28	11	37	32	0.442276140167	-0.56007809304	0.268075739389	-0.9755859375	-0.1669921875	0.2265625	0.6875	0.375	-1.25
18	11	28	11	37	32	0.442568464387	-0.560183887208	0.268006913132	-0.97265625	-0.16357421875	0.22998046875	1.125	0.625	-1.375
18	11	28	11	37	33	0.442806720674	-0.560359545487	0.268003350859	-0.9755859375	-0.16015625	0.22412109375	1.0625	0.6875	-1.4375
18	11	28	11	37	33	0.443000758013	-0.560495447896	0.267948929137	-0.9716796875	-0.15869140625	0.2275390625	0.375	0.5625	-1.3125
18	11	28	11	37	33	0.44318384268	-0.560678526217	0.267704769866	-0.9638671875	-0.16259765625	0.22705078125	-0.1875	0.1875	-1.3125
18	11	28	11	37	33	0.443364550512	-0.560797561964	0.267459176809	-0.96240234375	-0.1640625	0.2275390625	-0.3125	0.0625	-1.25
18	11	28	11	37	33	0.443537967213	-0.56090737838	0.26727022959	-0.95947265625	-0.16162109375	0.22998046875	0.0	0.1875	-1.3125
18	11	28	11	37	33	0.44373907674	-0.561052213672	0.267159001223	-0.974609375	-0.1533203125	0.2265625	0.0625	0.4375	-1.875
18	11	28	11	37	33	0.443855418628	-0.561228076772	0.266911406169	-0.97314453125	-0.1650390625	0.236328125	-0.75	0.375	-1.4375
18	11	28	11	37	33	0.444043145982	-0.561355988123	0.266608998165	-0.970703125	-0.166015625	0.23193359375	-0.5	0.0625	-1.25
18	11	28	11	37	33	0.444043145982	-0.561355988123	0.266608998165	-0.9638671875	-0.16357421875	0.22412109375	0.625	0.0	-0.6875
18	11	28	11	37	33	0.444043145982	-0.561355988123	0.266608998165	-0.966796875	-0.15478515625	0.22021484375	-0.5	-0.6875	-0.625
18	11	28	11	37	33	0.443921539472	-0.561356578925	0.266365131068	-0.96630859375	-0.15576171875	0.2275390625	-1.375	-1.375	0.0
18	11	28	11	37	33	0.443856106506	-0.561351019188	0.266057311367	-0.9697265625	-0.162109375	0.2236328125	-1.4375	-1.75	0.0625
18	11	28	11	37	33	0.443922150564	-0.561235277662	0.265877201685	-0.97314453125	-0.162109375	0.224609375	-0.5625	-1.875	0.1875
18	11	28	11	37	33	0.443986661979	-0.560995519693	0.265818244833	-0.966796875	-0.1611328125	0.224609375	0.5	-2.0	0.75
18	11	28	11	37	33	0.444047030287	-0.560750524707	0.265939919032	-0.96826171875	-0.1650390625	0.21826171875	1.4375	-2.0	1.25
18	11	28	11	37	33	0.44410812228	-0.560445406648	0.266184101328	-0.96826171875	-0.1572265625	0.21875	1.75	-1.8125	1.625
18	11	28	11	37	33	0.44405287017	-0.56020855566	0.266309645712	-0.96875	-0.16015625	0.22021484375	0.875	-1.9375	1.75
18	11	28	11	37	33	0.443861979226	-0.560076666856	0.266488091488	-0.9765625	-0.15380859375	0.2177734375	0.0	-1.625	1.6875
18	11	28	11	37	33	0.443621295673	-0.560020003825	0.26655121054	-0.9765625	-0.15380859375	0.22607421875	-0.5	-0.8125	1.375
18	11	28	11	37	33	0.443359085963	-0.560180298867	0.266418283346	-0.97216796875	-0.16015625	0.22216796875	-1.6875	-0.375	1.125
18	11	28	11	37	33	0.443129499872	-0.560320772566	0.266304959772	-0.9697265625	-0.17041015625	0.232421875	-1.3125	0.125	1.4375
18	11	28	11	37	33	0.442999483113	-0.560310726781	0.266422257342	-0.9658203125	-0.16455078125	0.23193359375	-0.125	0.5625	1.8125
18	11	28	11	37	33	0.442813185436	-0.560306690876	0.26660344507	-0.9619140625	-0.158203125	0.22314453125	0.125	0.1875	1.75
18	11	28	11	37	33	0.442458316544	-0.560382094661	0.266549243806	-0.96337890625	-0.14892578125	0.22607421875	-1.8125	-0.4375	1.3125
18	11	28	11	37	33	0.442081265636	-0.560551476405	0.266115465715	-0.96240234375	-0.16064453125	0.2265625	-3.4375	-1.0	0.9375
18	11	28	11	37	33	0.441893508972	-0.560728683278	0.265624385504	-0.96630859375	-0.17578125	0.22509765625	-2.8125	-1.5	1.0625
18	11	28	11	37	33	0.441828569824	-0.560662694074	0.265438934958	-0.9697265625	-0.18017578125	0.224609375	-0.5	-1.625	1.9375
18	11	28	11	37	33	0.441783474579	-0.5604387764	0.265631622184	-0.966796875	-0.16796875	0.2177734375	1.4375	-1.5	2.625
18	11	28	11	37	33	0.44179059636	-0.56020366032	0.265941092614	-0.9697265625	-0.16357421875	0.212890625	2.0	-1.8125	2.375
18	11	28	11	37	33	0.441592282039	-0.560062305458	0.266176080439	-0.97802734375	-0.150390625	0.21728515625	0.4375	-1.4375	1.8125
18	11	28	11	37	33	0.441285477561	-0.560182311626	0.265991993252	-0.97509765625	-0.16357421875	0.220703125	-1.9375	-1.125	1.5625
18	11	28	11	37	33	0.441054760278	-0.560382473583	0.265755940527	-0.96435546875	-0.1689453125	0.2177734375	-1.875	-0.8125	1.0
18	11	28	11	37	33	0.441034112873	-0.560539343015	0.265682465173	-0.9599609375	-0.17626953125	0.22216796875	-0.125	0.1875	1.375
18	11	28	11	37	33	0.440985676188	-0.560677428576	0.265873163387	-0.96484375	-0.1708984375	0.2138671875	0.875	0.5625	1.4375
18	11	28	11	37	33	0.440871348123	-0.56074831444	0.266183019405	-0.96630859375	-0.16064453125	0.21875	1.0625	0.8125	1.5
18	11	28	11	37	33	0.440681663872	-0.560923059693	0.266301121811	-0.96533203125	-0.15771484375	0.2197265625	-0.25	0.625	1.1875
18	11	28	11	37	33	0.440431721197	-0.561159817722	0.266236580912	-0.96923828125	-0.15771484375	0.22021484375	-1.4375	0.5	0.8125
18	11	28	11	37	33	0.440262657006	-0.561421865956	0.266061960611	-0.9658203125	-0.16650390625	0.220703125	-1.5	0.4375	0.875
18	11	28	11	37	33	0.440247570162	-0.561463662543	0.266052843247	-0.96484375	-0.171875	0.21923828125	0.6875	0.75	0.8125
18	11	28	11	37	33	0.44043216338	-0.561465558611	0.266480990205	-0.97412109375	-0.16650390625	0.220703125	3.0625	1.125	1.0
18	11	28	11	37	33	0.440550758335	-0.56140009354	0.267028202787	-0.97119140625	-0.158203125	0.22314453125	2.9375	1.375	1.25
18	11	28	11	37	33	0.440577295202	-0.561433909846	0.267410519573	-0.97802734375	-0.1591796875	0.2236328125	1.875	1.1875	1.0625
18	11	28	11	37	33	0.440577740041	-0.561556554222	0.267593905838	-0.9677734375	-0.16845703125	0.2197265625	1.125	0.9375	1.0625
18	11	28	11	37	33	0.440620135182	-0.561654866871	0.267826728519	-0.97314453125	-0.1640625	0.220703125	1.3125	1.125	1.0
18	11	28	11	37	33	0.440695669279	-0.561673344696	0.26820176881	-0.97509765625	-0.1630859375	0.22119140625	2.1875	0.9375	1.0625
18	11	28	11	37	33	0.440874416309	-0.561606742969	0.268504299785	-0.97119140625	-0.1669921875	0.22265625	2.4375	0.75	1.0
18	11	28	11	37	33	0.441110128692	-0.561473927472	0.268865382163	-0.97021484375	-0.1650390625	0.22607421875	2.9375	0.625	1.125
18	11	28	11	37	33	0.441297189358	-0.561295844168	0.269356085289	-0.96923828125	-0.15673828125	0.22216796875	3.3125	0.5	1.3125
18	11	28	11	37	33	0.441499224167	-0.561075745685	0.269855947745	-0.97216796875	-0.16015625	0.22314453125	3.4375	0.375	1.3125
18	11	28	11	37	33	0.441781955464	-0.560803068085	0.270330516821	-0.97412109375	-0.16064453125	0.2236328125	3.75	-0.0625	1.3125
18	11	28	11	37	34	0.442146135051	-0.560495300687	0.270817559528	-0.97021484375	-0.1630859375	0.21923828125	4.4375	-0.25	1.3125
18	11	28	11	37	34	0.44245916547	-0.560077983494	0.27143273677	-0.9658203125	-0.15771484375	0.21923828125	4.75	-0.5625	1.6875
18	11	28	11	37	34	0.442830655237	-0.559718416061	0.271985306649	-0.9736328125	-0.15625	0.2216796875	4.75	-0.5	1.3125
18	11	28	11	37	34	0.443179381624	-0.559391135186	0.272584921957	-0.9833984375	-0.150390625	0.22314453125	4.5	-0.0625	1.0625
18	11	28	11	37	34	0.443362895518	-0.55914750631	0.273073457399	-0.98388671875	-0.15478515625	0.22705078125	3.375	0.1875	1.0
18	11	28	11	37	34	0.443676581024	-0.558914080677	0.27344491443	-0.97509765625	-0.1552734375	0.22705078125	3.25	0.3125	0.8125
18	11	28	11	37	34	0.443856748913	-0.558849338979	0.273870356487	-0.97314453125	-0.15380859375	0.21630859375	3.0	0.375	0.875
18	11	28	11	37	34	0.443985184043	-0.558796310134	0.274179467517	-0.970703125	-0.1533203125	0.2119140625	2.1875	-0.0625	0.75
18	11	28	11	37	34	0.444052205107	-0.558681764034	0.274427314661	-0.97412109375	-0.150390625	0.22705078125	1.6875	0.125	0.9375
18	11	28	11	37	34	0.444119191655	-0.558567169164	0.274675146021	-0.97119140625	-0.15283203125	0.2236328125	1.5	0.0625	0.9375
18	11	28	11	37	34	0.444227448964	-0.558488754881	0.274849711828	-0.974609375	-0.1494140625	0.2236328125	1.3125	-0.0625	0.625
18	11	28	11	37	34	0.444286688445	-0.558425458522	0.275031710143	-0.97705078125	-0.15771484375	0.21630859375	1.625	-0.1875	1.0
18	11	28	11	37	34	0.444471560624	-0.558305598054	0.275399022458	-0.97607421875	-0.15380859375	0.2177734375	2.75	-0.125	1.125
18	11	28	11	37	34	0.444767261212	-0.557988514066	0.275881435526	-0.97607421875	-0.15576171875	0.2255859375	3.8125	-0.1875	1.375
18	11	28	11	37	34	0.444880929175	-0.557672801464	0.276364500934	-0.9794921875	-0.14599609375	0.22412109375	3.0	-0.3125	1.5625
18	11	28	11	37	34	0.444883991029	-0.557432499666	0.276549507937	-0.98095703125	-0.14599609375	0.22802734375	1.1875	-0.8125	1.5625
18	11	28	11	37	34	0.444773851748	-0.557325379485	0.276617962964	-0.978515625	-0.15087890625	0.2255859375	0.25	-1.0625	1.625
18	11	28	11	37	34	0.44484556124	-0.557216675159	0.276685637912	-0.97412109375	-0.15966796875	0.22314453125	0.8125	-0.8125	1.375
18	11	28	11	37	34	0.445015263547	-0.557016773437	0.276860408099	-0.97705078125	-0.15673828125	0.22509765625	2.125	-0.8125	1.25
18	11	28	11	37	34	0.445258954852	-0.556772061159	0.277104270737	-0.974609375	-0.15625	0.2158203125	2.75	-1.1875	1.125
18	11	28	11	37	34	0.445566618185	-0.556469980547	0.27734996069	-0.97412109375	-0.15576171875	0.2236328125	2.8125	-1.375	1.125
18	11	28	11	37	34	0.445822875681	-0.556118869158	0.27760164822	-0.9755859375	-0.15087890625	0.2236328125	3.0625	-1.5	1.0
18	11	28	11	37	34	0.446056336165	-0.55580035538	0.27790017769	-0.97412109375	-0.14501953125	0.21826171875	2.6875	-1.5625	0.8125
18	11	28	11	37	34	0.446248389773	-0.555567342869	0.2780278232	-0.97509765625	-0.1513671875	0.2197265625	1.875	-1.6875	0.6875
18	11	28	11	37	34	0.446489296984	-0.5553801932	0.278025802838	-0.9736328125	-0.15283203125	0.21875	1.75	-1.8125	0.5
18	11	28	11	37	34	0.446847824994	-0.555187517572	0.278143086805	-0.97216796875	-0.1572265625	0.2138671875	2.5625	-1.75	0.4375
18	11	28	11	37	34	0.447098565107	-0.554951556853	0.278330301281	-0.962890625	-0.15087890625	0.21533203125	2.5625	-1.6875	0.6875
18	11	28	11	37	34	0.447400497393	-0.554764409387	0.278511387395	-0.97314453125	-0.15087890625	0.21875	2.4375	-1.3125	0.0
18	11	28	11	37	34	0.447400497393	-0.554764409387	0.278511387395	-0.99169921875	-0.142578125	0.22314453125	0.5625	-0.5	-0.75
18	11	28	11	37	34	0.447264786907	-0.555296811037	0.278136685853	-0.998046875	-0.1552734375	0.2119140625	-2.5	-0.0625	-1.25
18	11	28	11	37	34	0.44715919597	-0.555805574461	0.277658638065	-0.98828125	-0.15234375	0.22021484375	-2.9375	0.5625	-1.75
18	11	28	11	37	34	0.447035355178	-0.556474786067	0.277230281706	-0.97509765625	-0.15625	0.21533203125	-2.8125	1.1875	-2.0
18	11	28	11	37	34	0.446913951235	-0.557085991932	0.276620326004	-0.96630859375	-0.15625	0.2177734375	-3.4375	1.1875	-2.0625
18	11	28	11	37	34	0.446905100398	-0.557624282605	0.276004488391	-0.955078125	-0.1630859375	0.224609375	-3.25	1.125	-1.8125
18	11	28	11	37	34	0.446921365632	-0.558071844574	0.27558726657	-0.95751953125	-0.1650390625	0.21826171875	-2.0	0.625	-1.3125
18	11	28	11	37	34	0.446913658197	-0.558123257382	0.275521476796	-0.9609375	-0.16357421875	0.22021484375	-0.125	0.375	-0.875
18	11	28	11	37	34	0.447097538211	-0.55818525419	0.27552195051	-0.9658203125	-0.1669921875	0.2109375	1.0625	-0.25	0.125
18	11	28	11	37	34	0.447451171629	-0.557986442646	0.275819375882	-0.96875	-0.17041015625	0.21484375	3.1875	-0.75	1.0
18	11	28	11	37	34	0.447648546644	-0.557699041544	0.276316467229	-0.974609375	-0.162109375	0.21533203125	3.875	-0.9375	2.125
18	11	28	11	37	34	0.44763662691	-0.55744004821	0.276614288677	-0.97998046875	-0.15673828125	0.21533203125	1.875	-1.1875	2.4375
18	11	28	11	37	34	0.447462777064	-0.557390544285	0.276681048756	-0.9873046875	-0.1552734375	0.22216796875	-0.1875	-1.1875	1.625
18	11	28	11	37	34	0.447347482716	-0.557460029969	0.276563166078	-0.99267578125	-0.15478515625	0.22216796875	-1.1875	-0.5625	0.6875
18	11	28	11	37	34	0.447273185548	-0.557626613424	0.276249786817	-0.9833984375	-0.16162109375	0.23095703125	-1.375	0.0	0.125
18	11	28	11	37	34	0.447269808039	-0.557927581235	0.275942522127	-0.978515625	-0.15771484375	0.234375	-1.5625	0.9375	-1.1875
18	11	28	11	37	34	0.447276154054	-0.558301716857	0.275580217734	-0.97509765625	-0.15771484375	0.23046875	-2.0625	1.3125	-1.6875
18	11	28	11	37	34	0.447291915698	-0.558809700903	0.275040580259	-0.98193359375	-0.16064453125	0.23681640625	-2.8125	1.5625	-2.25
18	11	28	11	37	34	0.447341242892	-0.559283368621	0.274606119767	-0.9755859375	-0.16064453125	0.23046875	-2.375	1.5	-2.4375
18	11	28	11	37	34	0.447508522804	-0.559629793452	0.274108125466	-0.9755859375	-0.16015625	0.23388671875	-1.625	1.0	-2.6875
18	11	28	11	37	34	0.447770296214	-0.559834945049	0.27363062131	-0.96728515625	-0.15966796875	0.22998046875	-1.1875	0.125	-2.625
18	11	28	11	37	35	0.4481276446	-0.559884892934	0.273258984592	-0.96484375	-0.15966796875	0.228515625	-0.1875	-1.0	-2.4375
18	11	28	11	37	35	0.448739320405	-0.559581350582	0.273015639305	-0.96484375	-0.1611328125	0.23095703125	2.1875	-2.0	-2.1875
18	11	28	11	37	35	0.449472099159	-0.55903244924	0.27307688371	-0.9638671875	-0.15771484375	0.22509765625	4.125	-2.9375	-1.5625
18	11	28	11	37	35	0.450134006528	-0.558288238333	0.273254230132	-0.95849609375	-0.1484375	0.22412109375	4.375	-3.75	-0.75
18	11	28	11	37	35	0.450688030381	-0.557561641052	0.273379156023	-0.96728515625	-0.1435546875	0.2255859375	3.75	-4.25	-0.4375
18	11	28	11	37	35	0.450993934977	-0.556891143961	0.273379595989	-0.96826171875	-0.138671875	0.22314453125	2.0	-4.6875	-0.25
18	11	28	11	37	35	0.451242866052	-0.556347724072	0.273199387048	-0.962890625	-0.1533203125	0.21435546875	1.0625	-5.0625	0.25
18	11	28	11	37	35	0.451624678816	-0.555695509655	0.273269859043	-0.95849609375	-0.15283203125	0.21337890625	2.875	-5.0625	0.8125
18	11	28	11	37	35	0.451861180952	-0.555014685722	0.273570419158	-0.95361328125	-0.1494140625	0.2119140625	3.3125	-4.375	1.75
18	11	28	11	37	35	0.451915803864	-0.55445747735	0.273627572761	-0.9560546875	-0.146484375	0.2158203125	1.3125	-4.6875	1.8125
18	11	28	11	37	35	0.451791273066	-0.55402720692	0.273565048079	-0.95263671875	-0.15380859375	0.21923828125	-0.0625	-4.125	2.5625
18	11	28	11	37	35	0.4515925904	-0.553763964414	0.273616648569	-0.9677734375	-0.15234375	0.22802734375	-0.125	-2.375	2.375
18	11	28	11	37	35	0.45141937477	-0.553592986636	0.273927819628	-0.986328125	-0.15087890625	0.22802734375	0.9375	-1.0625	2.1875
18	11	28	11	37	35	0.45129966907	-0.55353485242	0.2742344351	-0.9833984375	-0.16064453125	0.22021484375	1.1875	-0.9375	2.375
18	11	28	11	37	35	0.451121355218	-0.553357625004	0.274725641975	-0.97216796875	-0.16259765625	0.22265625	2.0625	-0.4375	3.375
18	11	28	11	37	35	0.450986516582	-0.553158857732	0.275389249265	-0.97119140625	-0.158203125	0.2197265625	2.875	0.0	3.6875
18	11	28	11	37	35	0.450700487226	-0.552999243536	0.275828209883	-0.97705078125	-0.15625	0.22802734375	1.1875	-0.25	3.6875
18	11	28	11	37	35	0.450391506143	-0.552811474608	0.27600899726	-0.9677734375	-0.1650390625	0.23876953125	-0.0625	-0.5625	4.0625
18	11	28	11	37	35	0.450200000929	-0.552618059709	0.276309029855	-0.96337890625	-0.16357421875	0.2392578125	1.3125	-0.1875	4.0625
18	11	28	11	37	35	0.450271346302	-0.552264489812	0.276864691179	-0.9609375	-0.158203125	0.23974609375	3.3125	0.1875	3.25
18	11	28	11	37	35	0.450498632993	-0.55193864492	0.27734260782	-0.966796875	-0.15966796875	0.2392578125	3.625	0.1875	2.375
18	11	28	11	37	35	0.450699905413	-0.551594670263	0.277781049504	-0.9736328125	-0.158203125	0.24462890625	3.25	-0.125	1.9375
18	11	28	11	37	35	0.450942279945	-0.551348350669	0.278024104649	-0.97265625	-0.15966796875	0.24072265625	2.625	-0.5	1.3125
18	11	28	11	37	35	0.451126014014	-0.551166000074	0.278085525619	-0.98193359375	-0.15625	0.23876953125	1.625	-1.125	0.8125
18	11	28	11	37	35	0.451172114507	-0.550964647951	0.277893213927	-0.9814453125	-0.15234375	0.24755859375	-0.1875	-1.6875	0.875
18	11	28	11	37	35	0.45100112523	-0.55097945019	0.277534458847	-0.97265625	-0.1494140625	0.24169921875	-2.1875	-1.5	0.625
18	11	28	11	37	35	0.45087874334	-0.551040110312	0.277045974823	-0.978515625	-0.15576171875	0.24169921875	-2.8125	-1.75	0.25
18	11	28	11	37	35	0.450817594026	-0.551162046311	0.27661864827	-0.974609375	-0.15576171875	0.232421875	-2.0	-1.625	0.0625
18	11	28	11	37	35	0.450756312918	-0.551222784288	0.276313314635	-0.96240234375	-0.1572265625	0.236328125	-1.0	-1.3125	0.5
18	11	28	11	37	35	0.450863585255	-0.551082619639	0.276182174534	-0.96728515625	-0.1494140625	0.24072265625	-0.1875	-1.5	0.1875
18	11	28	11	37	35	0.450635936749	-0.551041749555	0.276009170524	-0.97265625	-0.13427734375	0.234375	-1.5625	-1.5	0.4375
18	11	28	11	37	35	0.45020399514	-0.551219126913	0.275518008957	-0.9716796875	-0.1474609375	0.232421875	-4.1875	-2.125	0.9375
18	11	28	11	37	35	0.449837937183	-0.551219323026	0.274968779784	-0.96337890625	-0.150390625	0.23779296875	-3.625	-2.6875	1.625
18	11	28	11	37	35	0.449540827707	-0.551107146417	0.274790605069	-0.97216796875	-0.15234375	0.22314453125	-1.625	-2.875	2.1875
18	11	28	11	37	35	0.449159402319	-0.550905390043	0.274720270395	-0.96826171875	-0.14892578125	0.224609375	-1.5	-3.25	3.375
18	11	28	11	37	35	0.44880798703	-0.550618366789	0.274668290716	-0.96728515625	-0.15087890625	0.22509765625	-1.125	-3.5625	3.5625
18	11	28	11	37	35	0.448435894429	-0.550244941919	0.274603659866	-0.96142578125	-0.14697265625	0.236328125	-1.0	-3.3125	4.1875
18	11	28	11	37	35	0.447892531186	-0.550069159314	0.274668355183	-0.96630859375	-0.14013671875	0.22802734375	-1.6875	-2.5625	3.5625
18	11	28	11	37	35	0.44739015114	-0.550051847486	0.27441556883	-0.96240234375	-0.14306640625	0.2314453125	-2.8125	-2.0	3.0
18	11	28	11	37	35	0.446903211588	-0.550236609187	0.274111215958	-0.96142578125	-0.14794921875	0.2373046875	-3.4375	-0.8125	2.125
18	11	28	11	37	35	0.446475864562	-0.550602703242	0.273928049235	-0.966796875	-0.14794921875	0.2421875	-2.9375	0.8125	1.25
18	11	28	11	37	35	0.446068650423	-0.551115742292	0.273635161446	-0.97705078125	-0.142578125	0.2421875	-3.5625	1.75	0.0
18	11	28	11	37	35	0.44556427188	-0.551828298913	0.273075966081	-0.97998046875	-0.14990234375	0.2470703125	-5.125	2.0	-0.3125
18	11	28	11	37	35	0.445084507602	-0.552571317515	0.272470823085	-0.97607421875	-0.15771484375	0.2392578125	-5.4375	1.8125	-0.4375
18	11	28	11	37	35	0.444717168338	-0.553241341452	0.271859767743	-0.97265625	-0.15966796875	0.236328125	-4.6875	1.1875	-0.375
18	11	28	11	37	35	0.444412949995	-0.553669807637	0.271188948885	-0.97021484375	-0.16259765625	0.24072265625	-4.375	0.0	0.0625
18	11	28	11	37	35	0.444226491563	-0.55390978441	0.270576537112	-0.974609375	-0.16552734375	0.2451171875	-3.375	-1.0625	0.3125
18	11	28	11	37	35	0.444165616009	-0.55390998561	0.270088340091	-0.9716796875	-0.16015625	0.2470703125	-2.3125	-1.75	0.3125
18	11	28	11	37	35	0.444235251561	-0.553859669231	0.269605263279	-0.9697265625	-0.1640625	0.24658203125	-1.25	-1.8125	0.1875
18	11	28	11	37	35	0.444465109431	-0.55378082091	0.269291412086	-0.96728515625	-0.162109375	0.2451171875	-0.125	-1.6875	-0.375
18	11	28	11	37	35	0.44464124331	-0.553772134599	0.269043047428	-0.96875	-0.15576171875	0.2421875	-0.1875	-1.125	-0.75
18	11	28	11	37	36	0.444778293379	-0.553851822989	0.268746922705	-0.9677734375	-0.1513671875	0.24267578125	-0.75	-0.6875	-1.3125
18	11	28	11	37	36	0.444944073758	-0.554074389791	0.268370245859	-0.9755859375	-0.15234375	0.2373046875	-1.0625	-0.5	-2.0625
18	11	28	11	37	36	0.445134679424	-0.554327870359	0.267947517163	-0.97021484375	-0.15869140625	0.23291015625	-0.875	-0.5625	-2.125
18	11	28	11	37	36	0.445515604171	-0.554468248841	0.267712212617	-0.96337890625	-0.16650390625	0.234375	0.625	-0.375	-1.8125
18	11	28	11	37	36	0.445995272862	-0.554457514531	0.267707029803	-0.970703125	-0.1611328125	0.22998046875	2.3125	-0.625	-1.75
18	11	28	11	37	36	0.446352555271	-0.554385376661	0.267884775753	-0.9619140625	-0.15283203125	0.2265625	2.5625	-0.75	-1.125
18	11	28	11	37	36	0.44666249586	-0.554269216303	0.267887632458	-0.95703125	-0.15234375	0.23046875	1.875	-1.3125	-0.75
18	11	28	11	37	36	0.446982787639	-0.554165878598	0.267957727398	-0.95654296875	-0.15625	0.22265625	2.0	-1.6875	-0.8125
18	11	28	11	37	36	0.447395496267	-0.55390370104	0.268010044217	-0.95654296875	-0.1669921875	0.22802734375	2.6875	-2.0625	0.1875
18	11	28	11	37	36	0.447952467976	-0.553546931744	0.268380842307	-0.9619140625	-0.173828125	0.22607421875	5.0	-1.8125	0.8125
18	11	28	11	37	36	0.448626095785	-0.55293929275	0.269236695035	-0.9716796875	-0.1640625	0.2333984375	7.75	-1.0625	1.0625
18	11	28	11	37	36	0.449038602886	-0.552371803197	0.270204416879	-0.97998046875	-0.1435546875	0.23388671875	6.6875	-0.5	1.5
18	11	28	11	37	36	0.44916511829	-0.552194160235	0.270634343593	-0.98193359375	-0.1435546875	0.23193359375	2.4375	-0.625	0.5625
18	11	28	11	37	36	0.449101256291	-0.552251721517	0.270632640717	-0.97412109375	-0.1474609375	0.2333984375	-0.4375	0.0625	0.0
18	11	28	11	37	36	0.449054970664	-0.552636088676	0.270458417155	-0.97509765625	-0.15234375	0.23876953125	-1.5	1.125	-1.0625
18	11	28	11	37	36	0.448978264801	-0.553105089128	0.270265872287	-0.97119140625	-0.15380859375	0.2392578125	-1.6875	1.9375	-1.75
18	11	28	11	37	36	0.449048776494	-0.553666093731	0.269844317097	-0.9658203125	-0.15673828125	0.2470703125	-2.0625	2.25	-2.5625
18	11	28	11	37	36	0.449114165394	-0.554281834186	0.269480706743	-0.96484375	-0.1572265625	0.23779296875	-2.0625	2.375	-3.0
18	11	28	11	37	36	0.449225453235	-0.554817849172	0.269108019472	-0.9560546875	-0.16015625	0.23974609375	-1.75	2.0625	-3.0625
18	11	28	11	37	36	0.44960507035	-0.555200613617	0.268810851184	-0.962890625	-0.16552734375	0.2412109375	0.125	1.5625	-3.0
18	11	28	11	37	36	0.450188965618	-0.555228988643	0.269039175765	-0.9658203125	-0.1669921875	0.23876953125	3.625	1.1875	-2.1875
18	11	28	11	37	36	0.450934651262	-0.554940152852	0.269657456588	-0.96826171875	-0.15966796875	0.236328125	6.125	0.875	-1.375
18	11	28	11	37	36	0.451734113283	-0.554459219709	0.270454513709	-0.97021484375	-0.158203125	0.2373046875	7.6875	0.1875	-0.4375
18	11	28	11	37	36	0.452405772866	-0.553788124287	0.271431256333	-0.96484375	-0.1513671875	0.2373046875	7.875	-0.3125	0.6875
18	11	28	11	37	36	0.452961723766	-0.553124799996	0.272411827674	-0.970703125	-0.15478515625	0.2373046875	7.6875	-0.5625	1.5
18	11	28	11	37	36	0.453371495014	-0.552371032563	0.273316849041	-0.9638671875	-0.14990234375	0.2353515625	6.75	-1.25	2.4375
18	11	28	11	37	36	0.453550885116	-0.551695121863	0.274108064198	-0.9619140625	-0.14306640625	0.234375	4.8125	-1.5	2.8125
18	11	28	11	37	36	0.453500042463	-0.551219230617	0.274541479273	-0.95263671875	-0.14453125	0.23583984375	2.1875	-1.8125	3.0
18	11	28	11	37	36	0.453382589342	-0.550858625311	0.274727387537	-0.9560546875	-0.150390625	0.2392578125	1.0	-1.6875	2.6875
18	11	28	11	37	36	0.453254992854	-0.550668804946	0.274907148911	-0.9609375	-0.15771484375	0.23486328125	0.6875	-1.125	2.5625
18	11	28	11	37	36	0.453137575445	-0.550491351419	0.275154120434	-0.9599609375	-0.15771484375	0.2392578125	1.0625	-0.625	2.5
18	11	28	11	37	36	0.453068835898	-0.550481992586	0.275454621637	-0.9775390625	-0.15380859375	0.23388671875	1.375	0.1875	1.5625
18	11	28	11	37	36	0.452841912224	-0.550686040179	0.275648210757	-0.97900390625	-0.15283203125	0.23046875	-0.1875	0.6875	1.375
18	11	28	11	37	36	0.452586926942	-0.55097804309	0.275519539881	-0.97607421875	-0.15869140625	0.2392578125	-1.8125	0.875	0.8125
18	11	28	11	37	36	0.45233703133	-0.551398291868	0.27539396645	-0.97705078125	-0.16162109375	0.2294921875	-1.75	1.0625	0.5625
18	11	28	11	37	36	0.452176220609	-0.551730677387	0.275346507987	-0.97265625	-0.16015625	0.236328125	-1.1875	1.25	0.3125
18	11	28	11	37	36	0.452153373669	-0.552069015231	0.275210524011	-0.96923828125	-0.16259765625	0.23583984375	-0.6875	1.5	-0.1875
18	11	28	11	37	36	0.452163521073	-0.552325553751	0.275216700394	-0.96484375	-0.1591796875	0.240234375	-0.1875	1.4375	-0.375
18	11	28	11	37	36	0.452270724314	-0.552551534038	0.275207651273	-0.97509765625	-0.1640625	0.234375	0.375	1.0	-0.375
18	11	28	11	37	36	0.452296091735	-0.55258252611	0.275162048791	-0.96484375	-0.1591796875	0.23486328125	0.75	0.625	-0.0625
18	11	28	11	37	36	0.452454473742	-0.552552320355	0.275330113456	-0.96728515625	-0.15966796875	0.23779296875	1.75	0.3125	0.25
18	11	28	11	37	36	0.452650977115	-0.552385564036	0.275582411229	-0.97119140625	-0.15234375	0.23974609375	2.375	0.1875	0.375
18	11	28	11	37	36	0.452765861385	-0.552254720115	0.275822179509	-0.9716796875	-0.1484375	0.2373046875	1.625	-0.1875	0.5625
18	11	28	11	37	36	0.452880695725	-0.55218485906	0.275939841695	-0.96728515625	-0.15576171875	0.22705078125	1.375	-0.8125	0.5625
18	11	28	11	37	36	0.45301840463	-0.552020809953	0.276132479459	-0.9599609375	-0.15673828125	0.22802734375	1.8125	-0.8125	0.875
18	11	28	11	37	36	0.453130649916	-0.551825728164	0.276370633462	-0.96875	-0.15576171875	0.23095703125	1.9375	-1.0625	1.25
18	11	28	11	37	36	0.453135698219	-0.551648766232	0.276556822283	-0.9775390625	-0.15478515625	0.22705078125	1.4375	-1.3125	1.25
18	11	28	11	37	36	0.453150909142	-0.551545206763	0.276688183074	-0.98193359375	-0.1591796875	0.228515625	1.0	-1.375	1.5625
18	11	28	11	37	36	0.453255452144	-0.551401798367	0.276860588598	-0.9765625	-0.16357421875	0.228515625	1.625	-1.125	1.5
18	11	28	11	37	37	0.453375128851	-0.551154740647	0.277164305346	-0.97412109375	-0.154296875	0.23876953125	2.4375	-0.375	1.375
18	11	28	11	37	37	0.453494811063	-0.551151836325	0.277406987386	-0.97216796875	-0.15771484375	0.228515625	1.875	0.0	0.75
18	11	28	11	37	37	0.453520291453	-0.551182803745	0.277361534908	-0.96875	-0.158203125	0.2314453125	0.75	0.4375	0.4375
18	11	28	11	37	37	0.453505033284	-0.551225296849	0.277352203398	-0.9716796875	-0.1611328125	0.23828125	0.4375	0.9375	0.125
18	11	28	11	37	37	0.453499911528	-0.551524253104	0.277349071061	-0.9697265625	-0.16357421875	0.224609375	-0.1875	1.0625	0.0
18	11	28	11	37	37	0.453510113819	-0.551597698329	0.277294272824	-0.9609375	-0.166015625	0.2333984375	-0.875	0.8125	-0.1875
18	11	28	11	37	37	0.453543326041	-0.551624893118	0.2772772615	-0.9638671875	-0.16357421875	0.234375	-0.8125	0.8125	-0.0625
18	11	28	11	37	37	0.453446377374	-0.551960639466	0.277109510469	-0.96728515625	-0.15869140625	0.23583984375	-1.125	1.1875	-0.125
18	11	28	11	37	37	0.453209170167	-0.552335324019	0.276869602138	-0.96435546875	-0.15478515625	0.23583984375	-2.5625	1.25	0.0
18	11	28	11	37	37	0.452900410059	-0.552880311902	0.276440155951	-0.9697265625	-0.15380859375	0.2412109375	-3.8125	1.5625	-0.9375
18	11	28	11	37	37	0.452583678703	-0.55353761054	0.275822743636	-0.97021484375	-0.16064453125	0.2392578125	-4.75	1.75	-1.375
18	11	28	11	37	37	0.452406704918	-0.554216524644	0.275155076332	-0.970703125	-0.1689453125	0.23388671875	-4.125	1.5625	-1.625
18	11	28	11	37	37	0.452390560842	-0.554685026569	0.274718013269	-0.97314453125	-0.16796875	0.23388671875	-2.25	0.9375	-1.625
18	11	28	11	37	37	0.45240504223	-0.555007966675	0.274421623025	-0.97802734375	-0.1640625	0.22705078125	-1.3125	0.125	-1.25
18	11	28	11	37	37	0.452450640894	-0.555111099276	0.274046051209	-0.9677734375	-0.16455078125	0.23193359375	-1.375	-0.875	-0.4375
18	11	28	11	37	37	0.452463172174	-0.555126473887	0.273809495531	-0.96875	-0.1640625	0.22998046875	-0.875	-1.375	-0.125
18	11	28	11	37	37	0.452639442836	-0.554996015872	0.27380535876	-0.96923828125	-0.162109375	0.22607421875	1.1875	-1.5625	0.3125
18	11	28	11	37	37	0.452953939245	-0.554641213572	0.274116175872	-0.96484375	-0.158203125	0.22900390625	3.1875	-1.3125	0.6875
18	11	28	11	37	37	0.453327105431	-0.554222447464	0.274608677438	-0.96435546875	-0.154296875	0.2265625	4.4375	-1.0	0.875
18	11	28	11	37	37	0.453562349477	-0.553845345062	0.27515261357	-0.9638671875	-0.146484375	0.22412109375	3.875	-0.8125	1.0
18	11	28	11	37	37	0.453562605471	-0.553662548005	0.275518988171	-0.96142578125	-0.1455078125	0.22607421875	1.6875	-0.625	1.125
18	11	28	11	37	37	0.453317878316	-0.553661838455	0.275640708022	-0.97021484375	-0.14453125	0.22607421875	-0.25	-0.4375	1.3125
18	11	28	11	37	37	0.453083237314	-0.553673453547	0.275829603856	-0.96533203125	-0.1533203125	0.220703125	-0.3125	-0.3125	1.6875
18	11	28	11	37	37	0.452889431838	-0.553660382237	0.276067237224	-0.9677734375	-0.16064453125	0.22216796875	0.75	-0.25	2.3125
18	11	28	11	37	37	0.45289198545	-0.553419357422	0.276679160383	-0.970703125	-0.1591796875	0.2216796875	3.125	-0.125	2.875
18	11	28	11	37	37	0.452947977515	-0.552985942094	0.277469546662	-0.97021484375	-0.15283203125	0.2255859375	4.4375	-0.375	3.4375
18	11	28	11	37	37	0.45290409861	-0.552518584989	0.278273556006	-0.97119140625	-0.14794921875	0.224609375	4.25	-0.6875	4.0
18	11	28	11	37	37	0.452824487685	-0.552068673826	0.278933536692	-0.9755859375	-0.15283203125	0.22900390625	3.1875	-0.875	4.0625
18	11	28	11	37	37	0.452647731745	-0.551710200545	0.279486780429	-0.974609375	-0.154296875	0.22705078125	2.4375	-1.0	4.0625
18	11	28	11	37	37	0.452593300541	-0.551352027482	0.279979159754	-0.97265625	-0.16259765625	0.22998046875	2.75	-1.0	4.1875
18	11	28	11	37	37	0.452579196365	-0.550907596277	0.280641826687	-0.974609375	-0.15771484375	0.2353515625	3.5	-0.4375	4.1875
18	11	28	11	37	37	0.452355434046	-0.550566187437	0.281325893337	-0.98095703125	-0.14501953125	0.22705078125	2.6875	-0.5	4.0625
18	11	28	11	37	37	0.452040993667	-0.550432849161	0.281564286225	-0.9765625	-0.14404296875	0.2314453125	-0.0625	-0.625	3.375
18	11	28	11	37	37	0.451734942974	-0.550431795127	0.281502710038	-0.96533203125	-0.1513671875	0.2314453125	-1.3125	-0.75	2.625
18	11	28	11	37	37	0.451554059265	-0.550495547514	0.281382023954	-0.958984375	-0.15576171875	0.22998046875	-1.0	-0.6875	1.875
18	11	28	11	37	37	0.451607843427	-0.550425669959	0.28131646849	-0.96142578125	-0.158203125	0.23486328125	0.4375	-0.625	1.3125
18	11	28	11	37	37	0.451770986092	-0.550340310942	0.281426103333	-0.96484375	-0.15087890625	0.23291015625	1.4375	-0.375	0.625
18	11	28	11	37	37	0.451928769009	-0.550322768961	0.281509384477	-0.9755859375	-0.15283203125	0.22998046875	1.375	-0.1875	0.375
18	11	28	11	37	37	0.451913588258	-0.550365319466	0.281499928288	-0.97314453125	-0.1484375	0.22705078125	0.625	-0.5	0.3125
18	11	28	11	37	37	0.451916145636	-0.550429470738	0.281501521296	-0.9716796875	-0.1484375	0.2197265625	0.5625	-0.375	0.0625
18	11	28	11	37	37	0.45190096279	-0.550472012886	0.281492063802	-0.97314453125	-0.15185546875	0.224609375	-0.0625	-0.625	0.3125
18	11	28	11	37	37	0.451926463975	-0.550503076525	0.281446910507	-0.96875	-0.150390625	0.22412109375	-0.1875	-0.6875	0.5625
18	11	28	11	37	37	0.451929014837	-0.550567222289	0.28144849911	-0.9697265625	-0.15283203125	0.220703125	0.3125	-0.5	0.6875
18	11	28	11	37	37	0.452038323561	-0.550551671418	0.281623659858	-0.96923828125	-0.14892578125	0.22119140625	1.3125	-0.25	0.6875
18	11	28	11	37	37	0.452091261639	-0.550541809097	0.281862757695	-0.9677734375	-0.14453125	0.2265625	1.625	0.25	0.5625
18	11	28	11	37	37	0.452093803118	-0.550605940046	0.281864342216	-0.9697265625	-0.1435546875	0.2265625	0.6875	0.6875	0.125
18	11	28	11	37	37	0.452093803118	-0.550605940046	0.281864342216	-0.96630859375	-0.1416015625	0.22705078125	-0.3125	0.875	0.0
18	11	28	11	37	37	0.452027694972	-0.550843903203	0.281800144165	-0.966796875	-0.146484375	0.23388671875	-0.75	1.3125	0.0
18	11	28	11	37	37	0.451803147112	-0.551234020747	0.281751327623	-0.97021484375	-0.14404296875	0.22705078125	-1.1875	1.5	0.0625
18	11	28	11	37	37	0.451560774271	-0.551602421883	0.281691399468	-0.96728515625	-0.14404296875	0.228515625	-1.875	1.4375	0.125
18	11	28	11	37	37	0.451300921618	-0.55201048622	0.281498492088	-0.97705078125	-0.14208984375	0.224609375	-2.1875	1.0625	-0.25
18	11	28	11	37	38	0.451303403206	-0.55207455802	0.281500039976	-0.9736328125	-0.15185546875	0.22216796875	-0.9375	0.875	-0.375
18	11	28	11	37	38	0.451310828039	-0.552266753056	0.281504671209	-0.9775390625	-0.1484375	0.23193359375	-0.1875	1.0	-0.0625
18	11	28	11	37	38	0.451310467382	-0.552449423894	0.28156548364	-0.984375	-0.15234375	0.2294921875	0.125	1.0	0.125
18	11	28	11	37	38	0.451303003896	-0.552501324218	0.281499790907	-0.9853515625	-0.15283203125	0.234375	-0.3125	0.6875	0.8125
18	11	28	11	37	38	0.45106290397	-0.552689390453	0.281502315712	-0.9873046875	-0.15576171875	0.2236328125	-0.9375	0.4375	1.4375
18	11	28	11	37	38	0.450884153053	-0.552755772309	0.281505037753	-0.98291015625	-0.1591796875	0.22998046875	-0.5	-0.0625	1.875
18	11	28	11	37	38	0.450820310666	-0.552813370391	0.281503286325	-0.97705078125	-0.158203125	0.224609375	-0.1875	-0.625	1.5625
18	11	28	11	37	38	0.450757130732	-0.552749705608	0.281318837582	-0.97314453125	-0.15673828125	0.23291015625	-0.625	-1.0625	1.25
18	11	28	11	37	38	0.450872952534	-0.552681005171	0.281009756798	-0.96826171875	-0.16064453125	0.23583984375	-0.375	-1.375	0.6875
18	11	28	11	37	38	0.451062496465	-0.552566817388	0.280769618909	-0.9658203125	-0.1591796875	0.2333984375	0.1875	-1.375	0.125
18	11	28	11	37	38	0.451501707525	-0.552459369313	0.280654975152	-0.962890625	-0.1669921875	0.23095703125	1.75	-1.1875	-0.25
18	11	28	11	37	38	0.452029722454	-0.552189157311	0.280824838376	-0.9736328125	-0.158203125	0.2314453125	3.75	-0.9375	-0.5
18	11	28	11	37	38	0.452462615075	-0.551951899113	0.28113352287	-0.982421875	-0.14013671875	0.23291015625	3.4375	-0.4375	-1.0625
18	11	28	11	37	38	0.452692470412	-0.551995510638	0.281002579719	-0.98291015625	-0.146484375	0.22998046875	0.3125	-0.5625	-1.4375
18	11	28	11	37	38	0.45277748092	-0.552268892877	0.280529159114	-0.9794921875	-0.15185546875	0.22216796875	-1.4375	-1.1875	-1.8125
18	11	28	11	37	38	0.452893152178	-0.552505230932	0.28003689787	-0.97509765625	-0.158203125	0.2255859375	-2.0	-1.125	-1.5
18	11	28	11	37	38	0.45295225178	-0.552685977613	0.279730517438	-0.97412109375	-0.1552734375	0.22314453125	-0.9375	-0.6875	-1.1875
18	11	28	11	37	38	0.452954696923	-0.552749998024	0.279732027489	-0.97216796875	-0.15283203125	0.2265625	-0.1875	-0.625	-0.9375
18	11	28	11	37	38	0.452954696923	-0.552749998024	0.279732027489	-0.9716796875	-0.15234375	0.22412109375	-0.6875	-0.9375	-0.875
18	11	28	11	37	38	0.453131150434	-0.552741877469	0.279483773954	-0.9658203125	-0.15185546875	0.22802734375	-0.1875	-1.25	-0.9375
18	11	28	11	37	38	0.453263945049	-0.552877028582	0.279246236008	-0.9677734375	-0.14697265625	0.22265625	-0.375	-1.125	-1.5
18	11	28	11	37	38	0.453432734879	-0.552920601059	0.278932238309	-0.9716796875	-0.14892578125	0.23193359375	-0.625	-0.9375	-1.625
18	11	28	11	37	38	0.453677823339	-0.553043825814	0.278566606447	-0.962890625	-0.15673828125	0.228515625	-0.5	-0.8125	-1.625
18	11	28	11	37	38	0.453866544595	-0.553111703486	0.278386943235	-0.96533203125	-0.15380859375	0.23095703125	0.0625	-0.3125	-1.1875
18	11	28	11	37	38	0.453851222019	-0.553154064707	0.278377544867	-0.96630859375	-0.15283203125	0.22314453125	-0.125	-0.125	-0.375
18	11	28	11	37	38	0.453820505647	-0.553191021207	0.27839614341	-0.96923828125	-0.1474609375	0.22119140625	-0.9375	-0.5	-0.1875
18	11	28	11	37	38	0.453746767407	-0.553297611857	0.278205241571	-0.97119140625	-0.1533203125	0.22265625	-1.1875	-0.9375	0.1875
18	11	28	11	37	38	0.453744427033	-0.553294758012	0.278081733867	-0.974609375	-0.16064453125	0.2265625	-0.1875	-1.25	0.5
18	11	28	11	37	38	0.453861874532	-0.553106012239	0.278139935751	-0.97119140625	-0.1591796875	0.23046875	1.0	-1.3125	0.875
18	11	28	11	37	38	0.453930735721	-0.552871400317	0.278327841184	-0.96923828125	-0.15771484375	0.2265625	1.75	-1.4375	1.625
18	11	28	11	37	38	0.453989384371	-0.552563309588	0.278570523026	-0.9677734375	-0.15380859375	0.22998046875	1.875	-1.375	2.0
18	11	28	11	37	38	0.453933273261	-0.552264119465	0.278817694266	-0.9677734375	-0.15576171875	0.22509765625	1.5	-1.6875	2.1875
18	11	28	11	37	38	0.453821209018	-0.552093185685	0.278884882852	-0.97119140625	-0.14990234375	0.22412109375	0.0625	-1.8125	2.125
18	11	28	11	37	38	0.453640685352	-0.551974262331	0.278703359704	-0.9677734375	-0.15576171875	0.2314453125	-1.0	-2.0625	1.625
18	11	28	11	37	38	0.453679486414	-0.551825136105	0.278445555902	-0.96484375	-0.15869140625	0.23291015625	-0.5625	-2.0	0.9375
18	11	28	11	37	38	0.453684832378	-0.551831638576	0.278265727272	-0.96728515625	-0.15966796875	0.224609375	-0.4375	-1.6875	0.625
18	11	28	11	37	38	0.453669551333	-0.551874086258	0.278256354706	-0.95703125	-0.16015625	0.22998046875	-0.1875	-1.0	0.4375
18	11	28	11	37	38	0.453687328804	-0.551895711966	0.278267258444	-0.974609375	-0.16015625	0.224609375	-0.1875	-0.3125	-0.375
18	11	28	11	37	38	0.453450275576	-0.552270573888	0.278027460661	-0.9755859375	-0.150390625	0.228515625	-2.375	0.6875	-0.25
18	11	28	11	37	38	0.453202808847	-0.552876908085	0.277659202349	-0.9794921875	-0.1552734375	0.22216796875	-3.0625	1.0625	-1.3125
18	11	28	11	37	38	0.453087538426	-0.553434556231	0.277419218934	-0.9697265625	-0.154296875	0.22314453125	-1.9375	1.5625	-1.375
18	11	28	11	37	38	0.453084376726	-0.55385795964	0.277295207256	-0.97119140625	-0.15771484375	0.228515625	-0.8125	2.0	-1.4375
18	11	28	11	37	38	0.453149698628	-0.554290465145	0.27729782878	-0.96875	-0.1611328125	0.22216796875	-0.125	1.75	-1.25
18	11	28	11	37	38	0.453190020322	-0.554509270656	0.277285153175	-0.96435546875	-0.15673828125	0.22998046875	-0.1875	1.4375	-0.5625
18	11	28	11	37	38	0.45320006685	-0.554582600323	0.277230263115	-0.9638671875	-0.15771484375	0.224609375	0.0625	0.8125	0.0625
18	11	28	11	37	38	0.45320006685	-0.554582600323	0.277230263115	-0.966796875	-0.16064453125	0.2255859375	0.875	0.0	0.75
18	11	28	11	37	38	0.453269186758	-0.554348337481	0.277418321278	-0.9638671875	-0.15576171875	0.2333984375	1.4375	-0.875	1.3125
18	11	28	11	37	38	0.453366596271	-0.553951969272	0.277708402401	-0.95751953125	-0.15673828125	0.23193359375	2.375	-1.3125	2.375
18	11	28	11	37	38	0.453440670891	-0.553479607435	0.278204681373	-0.9716796875	-0.15380859375	0.22021484375	3.1875	-1.9375	2.875
18	11	28	11	37	39	0.45337962841	-0.552930271105	0.278692970291	-0.9765625	-0.15185546875	0.22802734375	2.75	-2.125	3.6875
18	11	28	11	37	39	0.453188435022	-0.55249316011	0.279054212111	-0.97412109375	-0.15380859375	0.2275390625	1.625	-2.1875	4.0625
18	11	28	11	37	39	0.452938675964	-0.552120100091	0.279233855617	-0.97412109375	-0.15478515625	0.22998046875	0.4375	-2.1875	4.0
18	11	28	11	37	39	0.452645207336	-0.551890232569	0.279424185435	-0.9775390625	-0.15771484375	0.22314453125	0.125	-2.0625	3.9375
18	11	28	11	37	39	0.452466428842	-0.551651367041	0.279609970393	-0.9736328125	-0.16357421875	0.224609375	0.8125	-1.8125	3.6875
18	11	28	11	37	39	0.45228733271	-0.551351076434	0.279917639381	-0.9736328125	-0.1484375	0.224609375	1.25	-1.6875	3.0625
18	11	28	11	37	39	0.45223348618	-0.551176728331	0.280044167174	-0.970703125	-0.1572265625	0.2265625	0.8125	-1.5625	2.25
18	11	28	11	37	39	0.452223223083	-0.55110318278	0.280098848796	-0.96728515625	-0.15673828125	0.22705078125	0.5625	-1.125	1.5
18	11	28	11	37	39	0.452281789074	-0.551100171869	0.280158355175	-0.97216796875	-0.15380859375	0.220703125	1.0	-0.5625	0.8125
18	11	28	11	37	39	0.45246772091	-0.551164645867	0.280282176503	-0.96875	-0.1591796875	0.2265625	1.5	0.125	0.5
18	11	28	11	37	39	0.452640623204	-0.551274286513	0.280519997876	-0.9677734375	-0.15771484375	0.21728515625	2.125	0.375	0.1875
18	11	28	11	37	39	0.452770158408	-0.551344411014	0.280707732343	-0.9677734375	-0.14892578125	0.21875	1.6875	0.4375	-0.125
18	11	28	11	37	39	0.452772663305	-0.551408498288	0.280709285325	-0.96630859375	-0.1513671875	0.21826171875	0.5	0.25	-0.4375
18	11	28	11	37	39	0.452882179546	-0.551698385569	0.280701501851	-0.97802734375	-0.1513671875	0.22119140625	0.4375	0.8125	-1.1875
18	11	28	11	37	39	0.452937795194	-0.552057991852	0.280759177725	-0.97412109375	-0.158203125	0.22314453125	0.125	1.625	-0.5625
18	11	28	11	37	39	0.453128610723	-0.552311529961	0.280763955997	-0.97509765625	-0.16162109375	0.2314453125	1.0	1.5625	-0.8125
18	11	28	11	37	39	0.453381854593	-0.552505728026	0.281196850311	-0.970703125	-0.15625	0.22314453125	3.0	2.0	-0.3125
18	11	28	11	37	39	0.453574031009	-0.552638847632	0.281568699373	-0.96875	-0.15087890625	0.21826171875	2.5625	1.6875	-0.3125
18	11	28	11	37	39	0.453695650801	-0.552760367773	0.28169049219	-0.97021484375	-0.1474609375	0.23095703125	1.0625	1.1875	-0.5
18	11	28	11	37	39	0.453744122762	-0.552745059959	0.281682691222	-0.970703125	-0.14990234375	0.2412109375	-0.3125	0.75	-0.6875
18	11	28	11	37	39	0.453688703799	-0.552935015164	0.281380993477	-0.970703125	-0.14794921875	0.2373046875	-1.6875	0.25	-0.9375
18	11	28	11	37	39	0.453744967116	-0.552929197889	0.281316996696	-0.96630859375	-0.16162109375	0.2265625	-0.6875	-0.125	-0.6875
18	11	28	11	37	39	0.453752757541	-0.552938691225	0.281260789178	-0.9619140625	-0.16015625	0.236328125	0.8125	-0.0625	-0.3125
18	11	28	11	37	39	0.454063280516	-0.552823112197	0.281386170612	-0.96875	-0.15185546875	0.23486328125	2.0	0.0625	-0.25
18	11	28	11	37	39	0.454241395984	-0.552694953056	0.281505148922	-0.9755859375	-0.150390625	0.2294921875	1.4375	-0.5625	-0.0625
18	11	28	11	37	39	0.454226072016	-0.552737343211	0.281495652262	-0.98291015625	-0.1533203125	0.23095703125	0.75	-0.875	0.0625
18	11	28	11	37	39	0.454343671209	-0.552609833305	0.281431846849	-0.9775390625	-0.1533203125	0.22802734375	0.6875	-1.25	0.4375
18	11	28	11	37	39	0.45440501587	-0.552488140182	0.281432038707	-0.97412109375	-0.1533203125	0.2265625	0.25	-1.3125	0.625
18	11	28	11	37	39	0.454407982492	-0.552369676502	0.281372840737	-0.97412109375	-0.1552734375	0.2294921875	0.25	-1.4375	1.0
18	11	28	11	37	39	0.454403130974	-0.552241709745	0.281369836641	-0.9716796875	-0.1552734375	0.22314453125	0.375	-1.4375	1.4375
18	11	28	11	37	39	0.454362402091	-0.551961203938	0.281504486626	-0.970703125	-0.14697265625	0.2314453125	0.875	-1.4375	1.6875
18	11	28	11	37	39	0.454425511717	-0.551780607914	0.281749921032	-0.97314453125	-0.15673828125	0.21728515625	1.8125	-1.375	1.9375
18	11	28	11	37	39	0.454431971522	-0.551544297472	0.282181196017	-0.974609375	-0.15185546875	0.220703125	2.5625	-1.125	2.25
18	11	28	11	37	39	0.454484289791	-0.551228528216	0.282603043477	-0.9716796875	-0.1494140625	0.22314453125	2.625	-0.875	2.25
18	11	28	11	37	39	0.454429709586	-0.550931169741	0.282973288602	-0.96728515625	-0.14306640625	0.2255859375	1.9375	-1.0625	2.5
18	11	28	11	37	39	0.454352328834	-0.550728245979	0.283268290988	-0.9697265625	-0.150390625	0.224609375	1.3125	-1.0625	2.5
18	11	28	11	37	39	0.454224411187	-0.550538052796	0.283447751351	-0.96728515625	-0.15234375	0.22705078125	0.8125	-1.0625	2.6875
18	11	28	11	37	39	0.45422098806	-0.550350799427	0.283689754435	-0.970703125	-0.15185546875	0.22412109375	1.5	-1.0	2.25
18	11	28	11	37	39	0.454283721952	-0.550169752745	0.283934955599	-0.97607421875	-0.14990234375	0.2333984375	1.9375	-0.25	1.75
18	11	28	11	37	39	0.454244668954	-0.550135340135	0.284131810532	-0.974609375	-0.15576171875	0.23046875	0.875	-0.0625	1.75
18	11	28	11	37	39	0.454188345298	-0.550141050419	0.284195798375	-0.96875	-0.14892578125	0.2265625	0.4375	-0.0625	1.125
18	11	28	11	37	39	0.45429960278	-0.550188985551	0.284372141522	-0.97119140625	-0.1591796875	0.22119140625	1.5	0.0625	1.125
18	11	28	11	37	39	0.45442107949	-0.550066187826	0.284554878789	-0.97119140625	-0.1552734375	0.22705078125	2.0	-0.4375	1.3125
18	11	28	11	37	39	0.454656587652	-0.54987262695	0.284854650902	-0.96923828125	-0.15673828125	0.22900390625	2.6875	-0.5	1.5
18	11	28	11	37	39	0.45479015525	-0.549581339132	0.285167038696	-0.970703125	-0.14697265625	0.2294921875	2.6875	-1.0	1.5
18	11	28	11	37	39	0.4550185171	-0.549257093948	0.285340250495	-0.97509765625	-0.1474609375	0.23095703125	2.375	-1.375	1.1875
18	11	28	11	37	39	0.455152535899	-0.549027364947	0.285530851942	-0.97021484375	-0.1484375	0.22900390625	1.9375	-1.375	1.125
18	11	28	11	37	39	0.455521019769	-0.548724905229	0.285654344435	-0.96826171875	-0.1572265625	0.23486328125	2.75	-1.3125	0.875
18	11	28	11	37	39	0.456004487944	-0.54829183713	0.286139611763	-0.974609375	-0.1552734375	0.22998046875	5.0	-1.125	1.25
18	11	28	11	37	39	0.456430609163	-0.547802182032	0.286810301211	-0.9775390625	-0.14404296875	0.22314453125	5.8125	-1.0	1.5
18	11	28	11	37	39	0.456740071735	-0.547319019545	0.287362322295	-0.97509765625	-0.1396484375	0.2314453125	4.25	-1.1875	1.5625
18	11	28	11	37	40	0.45679950055	-0.547072945407	0.287605457856	-0.9697265625	-0.14013671875	0.2275390625	2.0	-1.5	1.5625
18	11	28	11	37	40	0.456859671882	-0.546888798939	0.287726986406	-0.97021484375	-0.14111328125	0.2236328125	1.0625	-1.625	1.125
18	11	28	11	37	40	0.457041464084	-0.5466430759	0.287909266304	-0.97216796875	-0.1513671875	0.22998046875	2.4375	-1.3125	1.25
18	11	28	11	37	40	0.457402047156	-0.546270125707	0.288332969144	-0.96826171875	-0.14794921875	0.232421875	4.0	-0.8125	1.5
18	11	28	11	37	40	0.457705202026	-0.545840461624	0.288942049125	-0.9775390625	-0.13916015625	0.23291015625	4.8125	-0.625	1.5625
18	11	28	11	37	40	0.457944570669	-0.545468562983	0.289549386012	-0.97607421875	-0.13525390625	0.22900390625	4.25	-0.6875	1.5625
18	11	28	11	37	40	0.45814453525	-0.545183451752	0.289987301755	-0.97412109375	-0.138671875	0.22705078125	3.3125	-0.8125	1.375
18	11	28	11	37	40	0.458205042318	-0.544938672947	0.290353188531	-0.97314453125	-0.13330078125	0.23193359375	2.25	-0.75	1.5
18	11	28	11	37	40	0.458208505112	-0.544759678717	0.290538495315	-0.97216796875	-0.1376953125	0.23095703125	1.5	-1.0	1.5
18	11	28	11	37	40	0.458323604946	-0.544507241939	0.290717183427	-0.96875	-0.1396484375	0.23388671875	1.75	-0.9375	1.625
18	11	28	11	37	40	0.458440261506	-0.544256665138	0.291018927821	-0.9560546875	-0.14208984375	0.23583984375	2.25	-0.75	1.875
18	11	28	11	37	40	0.458574736086	-0.544027235822	0.291331986602	-0.96923828125	-0.1357421875	0.23681640625	2.5625	-0.1875	1.1875
18	11	28	11	37	40	0.458575228122	-0.543966781981	0.291576449453	-0.97802734375	-0.1328125	0.23779296875	1.3125	0.3125	0.875
18	11	28	11	37	40	0.458497662585	-0.544130279811	0.291443868323	-0.98046875	-0.13916015625	0.23974609375	-1.125	0.25	0.3125
18	11	28	11	37	40	0.45850581788	-0.544139958254	0.291388015783	-0.97607421875	-0.14013671875	0.23828125	-0.5	0.125	0.125
18	11	28	11	37	40	0.458523710837	-0.544161193039	0.291399387052	-0.9736328125	-0.138671875	0.234375	-0.1875	0.0	0.375
18	11	28	11	37	40	0.458508480893	-0.544204155437	0.291389708171	-0.97509765625	-0.13720703125	0.23193359375	-0.1875	-0.5	0.3125
18	11	28	11	37	40	0.458626680247	-0.544138522013	0.291204137804	-0.9716796875	-0.1484375	0.2392578125	0.0	-1.0625	0.5
18	11	28	11	37	40	0.458822439041	-0.543909372661	0.291151128672	-0.97265625	-0.14453125	0.2431640625	0.9375	-1.5	0.8125
18	11	28	11	37	40	0.458993688837	-0.543651168413	0.291265675948	-0.97705078125	-0.140625	0.2333984375	2.0625	-1.8125	1.0625
18	11	28	11	37	40	0.459167648956	-0.543274125131	0.291320907679	-0.9716796875	-0.13916015625	0.2353515625	1.625	-2.4375	1.25
18	11	28	11	37	40	0.459294463103	-0.542974557311	0.291262880788	-0.970703125	-0.14306640625	0.236328125	1.125	-2.5625	1.3125
18	11	28	11	37	40	0.459476415121	-0.542606978006	0.291262148374	-0.9765625	-0.13720703125	0.240234375	1.125	-2.3125	1.125
18	11	28	11	37	40	0.459597664595	-0.54236186555	0.291261627549	-0.98095703125	-0.1376953125	0.23486328125	1.0	-2.3125	0.8125
18	11	28	11	37	40	0.459663694391	-0.542184649751	0.291203755934	-0.9736328125	-0.1396484375	0.23828125	0.5625	-2.0	1.0
18	11	28	11	37	40	0.459664718433	-0.542063784943	0.291021295643	-0.9658203125	-0.13818359375	0.240234375	-0.4375	-1.6875	0.875
18	11	28	11	37	40	0.459606230754	-0.542127827564	0.29071772604	-0.97607421875	-0.13818359375	0.23291015625	-1.25	-1.75	0.1875
18	11	28	11	37	40	0.459621953462	-0.542207412032	0.290361438595	-0.97216796875	-0.14453125	0.23681640625	-1.5	-1.8125	-0.125
18	11	28	11	37	40	0.45978202932	-0.542241278173	0.289980674538	-0.974609375	-0.14990234375	0.23974609375	-0.5	-1.6875	-0.125
18	11	28	11	37	40	0.460029384654	-0.542122992504	0.289799591129	-0.97607421875	-0.14453125	0.24267578125	0.6875	-1.625	-0.3125
18	11	28	11	37	40	0.460231356946	-0.542084175204	0.28962835394	-0.9775390625	-0.140625	0.240234375	0.5	-1.6875	-0.6875
18	11	28	11	37	40	0.460463404995	-0.542008886049	0.289437628113	-0.97607421875	-0.13818359375	0.2392578125	0.375	-1.75	-0.9375
18	11	28	11	37	40	0.460766848695	-0.541884763904	0.289192386954	-0.9716796875	-0.14208984375	0.24658203125	0.4375	-1.625	-0.875
18	11	28	11	37	40	0.461071974322	-0.541762621669	0.289070276726	-0.96875	-0.1416015625	0.2412109375	1.125	-1.5625	-1.0625
18	11	28	11	37	40	0.461509200799	-0.541652248101	0.288954444727	-0.96826171875	-0.14404296875	0.23876953125	1.8125	-1.75	-1.125
18	11	28	11	37	40	0.461872121322	-0.541526293164	0.288891337415	-0.96142578125	-0.13916015625	0.23193359375	1.8125	-1.8125	-1.1875
18	11	28	11	37	40	0.462234959177	-0.541400249294	0.288828182599	-0.96875	-0.13623046875	0.236328125	1.4375	-1.75	-1.25
18	11	28	11	37	40	0.462494625238	-0.541357375114	0.288715794823	-0.978515625	-0.1328125	0.2392578125	0.75	-1.5	-1.8125
18	11	28	11	37	40	0.462666792762	-0.541466638337	0.288403772533	-0.96923828125	-0.14208984375	0.24267578125	-0.5	-1.125	-1.5
18	11	28	11	37	40	0.462953684022	-0.541506273519	0.288331338605	-0.96484375	-0.1455078125	0.23583984375	1.125	-0.5	-1.125
18	11	28	11	37	40	0.463210402981	-0.541459940025	0.288644353103	-0.9619140625	-0.1376953125	0.2294921875	2.75	-0.125	-0.4375
18	11	28	11	37	40	0.463325086778	-0.541390267386	0.288883893522	-0.9638671875	-0.12939453125	0.236328125	1.5625	-0.25	-0.0625
18	11	28	11	37	40	0.463325086778	-0.541390267386	0.288883893522	-0.96044921875	-0.13525390625	0.23828125	-0.1875	-0.625	0.3125
18	11	28	11	37	40	0.463210402981	-0.541459940025	0.288644353103	-0.9619140625	-0.13916015625	0.2412109375	-1.4375	-1.0625	0.3125
18	11	28	11	37	40	0.463195094175	-0.541503080184	0.288634813592	-0.96435546875	-0.138671875	0.23974609375	-0.875	-0.75	0.5625
18	11	28	11	37	40	0.463213172758	-0.541524215141	0.288646079058	-0.96484375	-0.14453125	0.2412109375	0.125	-0.9375	0.8125
18	11	28	11	37	40	0.46325732433	-0.541382406694	0.288757628644	-0.96435546875	-0.14599609375	0.24072265625	1.25	-1.0	1.3125
18	11	28	11	37	40	0.463388868592	-0.541088292949	0.289068714654	-0.9697265625	-0.14404296875	0.2373046875	2.375	-1.1875	1.6875
18	11	28	11	37	40	0.46350762268	-0.540718202439	0.289310788979	-0.97119140625	-0.14306640625	0.24560546875	2.375	-1.8125	2.0
18	11	28	11	37	40	0.463623457933	-0.540283682151	0.289551037972	-0.96630859375	-0.14404296875	0.240234375	2.4375	-2.4375	2.1875
18	11	28	11	37	41	0.463891850325	-0.539762583213	0.289749291249	-0.9599609375	-0.146484375	0.24462890625	3.0625	-2.6875	2.0
18	11	28	11	37	41	0.464237717685	-0.539189586909	0.289919689587	-0.95947265625	-0.1435546875	0.24462890625	3.125	-2.75	1.625
18	11	28	11	37	41	0.464546564333	-0.538705554697	0.290044051204	-0.955078125	-0.14306640625	0.2490234375	2.8125	-2.625	1.25
18	11	28	11	37	41	0.464861035707	-0.538350096499	0.290171922762	-0.955078125	-0.1435546875	0.24169921875	2.5	-2.4375	0.6875
18	11	28	11	37	41	0.465287544501	-0.53798300108	0.290171453044	-0.95703125	-0.14599609375	0.24658203125	2.6875	-2.125	0.3125
18	11	28	11	37	41	0.465721425133	-0.537746494813	0.290297653726	-0.958984375	-0.14501953125	0.2373046875	3.0625	-1.8125	-0.125
18	11	28	11	37	41	0.466186425315	-0.53747547281	0.2905272826	-0.966796875	-0.14501953125	0.2412109375	3.625	-1.5	-0.25
18	11	28	11	37	41	0.466562723237	-0.537181910938	0.290838746235	-0.97021484375	-0.13818359375	0.244140625	3.3125	-1.1875	-0.0625
18	11	28	11	37	41	0.466801238096	-0.536992323846	0.290957309363	-0.96484375	-0.13525390625	0.2470703125	2.1875	-1.125	-0.0625
18	11	28	11	37	41	0.467045544555	-0.536931476144	0.291079482747	-0.96826171875	-0.142578125	0.23876953125	2.125	-1.0	0.0
18	11	28	11	37	41	0.46736143548	-0.536760671752	0.29139134034	-0.97021484375	-0.14111328125	0.24365234375	3.25	-0.625	0.1875
18	11	28	11	37	41	0.467730539671	-0.536458790704	0.291881435561	-0.96875	-0.1416015625	0.25	4.3125	-0.125	0.8125
18	11	28	11	37	41	0.46807280067	-0.53612615479	0.292415802322	-0.978515625	-0.1328125	0.2529296875	4.4375	-0.0625	0.375
18	11	28	11	37	41	0.468155675345	-0.536029092683	0.292795668139	-0.974609375	-0.130859375	0.25048828125	2.0625	0.375	0.6875
18	11	28	11	37	41	0.468155675345	-0.536029092683	0.292795668139	-0.97119140625	-0.13818359375	0.25	0.0625	0.0625	0.4375
18	11	28	11	37	41	0.468216139569	-0.536089473841	0.292856346976	-0.96435546875	-0.14501953125	0.2490234375	1.0	0.0	0.625
18	11	28	11	37	41	0.468458625896	-0.535965497589	0.293099455577	-0.96484375	-0.14501953125	0.25	2.4375	-0.0625	0.6875
18	11	28	11	37	41	0.468756662882	-0.535591108957	0.293461202492	-0.96435546875	-0.13818359375	0.25146484375	3.3125	-0.625	0.875
18	11	28	11	37	41	0.469056016267	-0.535279279461	0.293701698149	-0.96435546875	-0.13916015625	0.26025390625	3.0625	-0.625	0.8125
18	11	28	11	37	41	0.469261491816	-0.53499960663	0.294081928664	-0.966796875	-0.1357421875	0.24853515625	2.875	-0.75	0.9375
18	11	28	11	37	41	0.469434802683	-0.534805323249	0.294319934799	-0.97216796875	-0.1376953125	0.248046875	2.375	-0.875	0.8125
18	11	28	11	37	41	0.469613525542	-0.534556181011	0.294500293832	-0.96923828125	-0.14013671875	0.25	2.4375	-1.1875	1.0625
18	11	28	11	37	41	0.469922312701	-0.534255098464	0.294807737414	-0.96484375	-0.14013671875	0.2509765625	3.25	-1.0	0.9375
18	11	28	11	37	41	0.470162139632	-0.533883971876	0.295110209674	-0.9677734375	-0.13232421875	0.2548828125	2.75	-0.875	0.875
18	11	28	11	37	41	0.470165120803	-0.533948393714	0.295112080888	-0.970703125	-0.130859375	0.2490234375	0.5625	-1.0	0.8125
18	11	28	11	37	41	0.470165120803	-0.533948393714	0.295112080888	-0.9677734375	-0.13525390625	0.25830078125	-0.9375	-0.875	0.4375
18	11	28	11	37	41	0.470173589073	-0.533958010803	0.295056358507	-0.9658203125	-0.1396484375	0.25732421875	-0.9375	-0.875	0.0
18	11	28	11	37	41	0.470158265246	-0.534001643857	0.295046742074	-0.9677734375	-0.14111328125	0.251953125	0.4375	-0.625	-0.1875
18	11	28	11	37	41	0.470176566958	-0.534022430783	0.295058227272	-0.96533203125	-0.13818359375	0.2490234375	0.875	-0.625	0.0
18	11	28	11	37	41	0.470161241088	-0.534066059914	0.295048609557	-0.9697265625	-0.13330078125	0.25048828125	0.0	-0.875	0.0
18	11	28	11	37	41	0.470161241088	-0.534066059914	0.295048609557	-0.96875	-0.13330078125	0.2529296875	-0.625	-1.0	0.0625
18	11	28	11	37	41	0.470179541397	-0.53408684762	0.295060093874	-0.9716796875	-0.13134765625	0.24951171875	-1.0	-0.9375	0.0625
18	11	28	11	37	41	0.470227084139	-0.534071519499	0.295051625744	-0.96484375	-0.13720703125	0.2548828125	-0.625	-0.8125	0.1875
18	11	28	11	37	41	0.470220222397	-0.534124761967	0.294986284377	-0.96533203125	-0.13525390625	0.24609375	0.125	-0.6875	0.1875
18	11	28	11	37	41	0.470238523089	-0.534145549786	0.294997765069	-0.96826171875	-0.1328125	0.24853515625	0.25	-0.625	0.125
18	11	28	11	37	41	0.470223191636	-0.534189170976	0.294988147089	-0.9599609375	-0.13623046875	0.24951171875	-0.5625	-0.9375	0.3125
18	11	28	11	37	41	0.470230283002	-0.534197227003	0.294809484281	-0.96435546875	-0.1376953125	0.2509765625	-0.4375	-1.0625	0.0
18	11	28	11	37	41	0.470230283002	-0.534197227003	0.294809484281	-0.9716796875	-0.1318359375	0.255859375	-0.25	-0.5	-0.0625
18	11	28	11	37	41	0.470280789599	-0.534246301279	0.294802883032	-0.96875	-0.14013671875	0.255859375	-0.6875	-0.3125	0.0
18	11	28	11	37	41	0.470289250961	-0.534255913519	0.294747150278	-0.96142578125	-0.14208984375	0.2578125	0.3125	-0.0625	0.125
18	11	28	11	37	41	0.470403995884	-0.53424758998	0.294864630092	-0.9658203125	-0.142578125	0.25	1.0625	0.1875	0.4375
18	11	28	11	37	41	0.47040695753	-0.534311989907	0.294866486548	-0.96630859375	-0.134765625	0.2490234375	0.3125	0.0	0.5
18	11	28	11	37	41	0.470415423063	-0.534321605487	0.294810755598	-0.96630859375	-0.13720703125	0.25048828125	-0.5	-0.0625	0.25
18	11	28	11	37	41	0.470403235329	-0.53449086957	0.29455897414	-0.96240234375	-0.14013671875	0.2529296875	-1.125	-0.375	-0.1875
18	11	28	11	37	41	0.470403235329	-0.53449086957	0.29455897414	-0.9638671875	-0.13427734375	0.2568359375	-1.0	-0.1875	-0.375
18	11	28	11	37	41	0.470403235329	-0.53449086957	0.29455897414	-0.9580078125	-0.140625	0.251953125	-0.5625	-0.1875	-0.5
18	11	28	11	37	41	0.470414644926	-0.534564870931	0.294505081325	-0.9580078125	-0.14892578125	0.2509765625	0.875	0.0625	-0.125
18	11	28	11	37	41	0.470602094464	-0.53450876021	0.294690909478	-0.96875	-0.13818359375	0.25048828125	1.75	0.375	0.125
18	11	28	11	37	41	0.470586740812	-0.534552357461	0.294681295024	-0.96826171875	-0.13720703125	0.2451171875	0.75	0.1875	0.3125
18	11	28	11	37	42	0.470605041766	-0.534573146016	0.294692755077	-0.96728515625	-0.13427734375	0.25	-0.5625	-0.1875	0.3125
18	11	28	11	37	42	0.470462554454	-0.534733061699	0.294557899299	-0.96142578125	-0.1396484375	0.2470703125	-1.125	-0.3125	0.375
18	11	28	11	37	42	0.470489308975	-0.53476347119	0.294513611288	-0.9609375	-0.13623046875	0.25048828125	-0.5625	-0.1875	0.375
18	11	28	11	37	42	0.470473951385	-0.534807052677	0.294503997851	-0.96435546875	-0.142578125	0.2451171875	0.6875	-0.0625	0.5
18	11	28	11	37	42	0.47064601899	-0.534794503747	0.294680194486	-0.96533203125	-0.14501953125	0.2490234375	1.5625	0.0625	0.6875
18	11	28	11	37	42	0.470720083194	-0.534748268784	0.294871462903	-0.96533203125	-0.140625	0.24560546875	1.75	0.0625	0.8125
18	11	28	11	37	42	0.470785645735	-0.534692370885	0.295118448999	-0.9677734375	-0.138671875	0.24658203125	1.5	0.125	0.8125
18	11	28	11	37	42	0.470770280804	-0.534735956194	0.295108817281	-0.9677734375	-0.13720703125	0.251953125	0.4375	0.125	0.9375
18	11	28	11	37	42	0.470770280804	-0.534735956194	0.295108817281	-0.96484375	-0.1416015625	0.24853515625	-0.375	0.1875	0.875
18	11	28	11	37	42	0.470781687067	-0.534809949706	0.295054930025	-0.96435546875	-0.14501953125	0.2470703125	-0.3125	0.25	0.8125
18	11	28	11	37	42	0.470847488857	-0.534815361339	0.295057915626	-0.96533203125	-0.146484375	0.24609375	0.4375	0.4375	0.6875
18	11	28	11	37	42	0.470832118347	-0.534858938693	0.295048283652	-0.9599609375	-0.14453125	0.2451171875	0.5625	0.5625	0.875
18	11	28	11	37	42	0.470899244451	-0.534865856011	0.295174173191	-0.9609375	-0.1416015625	0.25	1.3125	0.5	0.625
18	11	28	11	37	42	0.470902161935	-0.534930207025	0.295176001959	-0.96826171875	-0.1318359375	0.24658203125	0.9375	0.8125	0.1875
18	11	28	11	37	42	0.47084510315	-0.535117840202	0.295178496089	-0.96728515625	-0.1416015625	0.2509765625	-0.375	1.0	0.0625
18	11	28	11	37	42	0.470885709476	-0.535155657898	0.295104653962	-0.9677734375	-0.14111328125	0.25341796875	-0.375	0.9375	-0.0625
18	11	28	11	37	42	0.470903995258	-0.535176439458	0.295116113684	-0.96728515625	-0.14453125	0.24755859375	0.4375	0.9375	0.125
18	11	28	11	37	42	0.470888612674	-0.535219992811	0.2951064734	-0.96240234375	-0.1435546875	0.24755859375	0.5625	0.6875	0.375
18	11	28	11	37	42	0.470888612674	-0.535219992811	0.2951064734	-0.9677734375	-0.13623046875	0.25439453125	0.6875	0.5625	0.375
18	11	28	11	37	42	0.470915379007	-0.53525041588	0.295062208959	-0.97021484375	-0.1396484375	0.25341796875	0.375	0.125	0.3125
18	11	28	11	37	42	0.470899993553	-0.535293965452	0.295052568871	-0.97412109375	-0.14111328125	0.24853515625	0.4375	0.0625	0.1875
18	11	28	11	37	42	0.471014592179	-0.535285470183	0.295169958245	-0.97265625	-0.1455078125	0.244140625	1.1875	-0.3125	0.4375
18	11	28	11	37	42	0.471280107833	-0.535126629371	0.295366460537	-0.96630859375	-0.14501953125	0.24658203125	2.4375	-0.4375	0.75
18	11	28	11	37	42	0.47146116364	-0.534880136843	0.295792439021	-0.96875	-0.1328125	0.2451171875	3.125	-0.4375	0.875
18	11	28	11	37	42	0.471512219709	-0.534685701573	0.296091362823	-0.96728515625	-0.1318359375	0.24267578125	2.0625	-0.6875	1.0625
18	11	28	11	37	42	0.471516173947	-0.534568110217	0.296154883624	-0.9658203125	-0.134765625	0.24609375	0.625	-1.125	0.875
18	11	28	11	37	42	0.471500788813	-0.534611703458	0.296145220365	-0.95947265625	-0.134765625	0.2470703125	0.625	-1.0	0.875
18	11	28	11	37	42	0.471624818363	-0.534430815269	0.29626852185	-0.95703125	-0.13623046875	0.248046875	1.0625	-0.75	0.75
18	11	28	11	37	42	0.471680366638	-0.534363562359	0.29644818074	-0.95849609375	-0.1337890625	0.23974609375	1.375	-0.6875	0.8125
18	11	28	11	37	42	0.471679897479	-0.534301995669	0.29669202661	-0.95703125	-0.13427734375	0.2412109375	1.4375	-0.3125	1.0625
18	11	28	11	37	42	0.471631938707	-0.534255773198	0.296944400389	-0.96435546875	-0.1328125	0.2421875	1.1875	0.1875	1.3125
18	11	28	11	37	42	0.471449702761	-0.534317801394	0.297250136256	-0.97216796875	-0.1279296875	0.2431640625	0.5	0.5	1.4375
18	11	28	11	37	42	0.471027269614	-0.534506388494	0.297436294522	-0.970703125	-0.12841796875	0.2392578125	-1.0	0.5625	1.75
18	11	28	11	37	42	0.47065787365	-0.534624862573	0.297556365458	-0.96923828125	-0.13525390625	0.24658203125	-1.0625	0.625	2.375
18	11	28	11	37	42	0.470289555821	-0.534744555295	0.29779918791	-0.97216796875	-0.1337890625	0.24072265625	-0.4375	0.8125	2.8125
18	11	28	11	37	42	0.469859234875	-0.534741069984	0.298102429609	-0.9755859375	-0.1337890625	0.2470703125	-0.125	0.4375	3.3125
18	11	28	11	37	42	0.469434417055	-0.534682810221	0.298348125155	-0.96630859375	-0.1357421875	0.24951171875	-0.6875	0.25	3.75
18	11	28	11	37	42	0.469057060328	-0.534609081511	0.298585184011	-0.9609375	-0.13671875	0.2470703125	-0.25	0.125	3.8125
18	11	28	11	37	42	0.468874189055	-0.534487278516	0.298829475347	-0.97314453125	-0.13916015625	0.25146484375	0.8125	0.0	3.1875
18	11	28	11	37	42	0.468815468601	-0.534367846322	0.299258201087	-0.9794921875	-0.1396484375	0.2490234375	2.0625	0.5625	2.75
18	11	28	11	37	42	0.468707960759	-0.534262375378	0.299572688033	-0.97607421875	-0.14208984375	0.24951171875	1.5625	0.5	2.875
18	11	28	11	37	42	0.468524063254	-0.534322518203	0.299755298937	-0.9716796875	-0.13623046875	0.24951171875	0.125	0.75	2.3125
18	11	28	11	37	42	0.468037565161	-0.534629764377	0.299573339829	-0.966796875	-0.13671875	0.24560546875	-2.875	0.4375	2.25
18	11	28	11	37	42	0.467399648054	-0.535147573013	0.298945348154	-0.9609375	-0.140625	0.24609375	-6.0	0.1875	1.625
18	11	28	11	37	42	0.466931082509	-0.535780528401	0.298225525378	-0.96142578125	-0.1533203125	0.248046875	-5.4375	0.8125	1.0
18	11	28	11	37	42	0.466806302154	-0.536204676311	0.297796541346	-0.96533203125	-0.15234375	0.251953125	-2.5	1.25	0.375
18	11	28	11	37	42	0.466858705834	-0.536499937806	0.297729999615	-0.97607421875	-0.14208984375	0.2529296875	-0.125	1.4375	-0.25
18	11	28	11	37	42	0.467001858799	-0.536768310845	0.297743441017	-0.97265625	-0.142578125	0.24072265625	0.625	1.1875	-0.625
18	11	28	11	37	42	0.467108648475	-0.536994889492	0.297733697538	-0.974609375	-0.13525390625	0.240234375	0.3125	0.8125	-1.0625
18	11	28	11	37	43	0.467232346259	-0.537240902909	0.297612661053	-0.97119140625	-0.1376953125	0.24267578125	-0.125	0.5	-1.0625
18	11	28	11	37	43	0.467407715848	-0.537354078131	0.297546698193	-0.9765625	-0.1357421875	0.24267578125	0.5625	0.3125	-1.125
18	11	28	11	37	43	0.467721543927	-0.537425054714	0.297552202355	-0.97021484375	-0.13916015625	0.24169921875	1.5	0.125	-0.875
18	11	28	11	37	43	0.467965033816	-0.537363265647	0.297673858083	-0.9697265625	-0.13134765625	0.23779296875	1.75	-0.125	-0.6875
18	11	28	11	37	43	0.46816081278	-0.537316771173	0.297803990294	-0.9658203125	-0.12744140625	0.23779296875	1.75	-0.3125	-0.8125
18	11	28	11	37	43	0.468388850127	-0.537298286118	0.297915816715	-0.970703125	-0.130859375	0.23779296875	1.75	-0.375	-0.75
18	11	28	11	37	43	0.468697975349	-0.537241773541	0.29804039766	-0.97509765625	-0.13232421875	0.23779296875	2.0	-0.3125	-0.5625
18	11	28	11	37	43	0.468886185908	-0.537186581903	0.298348825399	-0.9765625	-0.1328125	0.23388671875	2.25	-0.0625	-0.0625
18	11	28	11	37	43	0.469015368935	-0.537072648525	0.298719575165	-0.97119140625	-0.12841796875	0.23486328125	2.6875	0.25	0.1875
18	11	28	11	37	43	0.469123301087	-0.537056456709	0.299137821836	-0.97265625	-0.12890625	0.22998046875	2.4375	0.4375	0.8125
18	11	28	11	37	43	0.469012970679	-0.537069902266	0.299511536586	-0.97265625	-0.1259765625	0.2294921875	1.4375	0.5	0.875
18	11	28	11	37	43	0.469015742001	-0.537134113692	0.299513306351	-0.9716796875	-0.12939453125	0.234375	-0.1875	0.375	0.9375
18	11	28	11	37	43	0.468823999646	-0.537246301899	0.299507794071	-0.97314453125	-0.13134765625	0.2353515625	-1.0625	0.25	0.9375
18	11	28	11	37	43	0.468635001982	-0.537422661169	0.299504031613	-0.9697265625	-0.13818359375	0.23876953125	-0.6875	0.4375	1.0
18	11	28	11	37	43	0.468479475139	-0.537576382742	0.299521665734	-0.96142578125	-0.1376953125	0.23828125	-0.5625	0.5	1.1875
18	11	28	11	37	43	0.468407893624	-0.537625322783	0.29957596324	-0.9677734375	-0.13916015625	0.2421875	0.0625	0.5	1.25
18	11	28	11	37	43	0.468392522359	-0.537668716375	0.299566132361	-0.9765625	-0.13671875	0.24072265625	0.6875	0.625	0.875
18	11	28	11	37	43	0.468267471051	-0.537787368017	0.2996862986	-0.97607421875	-0.13916015625	0.23828125	-0.0625	0.625	1.1875
18	11	28	11	37	43	0.468213010225	-0.537855956994	0.299629470368	-0.9765625	-0.14404296875	0.2412109375	-0.25	0.125	1.0625
18	11	28	11	37	43	0.468206200544	-0.537909170302	0.299564076687	-0.97509765625	-0.14453125	0.2431640625	-0.0625	-0.125	1.125
18	11	28	11	37	43	0.468157547685	-0.537923398664	0.299449925547	-0.97021484375	-0.14208984375	0.2412109375	-0.3125	-0.75	1.125
18	11	28	11	37	43	0.468142496344	-0.537784033284	0.299379262655	-0.96630859375	-0.13916015625	0.2451171875	-0.25	-0.9375	1.25
18	11	28	11	37	43	0.468213059066	-0.537733939561	0.299202244237	-0.96533203125	-0.1435546875	0.24267578125	-0.125	-1.25	0.875
18	11	28	11	37	43	0.468328494744	-0.53760424628	0.299014895836	-0.96728515625	-0.14111328125	0.2431640625	0.25	-1.625	0.5
18	11	28	11	37	43	0.468597637524	-0.537388771755	0.298908770478	-0.97216796875	-0.14404296875	0.24365234375	1.125	-1.8125	0.4375
18	11	28	11	37	43	0.468929503378	-0.537166283903	0.298886864251	-0.97216796875	-0.1455078125	0.23974609375	1.875	-1.8125	0.1875
18	11	28	11	37	43	0.469256792434	-0.536947450968	0.298961988728	-0.97216796875	-0.1396484375	0.23876953125	2.5625	-1.625	0.1875
18	11	28	11	37	43	0.469494325738	-0.536756773341	0.299079848689	-0.97509765625	-0.13232421875	0.2333984375	1.875	-1.5	0.0
18	11	28	11	37	43	0.469564097034	-0.536644682325	0.299146449963	-0.97216796875	-0.126953125	0.236328125	0.6875	-1.25	-0.125
18	11	28	11	37	43	0.46957546078	-0.53671870878	0.299092650179	-0.96875	-0.1357421875	0.2333984375	-0.125	-1.0	-0.5
18	11	28	11	37	43	0.469560076927	-0.53676216255	0.299082851546	-0.970703125	-0.134765625	0.23486328125	-0.4375	-0.8125	-0.75
18	11	28	11	37	43	0.469560076927	-0.53676216255	0.299082851546	-0.96826171875	-0.1337890625	0.2373046875	-0.1875	-0.4375	-0.875
18	11	28	11	37	43	0.469562861951	-0.536826383837	0.299084625446	-0.9716796875	-0.1337890625	0.232421875	0.0	0.0	-0.8125
18	11	28	11	37	43	0.469554289238	-0.536816583108	0.299140201684	-0.97314453125	-0.12939453125	0.232421875	-0.25	0.25	-0.75
18	11	28	11	37	43	0.469557070661	-0.536880799887	0.299141973653	-0.97314453125	-0.13134765625	0.2294921875	-0.5625	0.5	-0.6875
18	11	28	11	37	43	0.469557070661	-0.536880799887	0.299141973653	-0.97119140625	-0.13330078125	0.23681640625	-1.0	0.5	-0.1875
18	11	28	11	37	43	0.469559848634	-0.536945013445	0.299143743423	-0.97314453125	-0.138671875	0.232421875	-1.0	0.625	-0.0625
18	11	28	11	37	43	0.469553031492	-0.536998254396	0.299078364008	-0.97607421875	-0.13916015625	0.2333984375	-0.75	0.625	0.25
18	11	28	11	37	43	0.469375443625	-0.537248719738	0.299020845035	-0.9716796875	-0.13525390625	0.23583984375	-1.3125	0.5625	0.5
18	11	28	11	37	43	0.46914233703	-0.537566557666	0.298783728827	-0.97509765625	-0.140625	0.23828125	-2.125	0.25	0.4375
18	11	28	11	37	43	0.469011198877	-0.537800321877	0.29859484447	-0.97119140625	-0.14453125	0.2392578125	-1.5	0.1875	0.5625
18	11	28	11	37	43	0.469013943956	-0.537864507306	0.298596592118	-0.9677734375	-0.1474609375	0.2353515625	-1.0	-0.0625	0.75
18	11	28	11	37	43	0.469007092705	-0.537917687144	0.298531193444	-0.96533203125	-0.14453125	0.23583984375	-0.0625	-0.375	0.75
18	11	28	11	37	43	0.469007092705	-0.537917687144	0.298531193444	-0.9736328125	-0.1396484375	0.23974609375	0.75	-0.5	0.25
18	11	28	11	37	43	0.469072842657	-0.537923092041	0.29853419303	-0.97509765625	-0.14013671875	0.24560546875	-0.6875	-0.625	0.1875
18	11	28	11	37	43	0.46906247645	-0.538155348713	0.298161378979	-0.97509765625	-0.1455078125	0.232421875	-1.3125	-1.0	-0.5
18	11	28	11	37	43	0.469089153524	-0.538185955318	0.298117296787	-0.966796875	-0.14892578125	0.2421875	-0.1875	-0.8125	-0.5625
18	11	28	11	37	43	0.469235266769	-0.53826558502	0.297849649042	-0.970703125	-0.14599609375	0.23974609375	-0.375	-1.0625	-0.625
18	11	28	11	37	43	0.469261942006	-0.538296184515	0.29780554306	-0.96630859375	-0.142578125	0.2373046875	-0.5	-0.9375	-0.5
18	11	28	11	37	43	0.469368917716	-0.538400939294	0.297490780877	-0.96875	-0.14306640625	0.23681640625	-0.75	-1.125	-0.625
18	11	28	11	37	43	0.469374861318	-0.538590868175	0.29725039982	-0.97216796875	-0.14306640625	0.22705078125	-1.0	-1.3125	-0.625
18	11	28	11	37	43	0.469491368927	-0.538706555142	0.297002730265	-0.96337890625	-0.14208984375	0.23095703125	-0.4375	-1.25	-0.6875
18	11	28	11	37	44	0.469677784055	-0.538710347247	0.296821710703	-0.96533203125	-0.14208984375	0.23291015625	0.1875	-1.1875	-0.6875
18	11	28	11	37	44	0.469662340406	-0.538753668455	0.296811950799	-0.96826171875	-0.14111328125	0.23193359375	0.9375	-0.6875	-0.5625
18	11	28	11	37	44	0.469787980928	-0.538818798964	0.296875242202	-0.9716796875	-0.1416015625	0.23046875	1.0	-0.4375	-0.3125
18	11	28	11	37	44	0.469806134886	-0.538839620473	0.296886714316	-0.96875	-0.13525390625	0.23095703125	0.4375	-0.25	0.0625
18	11	28	11	37	44	0.469790683104	-0.538882933757	0.296876949801	-0.96826171875	-0.1396484375	0.22900390625	-0.0625	-0.25	0.1875
18	11	28	11	37	44	0.469808835626	-0.538903755976	0.296888421006	-0.966796875	-0.13427734375	0.23095703125	-0.9375	0.0625	0.125
18	11	28	11	37	44	0.469558296077	-0.539201610236	0.296762308011	-0.9677734375	-0.13671875	0.2275390625	-1.5	0.1875	0.1875
18	11	28	11	37	44	0.469381906851	-0.539514522062	0.296583444134	-0.9736328125	-0.146484375	0.23388671875	-1.625	0.25	0.375
18	11	28	11	37	44	0.469384582453	-0.539578635745	0.296585134738	-0.9716796875	-0.1435546875	0.22412109375	-0.75	0.625	0.625
18	11	28	11	37	44	0.469369123177	-0.539621900911	0.296575366647	-0.97216796875	-0.142578125	0.22900390625	-0.25	0.8125	0.8125
18	11	28	11	37	44	0.469369123177	-0.539621900911	0.296575366647	-0.97705078125	-0.14404296875	0.2412109375	-0.3125	0.8125	0.8125
18	11	28	11	37	44	0.469189592318	-0.539809126377	0.296638665105	-0.97314453125	-0.14013671875	0.234375	-0.75	0.6875	1.0625
18	11	28	11	37	44	0.46889554839	-0.540005065947	0.296584674515	-0.97802734375	-0.140625	0.2392578125	-1.4375	0.4375	1.0
18	11	28	11	37	44	0.468689719992	-0.54022303837	0.29644823154	-0.97119140625	-0.1484375	0.23876953125	-1.5625	0.1875	0.9375
18	11	28	11	37	44	0.468586328923	-0.540305612039	0.29627693638	-0.9765625	-0.14990234375	0.24169921875	-1.0625	-0.125	1.0625
18	11	28	11	37	44	0.468522076861	-0.540362942476	0.296152829199	-0.97265625	-0.15087890625	0.24169921875	-0.8125	-0.5625	1.0625
18	11	28	11	37	44	0.468519727433	-0.540360232799	0.295907196274	-0.97021484375	-0.15234375	0.24072265625	-0.625	-1.125	1.0625
18	11	28	11	37	44	0.468504274632	-0.540403445492	0.29589743661	-0.982421875	-0.15087890625	0.2373046875	0.1875	-1.0	0.4375
18	11	28	11	37	44	0.468512735216	-0.540413204482	0.295841744084	-0.9814453125	-0.1474609375	0.24609375	-0.625	-1.0	0.625
18	11	28	11	37	44	0.468640630718	-0.540419919819	0.29547919944	-0.974609375	-0.15478515625	0.24365234375	-1.125	-1.625	0.0
18	11	28	11	37	44	0.468747675785	-0.540341559079	0.295103517242	-0.9599609375	-0.1494140625	0.24169921875	-0.5625	-1.8125	0.125
18	11	28	11	37	44	0.468833572192	-0.540309176024	0.294691900344	-0.96435546875	-0.15087890625	0.2421875	-1.25	-2.0625	-0.25
18	11	28	11	37	44	0.4689502375	-0.540302941865	0.294139163674	-0.96240234375	-0.1474609375	0.23828125	-1.8125	-2.4375	-0.5
18	11	28	11	37	44	0.469003658456	-0.540355204101	0.293585059497	-0.96630859375	-0.15087890625	0.23486328125	-1.75	-2.625	-0.5625
18	11	28	11	37	44	0.469139519463	-0.540371085845	0.293166421023	-0.97021484375	-0.15234375	0.23388671875	-1.0	-2.375	-0.5625
18	11	28	11	37	44	0.469289335816	-0.540332746778	0.292962519432	-0.96728515625	-0.1513671875	0.23291015625	0.125	-2.125	-0.3125
18	11	28	11	37	44	0.469434938222	-0.540298800304	0.292855133739	-0.962890625	-0.14697265625	0.224609375	0.75	-1.9375	-0.125
18	11	28	11	37	44	0.469610023929	-0.540167495682	0.292972201048	-0.966796875	-0.14306640625	0.2275390625	1.5	-1.5	0.125
18	11	28	11	37	44	0.469617107713	-0.540114606987	0.293037657153	-0.96630859375	-0.13720703125	0.22705078125	0.4375	-1.3125	0.375
18	11	28	11	37	44	0.469505091766	-0.540187215565	0.292921858474	-0.96484375	-0.14306640625	0.23046875	-0.9375	-1.25	0.5625
18	11	28	11	37	44	0.469248746294	-0.540356289145	0.292792174294	-0.96533203125	-0.1416015625	0.22900390625	-1.5625	-1.0	0.75
18	11	28	11	37	44	0.469018889065	-0.540555866939	0.292617979461	-0.96875	-0.14697265625	0.22998046875	-1.5625	-0.6875	0.875
18	11	28	11	37	44	0.468770943938	-0.540673570495	0.292676650545	-0.96923828125	-0.1455078125	0.2294921875	-0.875	-0.375	1.4375
18	11	28	11	37	44	0.468530056625	-0.54073837567	0.292800766236	-0.96533203125	-0.14501953125	0.2314453125	-0.25	-0.0625	1.8125
18	11	28	11	37	44	0.468328404892	-0.540778009558	0.292972285088	-0.96826171875	-0.14697265625	0.23486328125	0.1875	0.1875	2.0
18	11	28	11	37	44	0.468097199049	-0.540853994102	0.293163495505	-0.96875	-0.1455078125	0.2333984375	0.0	0.0625	2.0
18	11	28	11	37	44	0.467913611274	-0.540914482534	0.293346310433	-0.97119140625	-0.150390625	0.23095703125	0.125	0.125	2.125
18	11	28	11	37	44	0.467711880506	-0.540953986289	0.293517738922	-0.96533203125	-0.1494140625	0.23681640625	0.0	0.3125	2.3125
18	11	28	11	37	44	0.467598397282	-0.540963920521	0.293523129164	-0.96630859375	-0.1591796875	0.244140625	-0.0625	0.1875	2.3125
18	11	28	11	37	44	0.467420448265	-0.540969892004	0.293648443014	-0.96875	-0.150390625	0.23974609375	0.125	0.0625	2.0625
18	11	28	11	37	44	0.467364366768	-0.540975627878	0.293712594082	-0.9658203125	-0.1552734375	0.23779296875	0.25	0.125	1.9375
18	11	28	11	37	44	0.467347606846	-0.540956228219	0.293824132083	-0.96240234375	-0.154296875	0.23974609375	0.8125	-0.125	1.6875
18	11	28	11	37	44	0.467477873976	-0.540904676743	0.293951356713	-0.9736328125	-0.1533203125	0.2392578125	1.6875	0.125	0.8125
18	11	28	11	37	44	0.467536600791	-0.540902004727	0.294133012952	-0.97607421875	-0.1484375	0.2373046875	1.0625	0.1875	0.875
18	11	28	11	37	44	0.46754765703	-0.540975833454	0.294078931015	-0.97314453125	-0.1552734375	0.24072265625	0.625	0.0625	0.375
18	11	28	11	37	44	0.467728236014	-0.540972903013	0.294199412448	-0.96728515625	-0.150390625	0.236328125	1.5625	0.0625	0.3125
18	11	28	11	37	44	0.46790172887	-0.54102281825	0.294254400585	-0.96435546875	-0.15478515625	0.23046875	1.5	-0.1875	0.3125
18	11	28	11	37	44	0.468135649597	-0.54094996902	0.294309009434	-0.966796875	-0.1484375	0.23583984375	1.5	-0.5	0.0
18	11	28	11	37	44	0.468337336273	-0.540849359666	0.294381724599	-0.96826171875	-0.1455078125	0.23486328125	1.75	-0.625	-0.0625
18	11	28	11	37	45	0.468508077693	-0.540835080307	0.294434987857	-0.966796875	-0.14111328125	0.23388671875	1.3125	-0.5	-0.1875
18	11	28	11	37	45	0.468712375253	-0.540798495213	0.294509338533	-0.97216796875	-0.14453125	0.234375	1.3125	-0.5	-0.3125
18	11	28	11	37	45	0.468884314178	-0.540785605782	0.294685429426	-0.96435546875	-0.14453125	0.22607421875	1.75	-0.3125	0.125
18	11	28	11	37	45	0.469136000197	-0.540672220888	0.294995353754	-0.962890625	-0.146484375	0.234375	2.9375	0.0	0.3125
18	11	28	11	37	45	0.469304948579	-0.540533830748	0.295413701538	-0.97216796875	-0.1396484375	0.22900390625	2.8125	0.1875	0.6875
18	11	28	11	37	45	0.469259734776	-0.540552056605	0.295667814159	-0.96875	-0.1357421875	0.23046875	1.125	0.25	0.625
18	11	28	11	37	45	0.469244251825	-0.540595257338	0.295658058772	-0.97021484375	-0.14111328125	0.2294921875	0.0625	0.1875	0.6875
18	11	28	11	37	45	0.469262369469	-0.540616129863	0.295669474208	-0.9697265625	-0.1435546875	0.234375	0.25	0.5	0.8125
18	11	28	11	37	45	0.469251852816	-0.540726087942	0.295906995636	-0.9697265625	-0.146484375	0.23193359375	1.125	0.8125	0.875
18	11	28	11	37	45	0.469252675346	-0.540665998728	0.296273736489	-0.97021484375	-0.14111328125	0.23486328125	1.625	0.8125	1.125
18	11	28	11	37	45	0.469318011841	-0.540609914277	0.296520601056	-0.97021484375	-0.1435546875	0.23876953125	1.6875	0.625	1.125
18	11	28	11	37	45	0.469311730534	-0.540602678806	0.296821816307	-0.9697265625	-0.14501953125	0.234375	1.4375	0.625	1.1875
18	11	28	11	37	45	0.46930431743	-0.540594139612	0.297000235221	-0.96923828125	-0.14501953125	0.23779296875	1.1875	0.5625	1.125
18	11	28	11	37	45	0.469233808931	-0.540644261123	0.297177343351	-0.970703125	-0.142578125	0.2333984375	0.5	0.375	1.125
18	11	28	11	37	45	0.469180309181	-0.54071397932	0.297243151517	-0.9716796875	-0.146484375	0.23388671875	0.375	0.375	1.0625
18	11	28	11	37	45	0.469190946118	-0.54072623802	0.297433001227	-0.97216796875	-0.14794921875	0.234375	1.1875	0.1875	1.125
18	11	28	11	37	45	0.469253516237	-0.540605930452	0.297678121578	-0.96923828125	-0.146484375	0.2314453125	1.75	0.0	1.375
18	11	28	11	37	45	0.469307513414	-0.540475748638	0.297978837363	-0.96826171875	-0.14599609375	0.232421875	1.9375	-0.3125	1.5625
18	11	28	11	37	45	0.469473714054	-0.540334216136	0.298151208158	-0.978515625	-0.14404296875	0.23486328125	1.9375	-0.5	0.875
18	11	28	11	37	45	0.469497133055	-0.540239095771	0.298349192196	-0.98046875	-0.140625	0.236328125	1.1875	-0.125	0.9375
18	11	28	11	37	45	0.469499744517	-0.540303138126	0.29835085169	-0.9736328125	-0.1484375	0.236328125	0.8125	-0.1875	0.75
18	11	28	11	37	45	0.469620914789	-0.540241060151	0.298533388905	-0.97119140625	-0.146484375	0.23095703125	1.8125	0.0	0.8125
18	11	28	11	37	45	0.469733487755	-0.540169096496	0.298771494615	-0.9765625	-0.14306640625	0.22802734375	1.6875	-0.125	0.8125
18	11	28	11	37	45	0.469797500008	-0.54011148208	0.298895460249	-0.9755859375	-0.14111328125	0.23388671875	1.0625	-0.5	0.6875
18	11	28	11	37	45	0.469806070125	-0.540121334876	0.298839875189	-0.9755859375	-0.142578125	0.240234375	0.3125	-0.375	0.375
18	11	28	11	37	45	0.469790581597	-0.540164563743	0.298830023061	-0.9736328125	-0.1435546875	0.23486328125	-0.0625	-0.4375	0.0625
18	11	28	11	37	45	0.469808676346	-0.540185369061	0.298841532986	-0.9736328125	-0.1376953125	0.232421875	0.0	-0.0625	-0.5
18	11	28	11	37	45	0.46979318581	-0.540228593946	0.29883167958	-0.97412109375	-0.14404296875	0.236328125	0.1875	0.0625	-0.625
18	11	28	11	37	45	0.46984931719	-0.540222954852	0.298767525025	-0.96826171875	-0.14111328125	0.23583984375	0.8125	0.1875	-1.0
18	11	28	11	37	45	0.470022204351	-0.540272244243	0.298822063693	-0.97265625	-0.1337890625	0.236328125	0.875	0.1875	-1.1875
18	11	28	11	37	45	0.470040300053	-0.540293044548	0.298833568245	-0.974609375	-0.13427734375	0.2314453125	-0.4375	-0.25	-1.0
18	11	28	11	37	45	0.469975331373	-0.540349559564	0.298586924815	-0.97314453125	-0.134765625	0.23779296875	-1.25	-0.8125	-0.375
18	11	28	11	37	45	0.469907725746	-0.540342004939	0.298338610657	-0.9716796875	-0.138671875	0.23828125	-1.1875	-1.375	0.25
18	11	28	11	37	45	0.469926566063	-0.540180557171	0.29828953479	-0.9716796875	-0.13916015625	0.2314453125	0.0	-1.8125	0.875
18	11	28	11	37	45	0.470051735155	-0.539817886731	0.298352536221	-0.96875	-0.14306640625	0.23681640625	1.5	-2.3125	1.4375
18	11	28	11	37	45	0.470283080315	-0.539253863022	0.298527520548	-0.9716796875	-0.138671875	0.240234375	2.5	-2.5625	1.9375
18	11	28	11	37	45	0.470401989357	-0.5387009158	0.298830691565	-0.970703125	-0.13720703125	0.2373046875	2.625	-2.625	2.5
18	11	28	11	37	45	0.470472175846	-0.53816206207	0.299019614617	-0.970703125	-0.1376953125	0.23828125	2.0625	-2.8125	2.6875
18	11	28	11	37	45	0.470536290084	-0.537677283611	0.299265719326	-0.96875	-0.140625	0.23583984375	2.0625	-2.875	2.75
18	11	28	11	37	45	0.47052497046	-0.537176062397	0.299441627329	-0.970703125	-0.138671875	0.23779296875	1.5625	-2.75	3.0
18	11	28	11	37	45	0.470479094078	-0.536827144838	0.299451276018	-0.9716796875	-0.1416015625	0.24072265625	0.9375	-2.6875	2.6875
18	11	28	11	37	45	0.470525375375	-0.536383058607	0.299441885016	-0.9658203125	-0.14306640625	0.24609375	0.9375	-2.75	2.5625
18	11	28	11	37	45	0.470536390006	-0.536029391235	0.299509931996	-0.962890625	-0.14453125	0.23583984375	1.0625	-2.625	2.5625
18	11	28	11	37	45	0.470660561719	-0.535665554357	0.2995723041	-0.9560546875	-0.142578125	0.23974609375	1.625	-2.5	2.4375
18	11	28	11	37	45	0.470833149725	-0.535287363636	0.299748716399	-0.97021484375	-0.14404296875	0.23876953125	2.375	-2.375	1.8125
18	11	28	11	37	45	0.470969602675	-0.534998518332	0.299879945301	-0.97021484375	-0.13720703125	0.2392578125	1.75	-1.75	1.4375
18	11	28	11	37	45	0.471020016967	-0.534864378474	0.299812145049	-0.9736328125	-0.138671875	0.24560546875	0.4375	-1.625	1.0625
18	11	28	11	37	45	0.471082887629	-0.534805423867	0.299813312261	-0.96728515625	-0.1376953125	0.23828125	0.5625	-1.3125	0.6875
18	11	28	11	37	45	0.471082887629	-0.534805423867	0.299813312261	-0.9697265625	-0.13671875	0.2294921875	0.375	-1.0625	0.75
18	11	28	11	37	45	0.471067510006	-0.53484900106	0.299803525414	-0.9736328125	-0.1376953125	0.23193359375	0.125	-1.1875	0.75
18	11	28	11	37	46	0.471070363417	-0.534913276106	0.299805341423	-0.96923828125	-0.13720703125	0.23876953125	0.375	-1.0	0.875
18	11	28	11	37	46	0.4710972154	-0.534943767267	0.299761392178	-0.966796875	-0.14111328125	0.23828125	0.6875	-0.875	0.9375
18	11	28	11	37	46	0.47113422007	-0.534855443771	0.299929208113	-0.9697265625	-0.1376953125	0.2333984375	1.25	-0.875	1.0625
18	11	28	11	37	46	0.471139095048	-0.534738905521	0.300115420437	-0.96533203125	-0.1376953125	0.23876953125	1.4375	-0.9375	1.4375
18	11	28	11	37	46	0.47136748258	-0.534537927287	0.30028849078	-0.96142578125	-0.14111328125	0.240234375	2.375	-0.875	1.1875
18	11	28	11	37	46	0.471523915829	-0.534271693884	0.300676609628	-0.96533203125	-0.1328125	0.23974609375	2.75	-0.75	1.375
18	11	28	11	37	46	0.471576162769	-0.534139658347	0.300854116786	-0.96923828125	-0.1318359375	0.2392578125	1.5625	-0.75	1.25
18	11	28	11	37	46	0.47157329027	-0.534075367572	0.300852284201	-0.9716796875	-0.1357421875	0.24609375	0.25	-0.6875	1.0625
18	11	28	11	37	46	0.471492208503	-0.534113697943	0.30083949459	-0.97216796875	-0.13818359375	0.2431640625	-0.125	-0.5	1.125
18	11	28	11	37	46	0.471520036935	-0.534145222424	0.300918288944	-0.97021484375	-0.14404296875	0.244140625	0.8125	-0.0625	1.1875
18	11	28	11	37	46	0.471613921918	-0.534052260486	0.30114444037	-0.96826171875	-0.14111328125	0.24267578125	1.875	0.0625	1.375
18	11	28	11	37	46	0.47163778457	-0.533957207121	0.301464865794	-0.96875	-0.13427734375	0.23974609375	1.9375	0.0	1.375
18	11	28	11	37	46	0.471684126986	-0.533879536588	0.301699616938	-0.97119140625	-0.1328125	0.24267578125	1.5	-0.125	1.3125
18	11	28	11	37	46	0.471697489253	-0.533772585858	0.301830238659	-0.96923828125	-0.134765625	0.2470703125	1.0	-0.3125	1.125
18	11	28	11	37	46	0.471761170999	-0.533714539942	0.301954006072	-0.9697265625	-0.13623046875	0.24169921875	1.0625	-0.5	1.0
18	11	28	11	37	46	0.471950472799	-0.533538422496	0.302080042665	-0.96826171875	-0.14013671875	0.248046875	2.0	-0.4375	1.0
18	11	28	11	37	46	0.472185117812	-0.533283528222	0.302318108651	-0.970703125	-0.1298828125	0.25146484375	2.4375	-0.4375	0.875
18	11	28	11	37	46	0.47236271118	-0.533033151148	0.302497686602	-0.970703125	-0.13232421875	0.25341796875	1.9375	-0.6875	0.875
18	11	28	11	37	46	0.472566424257	-0.532812234221	0.302510875564	-0.96728515625	-0.13720703125	0.25244140625	1.5625	-1.0	0.75
18	11	28	11	37	46	0.472775941781	-0.532590093981	0.302671817104	-0.970703125	-0.13232421875	0.248046875	2.125	-0.875	0.625
18	11	28	11	37	46	0.473027766848	-0.532354604187	0.302798806624	-0.962890625	-0.13525390625	0.2509765625	2.125	-0.875	0.6875
18	11	28	11	37	46	0.473345193821	-0.532124229495	0.302928716562	-0.9638671875	-0.13818359375	0.2470703125	2.625	-0.9375	0.5
18	11	28	11	37	46	0.473695292027	-0.531923008634	0.303162545483	-0.97900390625	-0.13232421875	0.2490234375	2.9375	-0.625	0.0625
18	11	28	11	37	46	0.473824417163	-0.531869891943	0.303289131635	-0.97705078125	-0.12890625	0.2431640625	1.25	-0.5	0.0625
18	11	28	11	37	46	0.473824417163	-0.531869891943	0.303289131635	-0.96533203125	-0.1279296875	0.244140625	0.625	-0.75	-0.3125
18	11	28	11	37	46	0.473817804874	-0.531923505021	0.303223863792	-0.96533203125	-0.1298828125	0.24755859375	0.1875	-0.75	-0.1875
18	11	28	11	37	46	0.473836109377	-0.53194405426	0.303235577919	-0.96533203125	-0.13037109375	0.24462890625	-0.125	-0.8125	-0.0625
18	11	28	11	37	46	0.473836109377	-0.53194405426	0.303235577919	-0.96337890625	-0.12890625	0.2451171875	0.3125	-0.6875	0.125
18	11	28	11	37	46	0.473820724414	-0.531987818368	0.303225732177	-0.96728515625	-0.1298828125	0.24072265625	0.625	-0.625	0.375
18	11	28	11	37	46	0.473887117335	-0.531993832392	0.303351233018	-0.970703125	-0.12841796875	0.23681640625	1.1875	-0.5	0.25
18	11	28	11	37	46	0.473944716078	-0.531989973643	0.303532140767	-0.9677734375	-0.12744140625	0.2353515625	1.0	-0.3125	0.5
18	11	28	11	37	46	0.473946178028	-0.531991614641	0.303777221899	-0.96630859375	-0.12548828125	0.2353515625	1.25	-0.0625	0.6875
18	11	28	11	37	46	0.473881983511	-0.531988069073	0.304019340529	-0.96875	-0.12451171875	0.24169921875	1.125	0.125	0.9375
18	11	28	11	37	46	0.473881983511	-0.531988069073	0.304019340529	-0.974609375	-0.125	0.24365234375	0.3125	0.3125	0.875
18	11	28	11	37	46	0.473653072867	-0.53212725377	0.304090155802	-0.9736328125	-0.125	0.24169921875	-0.625	0.375	1.125
18	11	28	11	37	46	0.473449490974	-0.532348389876	0.304077009673	-0.96826171875	-0.1328125	0.2412109375	-1.125	0.5	1.0
18	11	28	11	37	46	0.473476554283	-0.532378819963	0.304033352699	-0.96826171875	-0.13232421875	0.2431640625	-0.625	0.625	0.8125
18	11	28	11	37	46	0.473476554283	-0.532378819963	0.304033352699	-0.96826171875	-0.1337890625	0.24755859375	-0.375	0.625	0.75
18	11	28	11	37	46	0.473508520489	-0.532407169919	0.304014686847	-0.97216796875	-0.13671875	0.24755859375	-0.375	0.625	0.6875
18	11	28	11	37	46	0.473517306038	-0.532417048281	0.303959291579	-0.970703125	-0.13623046875	0.2509765625	-0.125	0.5625	0.4375
18	11	28	11	37	46	0.473520193795	-0.532481331615	0.303961145282	-0.97412109375	-0.13623046875	0.25	0.4375	0.5625	0.25
18	11	28	11	37	46	0.473528978229	-0.532491209857	0.303905746662	-0.974609375	-0.13330078125	0.24755859375	0.25	0.375	0.125
18	11	28	11	37	46	0.473576327261	-0.532475818924	0.30389696268	-0.9736328125	-0.138671875	0.2509765625	-0.1875	0.125	0.0
18	11	28	11	37	46	0.473587995515	-0.532549975624	0.303843413027	-0.9716796875	-0.13623046875	0.2490234375	-0.375	-0.3125	0.0
18	11	28	11	37	46	0.473587995515	-0.532549975624	0.303843413027	-0.9736328125	-0.1357421875	0.2470703125	-0.1875	-0.5	-0.1875
18	11	28	11	37	46	0.473644123718	-0.532544456113	0.303779227287	-0.97021484375	-0.13671875	0.25048828125	-0.1875	-0.8125	-0.3125
18	11	28	11	37	46	0.473896381768	-0.532553571732	0.303601314131	-0.97216796875	-0.1416015625	0.248046875	0.5625	-1.125	-0.4375
18	11	28	11	37	46	0.474136934173	-0.532488493013	0.303476935724	-0.96728515625	-0.13916015625	0.24560546875	0.875	-1.3125	-0.375
18	11	28	11	37	46	0.474511657944	-0.532314917537	0.303299257567	-0.96484375	-0.140625	0.2490234375	1.5	-1.5	-0.4375
18	11	28	11	37	46	0.474926250897	-0.53211760125	0.303413236501	-0.970703125	-0.12841796875	0.2412109375	2.5	-1.25	-1.0
18	11	28	11	37	47	0.475185687794	-0.532073685356	0.303422999874	-0.97607421875	-0.13232421875	0.2431640625	1.375	-1.0	-1.0
18	11	28	11	37	47	0.475412765958	-0.532115610941	0.303167955901	-0.97607421875	-0.13330078125	0.244140625	0.0	-1.25	-1.25
18	11	28	11	37	47	0.47539732516	-0.532159362957	0.303158109394	-0.9677734375	-0.134765625	0.2412109375	0.4375	-1.0	-0.9375
18	11	28	11	37	47	0.475521067161	-0.53222227001	0.302976072056	-0.96337890625	-0.13330078125	0.236328125	-0.1875	-1.25	-0.8125
18	11	28	11	37	47	0.475606344318	-0.532310437474	0.302747364967	-0.96142578125	-0.1318359375	0.2373046875	-0.5625	-1.1875	-0.75
18	11	28	11	37	47	0.475654927018	-0.532357535411	0.302495292994	-0.962890625	-0.12841796875	0.24560546875	-0.75	-1.1875	-0.75
18	11	28	11	37	47	0.475778593714	-0.532420355737	0.30231319752	-0.96484375	-0.13232421875	0.24267578125	-0.3125	-1.0625	-0.8125
18	11	28	11	37	47	0.475778593714	-0.532420355737	0.30231319752	-0.9658203125	-0.130859375	0.23876953125	0.25	-0.75	-0.6875
18	11	28	11	37	47	0.47578146871	-0.532484609753	0.302315024313	-0.96630859375	-0.1337890625	0.240234375	0.5	-0.625	-0.1875
18	11	28	11	37	47	0.475766005142	-0.53252833802	0.302305198649	-0.96875	-0.12939453125	0.23779296875	0.375	-0.5	0.125
18	11	28	11	37	47	0.475737118055	-0.532564325767	0.30232562814	-0.9697265625	-0.13232421875	0.23681640625	-0.5	-0.75	0.5
18	11	28	11	37	47	0.475601393641	-0.532671119392	0.302133842213	-0.9697265625	-0.1337890625	0.24462890625	-1.5625	-0.6875	0.625
18	11	28	11	37	47	0.475421266698	-0.532857575847	0.301952626313	-0.96533203125	-0.13818359375	0.2421875	-1.375	-0.4375	0.625
18	11	28	11	37	47	0.475421266698	-0.532857575847	0.301952626313	-0.9638671875	-0.13427734375	0.2392578125	-1.0	-0.25	0.5625
18	11	28	11	37	47	0.47547136857	-0.532906356738	0.301945681684	-0.96826171875	-0.14013671875	0.2451171875	-0.875	-0.25	0.75
18	11	28	11	37	47	0.475480130671	-0.532916177264	0.301890208767	-0.966796875	-0.1416015625	0.24462890625	-0.5	-0.375	0.6875
18	11	28	11	37	47	0.475464664248	-0.532959877819	0.301880388879	-0.96826171875	-0.1416015625	0.24609375	-0.1875	-0.375	0.5625
18	11	28	11	37	47	0.475491750744	-0.53299023973	0.301836547808	-0.96826171875	-0.1435546875	0.2470703125	-0.375	-0.5	0.375
18	11	28	11	37	47	0.475523517062	-0.533018466756	0.301817968408	-0.9697265625	-0.14111328125	0.2490234375	-0.8125	-0.75	0.4375
18	11	28	11	37	47	0.475541842915	-0.533039008365	0.30182959995	-0.97021484375	-0.14501953125	0.24560546875	-0.375	-0.4375	0.25
18	11	28	11	37	47	0.475535130246	-0.533092520545	0.301764302905	-0.97265625	-0.14208984375	0.2451171875	0.1875	-0.3125	0.125
18	11	28	11	37	47	0.475535130246	-0.533092520545	0.301764302905	-0.97021484375	-0.13623046875	0.2451171875	0.1875	-0.125	-0.0625
18	11	28	11	37	47	0.475537980748	-0.533156752899	0.301766111772	-0.96533203125	-0.1435546875	0.23876953125	0.125	-0.1875	-0.0625
18	11	28	11	37	47	0.475593971458	-0.533151096083	0.301701873834	-0.96533203125	-0.142578125	0.24560546875	-0.0625	-0.25	-0.375
18	11	28	11	37	47	0.475596818742	-0.533215324504	0.301703680062	-0.9638671875	-0.14208984375	0.2412109375	-0.25	-0.3125	-0.5
18	11	28	11	37	47	0.475581340016	-0.533259005098	0.301693860845	-0.96337890625	-0.14208984375	0.244140625	-0.25	-0.375	-0.625
18	11	28	11	37	47	0.475720143077	-0.533460873812	0.301582400172	-0.9775390625	-0.1376953125	0.240234375	0.1875	0.0	-1.125
18	11	28	11	37	47	0.475720143077	-0.533460873812	0.301582400172	-0.974609375	-0.14208984375	0.2451171875	-0.0625	0.3125	-0.8125
