18	12	03	11	43	04	0.762539763565	-0.170477352088	0.622214868309	-0.91650390625	-0.3212890625	0.208984375	1.8125	-8.6875	2.625
18	12	03	11	43	04	0.763150265127	-0.170050119063	0.621726673645	-0.92822265625	-0.26220703125	0.17822265625	9.375	-1.25	-2.875
18	12	03	11	43	04	0.76314529817	-0.169377605568	0.622088848992	-0.953125	-0.2333984375	0.16845703125	12.0625	3.5	-5.5
18	12	03	11	43	04	0.76289611963	-0.168766122952	0.622695112607	-0.970703125	-0.1982421875	0.15869140625	9.5	4.8125	-6.4375
18	12	03	11	43	04	0.762762123048	-0.168580377999	0.62299055693	-1.0087890625	-0.17041015625	0.15966796875	4.6875	1.8125	-7.3125
18	12	03	11	43	04	0.763576898043	-0.167425374207	0.62239757229	-1.01904296875	-0.17236328125	0.1552734375	10.5625	-6.0625	-6.25
18	12	03	11	43	04	0.764676723622	-0.16626591596	0.621421912771	-1.01025390625	-0.173828125	0.1357421875	9.6875	-10.25	-4.5
18	12	03	11	43	04	0.766071669571	-0.165836724263	0.619827727232	-1.02294921875	-0.1767578125	0.1484375	3.5625	-14.625	-4.3125
18	12	03	11	43	05	0.767705889449	-0.165894785142	0.617741398244	-1.013671875	-0.17919921875	0.14697265625	-1.3125	-18.75	-1.9375
18	12	03	11	43	05	0.769560391938	-0.166815399046	0.615074561355	-1.00634765625	-0.220703125	0.15283203125	-8.25	-22.75	1.0625
18	12	03	11	43	05	0.771636273856	-0.167914205773	0.612023170222	-0.99853515625	-0.22119140625	0.16943359375	-10.5	-24.9375	2.875
18	12	03	11	43	05	0.773678027736	-0.169018892213	0.608931913585	-0.982421875	-0.197265625	0.16748046875	-13.3125	-25.6875	3.8125
18	12	03	11	43	05	0.775306654429	-0.171028912432	0.606047848514	-0.96728515625	-0.21435546875	0.173828125	-18.4375	-23.625	4.3125
18	12	03	11	43	05	0.77657332996	-0.173283949049	0.603533528778	-0.96923828125	-0.22216796875	0.18701171875	-19.4375	-19.5625	3.3125
18	12	03	11	43	05	0.777539771343	-0.175417952966	0.601450420505	-0.962890625	-0.21875	0.18212890625	-16.9375	-17.0	1.9375
18	12	03	11	43	05	0.778593793563	-0.176825511128	0.599509896549	-0.955078125	-0.22314453125	0.19189453125	-11.5625	-15.375	1.8125
18	12	03	11	43	05	0.779472575279	-0.177685565124	0.598002570087	-0.95703125	-0.224609375	0.18701171875	-6.5	-12.9375	1.3125
18	12	03	11	43	05	0.779964909129	-0.178296877412	0.597090056433	-0.95947265625	-0.21630859375	0.17919921875	-5.0625	-9.625	1.0
18	12	03	11	43	05	0.78012300695	-0.179023611563	0.596582604642	-0.96826171875	-0.21533203125	0.17822265625	-5.5625	-6.875	1.0
18	12	03	11	43	05	0.779989905042	-0.179997670394	0.596391060503	-0.97021484375	-0.22900390625	0.17138671875	-5.8125	-4.75	0.625
18	12	03	11	43	05	0.779826495183	-0.180734678478	0.596345089068	-0.97314453125	-0.23046875	0.17822265625	-3.9375	-3.125	0.3125
18	12	03	11	43	05	0.779593686755	-0.181225622923	0.596475846146	-0.97705078125	-0.2265625	0.1767578125	-2.4375	-2.0625	0.375
18	12	03	11	43	05	0.779190488192	-0.181705317511	0.596813770448	-0.98095703125	-0.22412109375	0.17626953125	-2.8125	-1.0	0.875
18	12	03	11	43	05	0.778823850622	-0.18219351051	0.597118630927	-0.9794921875	-0.2294921875	0.1904296875	-2.8125	0.125	0.875
18	12	03	11	43	05	0.778454443876	-0.182497944738	0.597482401686	-0.97607421875	-0.2275390625	0.185546875	-1.4375	0.1875	1.0625
18	12	03	11	43	05	0.778143497475	-0.182557628124	0.597844188389	-0.97216796875	-0.220703125	0.1962890625	-0.8125	0.5	1.75
18	12	03	11	43	05	0.777852057683	-0.182682925977	0.598159931364	-0.9638671875	-0.22216796875	0.20166015625	-1.4375	0.9375	1.6875
18	12	03	11	43	05	0.777496256272	-0.182868486716	0.598534172476	-0.96240234375	-0.21728515625	0.20947265625	-1.8125	1.9375	1.4375
18	12	03	11	43	05	0.777202103487	-0.182871083173	0.598908901234	-0.9638671875	-0.2177734375	0.21728515625	-0.5	2.75	1.125
18	12	03	11	43	05	0.776874611901	-0.182560650864	0.5994410405	-0.96630859375	-0.21533203125	0.220703125	1.625	3.5	1.25
18	12	03	11	43	05	0.776640120437	-0.181830471454	0.599997829605	-0.96630859375	-0.20947265625	0.22509765625	4.1875	4.1875	1.5625
18	12	03	11	43	05	0.776355200393	-0.180919633145	0.600684922327	-0.9619140625	-0.2001953125	0.22802734375	5.0	4.9375	1.5
18	12	03	11	43	05	0.775970736818	-0.180121894466	0.601464299583	-0.9677734375	-0.20361328125	0.22509765625	4.5625	5.8125	1.4375
18	12	03	11	43	05	0.775465208901	-0.179385458399	0.602366481436	-0.96923828125	-0.203125	0.2275390625	3.9375	6.5	1.5625
18	12	03	11	43	05	0.774969663902	-0.178590315553	0.60327637694	-0.9677734375	-0.19921875	0.220703125	4.125	6.5625	1.875
18	12	03	11	43	05	0.774510190612	-0.177925542252	0.60409231275	-0.96337890625	-0.2109375	0.212890625	3.9375	5.625	2.3125
18	12	03	11	43	05	0.774219880608	-0.1771964927	0.604714313874	-0.9638671875	-0.2197265625	0.21484375	4.4375	4.4375	2.5
18	12	03	11	43	05	0.774025656284	-0.176278376733	0.605254980499	-0.9716796875	-0.212890625	0.21630859375	4.8125	3.4375	3.375
18	12	03	11	43	05	0.773833183327	-0.1757879451	0.605613885863	-0.97509765625	-0.21044921875	0.22021484375	1.0625	2.5	3.875
18	12	03	11	43	05	0.773668874192	-0.175853256532	0.605750683036	-0.97607421875	-0.22021484375	0.2294921875	-2.3125	2.1875	3.625
18	12	03	11	43	05	0.773488471986	-0.176220108793	0.605813848206	-0.96923828125	-0.22802734375	0.22509765625	-3.9375	1.625	3.1875
18	12	03	11	43	05	0.773355323551	-0.176644854487	0.605805176499	-0.96630859375	-0.23779296875	0.2236328125	-3.4375	1.3125	3.375
18	12	03	11	43	05	0.773277827813	-0.177068354131	0.605731246604	-0.9677734375	-0.2353515625	0.22119140625	-3.625	0.6875	2.8125
18	12	03	11	43	05	0.773141928232	-0.177736582854	0.605659379004	-0.9697265625	-0.23095703125	0.21630859375	-4.625	0.5	1.875
18	12	03	11	43	05	0.77302858377	-0.178471028736	0.60554414367	-0.97265625	-0.2353515625	0.2138671875	-4.5625	0.375	1.25
18	12	03	11	43	05	0.772956558599	-0.179139884672	0.605413463735	-0.97216796875	-0.23583984375	0.21142578125	-3.625	0.0625	0.8125
18	12	03	11	43	05	0.772898533204	-0.179750942137	0.605293749805	-0.97265625	-0.23388671875	0.20458984375	-2.8125	-0.375	0.375
18	12	03	11	43	05	0.77280663671	-0.180185229569	0.60525634702	-0.97216796875	-0.21875	0.2021484375	-2.8125	-0.25	0.25
18	12	03	11	43	05	0.772736128045	-0.180793397415	0.605126854142	-0.97802734375	-0.2119140625	0.19677734375	-3.9375	-0.875	-0.1875
18	12	03	11	43	05	0.772662051828	-0.181583822118	0.604933533113	-0.9765625	-0.21435546875	0.19580078125	-4.8125	-1.6875	-0.3125
18	12	03	11	43	05	0.77275337034	-0.18214028887	0.604591005784	-0.9794921875	-0.20458984375	0.2021484375	-4.5	-2.625	-0.125
18	12	03	11	43	05	0.772971790388	-0.18268355722	0.604082581291	-0.9716796875	-0.2080078125	0.201171875	-4.375	-3.8125	0.25
18	12	03	11	43	05	0.773279600988	-0.183172474747	0.603474261186	-0.97314453125	-0.2099609375	0.203125	-4.375	-4.625	0.1875
18	12	03	11	43	05	0.773624620072	-0.183716773682	0.60278633119	-0.970703125	-0.20556640625	0.1982421875	-4.5625	-5.4375	0.4375
18	12	03	11	43	05	0.774002494965	-0.184207832963	0.602062976921	-0.97900390625	-0.2060546875	0.20263671875	-4.9375	-5.8125	0.8125
18	12	03	11	43	05	0.774390216559	-0.184579176706	0.601347238397	-0.974609375	-0.20068359375	0.20263671875	-4.6875	-5.9375	1.125
18	12	03	11	43	05	0.774754799802	-0.184945012479	0.600674543831	-0.9755859375	-0.2080078125	0.203125	-4.0	-5.9375	1.25
18	12	03	11	43	05	0.775222845928	-0.185184325214	0.599926411513	-0.966796875	-0.21044921875	0.2041015625	-2.75	-5.9375	1.4375
18	12	03	11	43	05	0.775650598931	-0.185184444221	0.599316433027	-0.966796875	-0.21435546875	0.19970703125	-1.125	-5.875	1.6875
18	12	03	11	43	06	0.77605140187	-0.185009579917	0.598793790494	-0.96923828125	-0.203125	0.2001953125	-0.625	-5.5	2.0
18	12	03	11	43	06	0.77638155053	-0.18506201739	0.598277669677	-0.96630859375	-0.21044921875	0.20458984375	-1.8125	-4.875	2.0
18	12	03	11	43	06	0.776555411962	-0.185303955884	0.597904331964	-0.9697265625	-0.21240234375	0.20166015625	-2.9375	-4.125	1.875
18	12	03	11	43	06	0.776650089923	-0.185617174116	0.597625041688	-0.9765625	-0.2216796875	0.19873046875	-2.625	-3.6875	1.6875
18	12	03	11	43	06	0.776687801104	-0.185916781309	0.597423984063	-0.9775390625	-0.22021484375	0.1982421875	-2.4375	-3.0	1.8125
18	12	03	11	43	06	0.776574808355	-0.186346214722	0.597369932356	-0.9833984375	-0.216796875	0.19921875	-3.5	-1.8125	1.75
18	12	03	11	43	06	0.776340333299	-0.187080990767	0.597377375737	-0.9814453125	-0.22900390625	0.2001953125	-4.8125	-1.125	1.3125
18	12	03	11	43	06	0.77615936973	-0.187875003148	0.597317992464	-0.97314453125	-0.240234375	0.20458984375	-4.25	-0.5625	1.1875
18	12	03	11	43	06	0.775976413252	-0.188363345496	0.597379151773	-0.97021484375	-0.23095703125	0.19580078125	-2.375	-0.75	0.6875
18	12	03	11	43	06	0.775982931114	-0.188731158893	0.597262092421	-0.95947265625	-0.236328125	0.20263671875	-0.75	-1.25	0.3125
18	12	03	11	43	06	0.776019203881	-0.188908245714	0.597181995499	-0.9599609375	-0.22705078125	0.2021484375	0.1875	-1.1875	-0.0625
18	12	03	11	43	06	0.776052421087	-0.189099449467	0.597085479242	-0.96240234375	-0.2138671875	0.20556640625	-0.3125	-1.125	-0.5625
18	12	03	11	43	06	0.776086463983	-0.189459094314	0.59694263608	-0.95751953125	-0.21826171875	0.21240234375	-0.9375	-0.8125	-1.1875
18	12	03	11	43	06	0.776157805331	-0.189644723275	0.596828485414	-0.96044921875	-0.21826171875	0.2177734375	0.3125	-0.375	-1.5625
18	12	03	11	43	06	0.776264515696	-0.189457859468	0.596816671998	-0.9619140625	-0.21484375	0.2216796875	2.75	0.4375	-1.5625
18	12	03	11	43	06	0.77627477511	-0.189094138488	0.597007672225	-0.96044921875	-0.21435546875	0.2197265625	4.375	1.5	-1.5625
18	12	03	11	43	06	0.776224898929	-0.188608550577	0.597321448527	-0.9619140625	-0.2119140625	0.22119140625	4.625	2.5625	-1.375
18	12	03	11	43	06	0.776025166704	-0.188177252552	0.597796954751	-0.962890625	-0.20751953125	0.2216796875	4.25	3.625	-1.0625
18	12	03	11	43	06	0.775735590567	-0.187814809362	0.598358328297	-0.96337890625	-0.21044921875	0.21826171875	3.4375	4.125	-0.625
18	12	03	11	43	06	0.775473640393	-0.187566351588	0.598832891452	-0.96533203125	-0.21484375	0.22509765625	2.5	4.3125	-0.375
18	12	03	11	43	06	0.775106593204	-0.187444078095	0.599381584792	-0.97265625	-0.21484375	0.2236328125	1.375	4.375	-0.125
18	12	03	11	43	06	0.774752093768	-0.187385876299	0.599878955137	-0.9794921875	-0.21240234375	0.2265625	0.4375	4.5	0.25
18	12	03	11	43	06	0.774437955047	-0.18738371075	0.600299281833	-0.9814453125	-0.22216796875	0.2314453125	0.0625	4.25	0.6875
18	12	03	11	43	06	0.774138040501	-0.187262911634	0.600730631129	-0.9833984375	-0.22216796875	0.224609375	0.6875	3.6875	1.125
18	12	03	11	43	06	0.773961319325	-0.187020306184	0.601040781655	-0.96728515625	-0.21923828125	0.22314453125	1.125	2.5625	1.5
18	12	03	11	43	06	0.773952893889	-0.186835158375	0.601095275948	-0.9541015625	-0.2099609375	0.22265625	0.0	1.1875	1.5625
18	12	03	11	43	06	0.773944859416	-0.187077365466	0.600966962603	-0.947265625	-0.20654296875	0.22314453125	-3.1875	0.0	1.5
18	12	03	11	43	06	0.773902384718	-0.187692233852	0.600737224576	-0.9580078125	-0.2109375	0.22216796875	-5.625	-0.5625	1.6875
18	12	03	11	43	06	0.773845602031	-0.188303650597	0.600496374253	-0.96533203125	-0.2119140625	0.21875	-6.5	-0.9375	2.25
18	12	03	11	43	06	0.773896489896	-0.188789482077	0.600183309815	-0.9599609375	-0.2197265625	0.2197265625	-4.875	-1.5625	2.4375
18	12	03	11	43	06	0.773960930053	-0.189034463752	0.599941796648	-0.97216796875	-0.2158203125	0.22265625	-3.6875	-1.5625	2.125
18	12	03	11	43	06	0.773919308753	-0.189405443257	0.599773730405	-0.9814453125	-0.20361328125	0.2255859375	-5.0	-0.375	2.125
18	12	03	11	43	06	0.773717720946	-0.190011302091	0.599759413539	-0.97998046875	-0.220703125	0.21142578125	-5.125	-0.25	1.375
18	12	03	11	43	06	0.773737963301	-0.190504590049	0.599530946319	-0.97607421875	-0.23193359375	0.21533203125	-3.3125	-0.9375	1.375
18	12	03	11	43	06	0.773820413514	-0.190555870878	0.599378171692	-0.97705078125	-0.2197265625	0.203125	-0.6875	-1.8125	1.125
18	12	03	11	43	06	0.774065304857	-0.190495017857	0.599073566249	-0.96826171875	-0.21142578125	0.19921875	0.3125	-3.1875	0.5
18	12	03	11	43	06	0.77444383512	-0.190437008636	0.598594789645	-0.97216796875	-0.21533203125	0.1982421875	0.8125	-4.5	0.0625
18	12	03	11	43	06	0.774954434383	-0.190198331564	0.598001622058	-0.9736328125	-0.208984375	0.2080078125	1.0	-5.1875	0.25
18	12	03	11	43	06	0.775484876068	-0.190071617794	0.59731562355	-0.97509765625	-0.2080078125	0.2177734375	-0.125	-5.5625	0.6875
18	12	03	11	43	06	0.775957946145	-0.190067886753	0.596632496151	-0.97314453125	-0.2001953125	0.22412109375	-2.0	-4.9375	0.9375
18	12	03	11	43	06	0.776306880524	-0.190322759355	0.595994683239	-0.970703125	-0.20068359375	0.22607421875	-4.0	-4.3125	1.3125
18	12	03	11	43	06	0.77645109259	-0.190984629252	0.595476523803	-0.966796875	-0.2099609375	0.216796875	-5.8125	-3.625	1.3125
18	12	03	11	43	06	0.776502978005	-0.191775849465	0.595042252207	-0.96923828125	-0.21044921875	0.21484375	-6.75	-3.4375	0.875
18	12	03	11	43	06	0.776512757304	-0.192632782743	0.594622487161	-0.97314453125	-0.212890625	0.20947265625	-7.0	-3.4375	1.0
18	12	03	11	43	06	0.776594103486	-0.193431322326	0.5941497291	-0.96923828125	-0.21826171875	0.21044921875	-6.125	-3.8125	1.0
18	12	03	11	43	06	0.776804472328	-0.193911197343	0.593635601309	-0.966796875	-0.22412109375	0.20947265625	-3.625	-4.25	1.3125
18	12	03	11	43	06	0.777134770585	-0.193978503057	0.593105448144	-0.96484375	-0.21337890625	0.21240234375	-1.9375	-4.75	1.8125
18	12	03	11	43	06	0.777357932721	-0.194156374371	0.592662180176	-0.958984375	-0.20703125	0.2099609375	-2.625	-4.625	1.9375
18	12	03	11	43	06	0.777573089392	-0.194530609616	0.592137258827	-0.95947265625	-0.21044921875	0.2119140625	-4.5625	-4.375	2.0
18	12	03	11	43	07	0.777605823518	-0.195133894646	0.591749486578	-0.96484375	-0.20849609375	0.2099609375	-6.0	-3.8125	2.4375
18	12	03	11	43	07	0.77752331362	-0.195632141635	0.591535439809	-0.98046875	-0.21142578125	0.2138671875	-5.9375	-2.875	3.0
18	12	03	11	43	07	0.777390223569	-0.195812487218	0.591527061606	-0.982421875	-0.21142578125	0.2060546875	-3.6875	-2.3125	3.5
18	12	03	11	43	07	0.777311222183	-0.195502775395	0.591635467344	-0.96826171875	-0.21728515625	0.19775390625	-0.25	-1.9375	5.0
18	12	03	11	43	07	0.77728207926	-0.19470198923	0.591857426194	-0.94921875	-0.212890625	0.189453125	2.4375	-2.1875	6.375
18	12	03	11	43	07	0.777303141238	-0.193547566617	0.592117610769	-0.94189453125	-0.19873046875	0.193359375	3.5625	-2.125	7.1875
18	12	03	11	43	07	0.777231227367	-0.192751391238	0.592353468007	-0.943359375	-0.1962890625	0.193359375	1.375	-1.6875	6.6875
18	12	03	11	43	07	0.776970371305	-0.1925792695	0.592631419201	-0.9453125	-0.20703125	0.19921875	-1.625	-0.4375	5.625
18	12	03	11	43	07	0.776685561543	-0.192630226501	0.59290558309	-0.9580078125	-0.22412109375	0.21435546875	-1.6875	1.0625	4.5625
18	12	03	11	43	07	0.776255649113	-0.192751638614	0.593391839965	-0.96533203125	-0.2333984375	0.220703125	-1.0625	3.1875	4.1875
18	12	03	11	43	07	0.775741735071	-0.192638359893	0.594090353879	-0.9814453125	-0.2314453125	0.22998046875	0.6875	5.0625	4.125
18	12	03	11	43	07	0.775135191231	-0.192273080745	0.595008886063	-0.99267578125	-0.228515625	0.23388671875	2.0	6.375	4.1875
18	12	03	11	43	07	0.774512213381	-0.191903727549	0.595975825633	-0.994140625	-0.22509765625	0.228515625	2.6875	6.8125	3.625
18	12	03	11	43	07	0.774024799808	-0.19135460511	0.596831045858	-0.9873046875	-0.2177734375	0.22802734375	3.5	5.875	3.0
18	12	03	11	43	07	0.773781386652	-0.190927520505	0.597319921888	-0.9765625	-0.21875	0.2255859375	2.9375	3.75	2.75
18	12	03	11	43	07	0.773645358382	-0.190557854743	0.597614335615	-0.97119140625	-0.2119140625	0.22509765625	1.75	2.0	3.1875
18	12	03	11	43	07	0.773646919118	-0.190375127474	0.59761554123	-0.97509765625	-0.208984375	0.23095703125	-0.25	0.6875	3.4375
18	12	03	11	43	07	0.773599476771	-0.190378473098	0.597565005332	-0.98046875	-0.2021484375	0.234375	-2.6875	0.0625	3.6875
18	12	03	11	43	07	0.77353088786	-0.190620765627	0.597437097008	-0.9765625	-0.2021484375	0.23291015625	-4.375	-0.1875	4.25
18	12	03	11	43	07	0.773401810703	-0.190924225703	0.597309614043	-0.97265625	-0.19287109375	0.24462890625	-6.25	0.5	4.75
18	12	03	11	43	07	0.773102003746	-0.191596967453	0.597252732248	-0.9775390625	-0.18896484375	0.240234375	-8.75	1.375	4.6875
18	12	03	11	43	07	0.772592914409	-0.192629423122	0.597297697931	-0.986328125	-0.18896484375	0.24267578125	-11.375	2.125	4.375
18	12	03	11	43	07	0.771942409054	-0.194038500702	0.597374899772	-0.994140625	-0.19287109375	0.24072265625	-13.5625	2.6875	4.375
18	12	03	11	43	07	0.771197554617	-0.195683368429	0.597487365425	-0.99365234375	-0.19921875	0.22265625	-14.625	2.3125	3.75
18	12	03	11	43	07	0.770576849558	-0.197389745067	0.597418313146	-0.98486328125	-0.2001953125	0.2177734375	-14.5	0.875	3.5
18	12	03	11	43	07	0.770027164565	-0.199098653362	0.597234924324	-0.9775390625	-0.19921875	0.2060546875	-14.5	-0.375	3.1875
18	12	03	11	43	07	0.769585707832	-0.200758835109	0.596905031479	-0.9775390625	-0.1875	0.20849609375	-14.625	-1.3125	3.125
18	12	03	11	43	07	0.769057607417	-0.20239643065	0.596630008929	-0.982421875	-0.17236328125	0.20654296875	-15.75	-1.375	3.3125
18	12	03	11	43	07	0.768423285186	-0.204115296343	0.596414641318	-0.98388671875	-0.1669921875	0.20556640625	-17.3125	-0.875	3.5
18	12	03	11	43	07	0.767748363524	-0.206067616096	0.596167774411	-0.9755859375	-0.1787109375	0.20361328125	-17.6875	-0.5	3.6875
18	12	03	11	43	07	0.766992556369	-0.207892459573	0.596088596649	-0.9658203125	-0.18017578125	0.18603515625	-16.125	-0.4375	3.5
18	12	03	11	43	07	0.766447572464	-0.209358538946	0.595908867561	-0.9599609375	-0.1787109375	0.19482421875	-14.0625	-0.875	3.25
18	12	03	11	43	07	0.76597056333	-0.21070446925	0.595734536465	-0.958984375	-0.177734375	0.189453125	-11.75	-0.9375	2.375
18	12	03	11	43	07	0.765621051194	-0.211729865002	0.595577982904	-0.9560546875	-0.18212890625	0.18994140625	-9.0625	-0.875	2.0
18	12	03	11	43	07	0.76536289992	-0.212414298726	0.595492499531	-0.95703125	-0.18896484375	0.1953125	-6.125	-0.3125	1.9375
18	12	03	11	43	07	0.765175774473	-0.212718376997	0.595550417321	-0.95849609375	-0.1943359375	0.19140625	-2.4375	0.25	1.6875
18	12	03	11	43	07	0.764992869141	-0.212657396959	0.595794733558	-0.96826171875	-0.19189453125	0.189453125	0.0625	0.625	1.375
18	12	03	11	43	07	0.764700239143	-0.212721929551	0.596109717072	-0.97900390625	-0.18798828125	0.18798828125	-0.6875	1.25	1.4375
18	12	03	11	43	07	0.764277642655	-0.213133487314	0.596431969655	-0.9912109375	-0.189453125	0.18896484375	-3.0625	1.75	0.8125
18	12	03	11	43	07	0.763881976509	-0.21369163402	0.596700775258	-0.9931640625	-0.19970703125	0.18359375	-3.1875	1.4375	0.5625
18	12	03	11	43	07	0.76363129528	-0.2140560269	0.596878781596	-0.98876953125	-0.2060546875	0.17578125	-1.1875	0.25	0.625
18	12	03	11	43	07	0.763642623927	-0.214059202471	0.59688763643	-0.9833984375	-0.2060546875	0.18603515625	0.625	-1.0625	0.875
18	12	03	11	43	07	0.763725808627	-0.213882291674	0.59684390639	-0.98388671875	-0.19970703125	0.18408203125	1.25	-1.6875	1.0
18	12	03	11	43	07	0.763818766547	-0.213752063325	0.596760115113	-0.9814453125	-0.19091796875	0.18505859375	0.6875	-1.75	1.25
18	12	03	11	43	07	0.76393383955	-0.213628031194	0.596632572835	-0.97265625	-0.19677734375	0.1904296875	0.5	-1.9375	1.3125
18	12	03	11	43	07	0.764185158782	-0.213324850634	0.596394024477	-0.95849609375	-0.18798828125	0.201171875	1.0625	-1.9375	1.625
18	12	03	11	43	07	0.764439733797	-0.21290049437	0.596219045012	-0.9521484375	-0.1884765625	0.201171875	2.1875	-1.625	1.8125
18	12	03	11	43	07	0.764586300742	-0.212418994618	0.596177103572	-0.95556640625	-0.17822265625	0.2060546875	1.4375	-0.5625	1.9375
18	12	03	11	43	07	0.764544115633	-0.212285201514	0.596205246807	-0.9580078125	-0.17041015625	0.2109375	-1.0625	0.5625	1.5
18	12	03	11	43	07	0.764417189837	-0.212405926272	0.596262498205	-0.9677734375	-0.17919921875	0.21337890625	-1.8125	1.4375	1.0
18	12	03	11	43	08	0.764316511681	-0.212411871957	0.596401264625	-0.97314453125	-0.18701171875	0.21337890625	0.0625	1.5625	0.625
18	12	03	11	43	08	0.764376017473	-0.211862106256	0.596583182526	-0.984375	-0.1875	0.21484375	3.4375	1.5625	1.0
18	12	03	11	43	08	0.764481021349	-0.210941829124	0.596875042537	-0.98974609375	-0.18359375	0.20849609375	6.0	1.1875	1.25
18	12	03	11	43	08	0.764541688909	-0.209965145285	0.597240972854	-0.98828125	-0.17724609375	0.19921875	6.25	0.875	1.3125
18	12	03	11	43	08	0.764633164553	-0.209179999595	0.597447865781	-0.98291015625	-0.18115234375	0.197265625	4.875	0.125	1.875
18	12	03	11	43	08	0.764753462804	-0.208569126219	0.597507514358	-0.98046875	-0.1806640625	0.20068359375	2.625	-0.625	2.3125
18	12	03	11	43	08	0.764695488286	-0.208386845227	0.597570947503	-0.98193359375	-0.185546875	0.19921875	-0.375	-0.5625	2.75
18	12	03	11	43	08	0.764545037053	-0.208684295201	0.597548771575	-0.98095703125	-0.1923828125	0.19921875	-3.125	-0.25	2.625
18	12	03	11	43	08	0.764385638834	-0.209240115781	0.597445231407	-0.9775390625	-0.19873046875	0.19921875	-4.0	-0.3125	2.0625
18	12	03	11	43	08	0.764312359978	-0.20960299027	0.597374626027	-0.97705078125	-0.2080078125	0.1923828125	-2.25	-0.6875	1.5625
18	12	03	11	43	08	0.764351762775	-0.209719129354	0.597296682146	-0.98291015625	-0.20751953125	0.19189453125	0.25	-1.0	1.25
18	12	03	11	43	08	0.76438439574	-0.209667044587	0.59732218292	-0.98388671875	-0.2021484375	0.1865234375	1.6875	-1.0	0.75
18	12	03	11	43	08	0.764461910901	-0.209488444444	0.597335057496	-0.9892578125	-0.19140625	0.19189453125	2.125	-0.625	0.3125
18	12	03	11	43	08	0.764491939508	-0.209418909737	0.597371865227	-0.9814453125	-0.1875	0.18896484375	1.5	-0.5625	0.0
18	12	03	11	43	08	0.764524429033	-0.209366769787	0.59739725245	-0.9814453125	-0.1904296875	0.18505859375	1.375	-0.9375	-0.375
18	12	03	11	43	08	0.764485679346	-0.209356158096	0.597489047115	-0.98779296875	-0.18408203125	0.18310546875	1.0	-0.75	-0.5
18	12	03	11	43	08	0.764481572444	-0.209416069865	0.597485837337	-0.986328125	-0.18408203125	0.18896484375	-0.6875	-0.375	-0.3125
18	12	03	11	43	08	0.764360826514	-0.209782652777	0.597486874611	-0.98388671875	-0.18603515625	0.1962890625	-1.9375	0.0625	-0.375
18	12	03	11	43	08	0.764301942576	-0.210027390545	0.597488557409	-0.97412109375	-0.19140625	0.1982421875	-1.0625	0.25	-0.25
18	12	03	11	43	08	0.76429214346	-0.210085733732	0.597480897007	-0.97265625	-0.19140625	0.19580078125	0.0	0.1875	-0.3125
18	12	03	11	43	08	0.764320015624	-0.210093395127	0.597441647734	-0.97021484375	-0.1875	0.203125	0.625	-0.0625	-0.5625
18	12	03	11	43	08	0.764315875253	-0.210153294881	0.597438411354	-0.9755859375	-0.1865234375	0.19921875	0.375	0.0	-0.875
18	12	03	11	43	08	0.764315875253	-0.210153294881	0.597438411354	-0.97607421875	-0.19140625	0.20556640625	0.0625	0.0	-0.6875
18	12	03	11	43	08	0.764315875253	-0.210153294881	0.597438411354	-0.970703125	-0.18896484375	0.20263671875	0.5	0.0	-0.5
18	12	03	11	43	08	0.764571067493	-0.210034252215	0.597202883949	-0.97265625	-0.1875	0.2138671875	1.5	-0.5	-0.375
18	12	03	11	43	08	0.764749196079	-0.209849767429	0.597076912446	-0.96826171875	-0.18408203125	0.20751953125	1.5625	-0.6875	0.0
18	12	03	11	43	08	0.764749196079	-0.209849767429	0.597076912446	-0.96875	-0.18310546875	0.20654296875	-0.125	-0.75	0.125
18	12	03	11	43	08	0.764801983996	-0.210091654343	0.59688735846	-0.97509765625	-0.1845703125	0.208984375	-1.8125	-0.625	0.1875
18	12	03	11	43	08	0.764867042442	-0.210397948711	0.596646344256	-0.9765625	-0.1904296875	0.21142578125	-2.4375	-0.6875	0.4375
18	12	03	11	43	08	0.764935106817	-0.210582997009	0.59646870921	-0.97900390625	-0.19580078125	0.20556640625	-1.1875	-0.875	0.625
18	12	03	11	43	08	0.765035765658	-0.210577101605	0.59632993701	-0.974609375	-0.19384765625	0.19677734375	0.3125	-1.1875	1.0625
18	12	03	11	43	08	0.765081715963	-0.21051191371	0.59625714266	-0.97119140625	-0.18212890625	0.1982421875	-0.25	-1.25	1.125
18	12	03	11	43	08	0.765157954789	-0.210577133378	0.596085879585	-0.97900390625	-0.18359375	0.20361328125	-1.375	-1.375	0.75
18	12	03	11	43	08	0.765216866361	-0.210881731936	0.595840077325	-0.9794921875	-0.1923828125	0.1982421875	-2.0	-1.625	0.6875
18	12	03	11	43	08	0.765301034455	-0.211071221658	0.59561393318	-0.98046875	-0.1884765625	0.19970703125	-1.6875	-2.0	0.875
18	12	03	11	43	08	0.765449642156	-0.211122742382	0.595342939924	-0.97998046875	-0.189453125	0.20263671875	-1.1875	-2.1875	1.0625
18	12	03	11	43	08	0.765572831704	-0.211184086558	0.595099665879	-0.9794921875	-0.18701171875	0.20068359375	-1.25	-2.125	1.0625
18	12	03	11	43	08	0.76565088623	-0.21137189246	0.594868744994	-0.97900390625	-0.18896484375	0.19775390625	-1.4375	-2.1875	0.9375
18	12	03	11	43	08	0.765712565307	-0.211555181455	0.594686131828	-0.97412109375	-0.19287109375	0.19189453125	-1.5	-2.0	0.875
18	12	03	11	43	08	0.765774164605	-0.21173844867	0.594503456341	-0.97900390625	-0.19091796875	0.19482421875	-1.25	-1.875	0.6875
18	12	03	11	43	08	0.765804647161	-0.211929996409	0.594344002025	-0.98095703125	-0.18994140625	0.19677734375	-1.3125	-1.6875	0.625
18	12	03	11	43	08	0.765848221224	-0.21204724002	0.594208371213	-0.97900390625	-0.1875	0.19970703125	-0.8125	-1.5	0.8125
18	12	03	11	43	08	0.765854464333	-0.212110007457	0.594152176283	-0.97900390625	-0.189453125	0.1962890625	-0.75	-1.1875	0.875
18	12	03	11	43	08	0.765856587253	-0.212232673458	0.59409278423	-0.978515625	-0.197265625	0.19482421875	-0.25	-1.125	0.8125
18	12	03	11	43	08	0.765909593441	-0.212230447593	0.594025515091	-0.97900390625	-0.19189453125	0.1982421875	0.125	-1.0625	0.75
18	12	03	11	43	08	0.765837123532	-0.212410392117	0.594016648299	-0.9775390625	-0.1884765625	0.1982421875	-1.25	-0.4375	0.8125
18	12	03	11	43	08	0.765666774953	-0.212780164022	0.594026550849	-0.97900390625	-0.1904296875	0.2060546875	-2.8125	0.3125	0.8125
18	12	03	11	43	08	0.765458226982	-0.213139313342	0.594128887763	-0.9775390625	-0.19873046875	0.201171875	-2.0	0.75	1.0625
18	12	03	11	43	08	0.765369951826	-0.213209764872	0.59421616405	-0.97509765625	-0.19970703125	0.2001953125	-0.1875	0.4375	1.1875
18	12	03	11	43	08	0.765348035379	-0.213203659588	0.594260186016	-0.97509765625	-0.19580078125	0.19775390625	0.3125	0.0	1.0
18	12	03	11	43	09	0.765294986954	-0.213205885263	0.594327427658	-0.974609375	-0.18408203125	0.20068359375	-0.875	-0.375	0.75
18	12	03	11	43	09	0.765247867816	-0.213575998204	0.594216159622	-0.9814453125	-0.1943359375	0.203125	-2.1875	-0.25	0.5
18	12	03	11	43	09	0.765208144496	-0.213870091594	0.594124278418	-0.978515625	-0.19580078125	0.20849609375	-1.8125	-0.125	0.4375
18	12	03	11	43	09	0.765204011014	-0.213929971971	0.594121069093	-0.97802734375	-0.1953125	0.20556640625	-0.1875	-0.1875	0.3125
18	12	03	11	43	09	0.765231759361	-0.213937729645	0.594081575645	-0.97607421875	-0.19140625	0.208984375	0.8125	-0.25	0.25
18	12	03	11	43	09	0.765231759361	-0.213937729645	0.594081575645	-0.97705078125	-0.18505859375	0.205078125	0.375	-0.25	0.0
18	12	03	11	43	09	0.765231759361	-0.213937729645	0.594081575645	-0.9765625	-0.1904296875	0.20703125	-0.75	-0.25	-0.1875
18	12	03	11	43	09	0.765203651832	-0.214235049687	0.593998718962	-0.97705078125	-0.18994140625	0.20703125	-1.375	-0.25	-0.125
18	12	03	11	43	09	0.765231394438	-0.21424281682	0.593959216661	-0.97216796875	-0.19140625	0.205078125	-0.9375	-0.25	-0.0625
18	12	03	11	43	09	0.765237251802	-0.214244456714	0.593963763044	-0.97119140625	-0.18896484375	0.2021484375	0.1875	-0.4375	0.125
18	12	03	11	43	09	0.765237251802	-0.214244456714	0.593963763044	-0.97216796875	-0.1875	0.20654296875	0.6875	-0.75	0.0625
18	12	03	11	43	09	0.765227243475	-0.214302692178	0.593955994756	-0.97412109375	-0.18359375	0.2001953125	-0.0625	-0.5625	0.0
18	12	03	11	43	09	0.765227243475	-0.214302692178	0.593955994756	-0.97412109375	-0.18505859375	0.20361328125	-1.0	-0.375	-0.0625
18	12	03	11	43	09	0.765227243475	-0.214302692178	0.593955994756	-0.97607421875	-0.18896484375	0.2080078125	-0.875	-0.375	0.125
18	12	03	11	43	09	0.765233097892	-0.214304331714	0.593960538852	-0.97705078125	-0.19384765625	0.20654296875	-0.0625	-0.6875	0.5625
18	12	03	11	43	09	0.765223086877	-0.214362565296	0.593952768477	-0.9755859375	-0.19091796875	0.20556640625	0.3125	-0.75	0.8125
18	12	03	11	43	09	0.765223086877	-0.214362565296	0.593952768477	-0.9755859375	-0.185546875	0.19873046875	-0.375	-0.8125	0.8125
18	12	03	11	43	09	0.765240963864	-0.214489650396	0.593844567076	-0.974609375	-0.19482421875	0.20361328125	-1.0625	-0.875	0.875
18	12	03	11	43	09	0.76534712865	-0.214546228344	0.593649108641	-0.97314453125	-0.18798828125	0.20751953125	-0.8125	-1.0625	1.0
18	12	03	11	43	09	0.765416123417	-0.214548458837	0.593533204474	-0.97314453125	-0.19482421875	0.205078125	-0.375	-1.125	1.0
18	12	03	11	43	09	0.765475068109	-0.214608909933	0.593409505793	-0.97314453125	-0.19384765625	0.20263671875	-0.4375	-0.9375	1.125
18	12	03	11	43	09	0.765447378012	-0.214662182319	0.593388039951	-0.97265625	-0.19287109375	0.20263671875	-0.75	-0.5625	1.125
18	12	03	11	43	09	0.765481001481	-0.214732649965	0.593292028897	-0.9716796875	-0.19580078125	0.20703125	-0.4375	-0.5	1.0625
18	12	03	11	43	09	0.765476863364	-0.214792527085	0.593288821617	-0.9814453125	-0.19580078125	0.2041015625	0.25	-0.6875	0.875
18	12	03	11	43	09	0.765476863364	-0.214792527085	0.593288821617	-0.9814453125	-0.18701171875	0.205078125	-0.5625	-0.5625	0.6875
18	12	03	11	43	09	0.765352496361	-0.215097072907	0.593287045588	-0.9814453125	-0.18994140625	0.20849609375	-2.25	0.1875	0.5625
18	12	03	11	43	09	0.765298740607	-0.215404311342	0.593231652573	-0.97802734375	-0.20361328125	0.2080078125	-1.5625	0.125	0.625
18	12	03	11	43	09	0.765334088363	-0.21533604464	0.593211739756	-0.98046875	-0.19970703125	0.20947265625	0.6875	0.0625	1.0625
18	12	03	11	43	09	0.765352496361	-0.215097072907	0.593287045588	-0.974609375	-0.1845703125	0.20166015625	1.25	-0.125	0.875
18	12	03	11	43	09	0.765352496361	-0.215097072907	0.593287045588	-0.97265625	-0.18310546875	0.2060546875	-0.125	-0.1875	0.5
18	12	03	11	43	09	0.765296979962	-0.215342777581	0.593230287785	-0.9716796875	-0.1875	0.20556640625	-1.875	-0.0625	0.375
18	12	03	11	43	09	0.765152239413	-0.215763653982	0.593212716565	-0.97216796875	-0.19482421875	0.20458984375	-2.5	0.25	0.6875
18	12	03	11	43	09	0.765132708225	-0.215836398587	0.59318385788	-0.97607421875	-0.197265625	0.208984375	-0.625	0.25	1.0
18	12	03	11	43	09	0.765138756763	-0.215637781401	0.593263298958	-0.97412109375	-0.19287109375	0.203125	1.25	-0.0625	1.4375
18	12	03	11	43	09	0.765071183928	-0.215347944543	0.593427640829	-0.9765625	-0.1787109375	0.1962890625	0.875	0.0625	1.4375
18	12	03	11	43	09	0.764931319299	-0.215403975886	0.593535919954	-0.97119140625	-0.18017578125	0.19970703125	-1.1875	0.3125	1.1875
18	12	03	11	43	09	0.764788914391	-0.215642397011	0.593581180563	-0.97314453125	-0.18994140625	0.2041015625	-1.75	0.4375	0.9375
18	12	03	11	43	09	0.764744083225	-0.215524890882	0.593654797146	-0.97802734375	-0.18701171875	0.205078125	0.125	0.375	1.25
18	12	03	11	43	09	0.764754923052	-0.215161713126	0.593785289445	-0.97314453125	-0.1875	0.20166015625	2.0	0.1875	1.5625
18	12	03	11	43	09	0.764737922009	-0.214790705367	0.593955201458	-0.97119140625	-0.1787109375	0.1982421875	1.875	0.25	1.5
18	12	03	11	43	09	0.764685295966	-0.214548915655	0.594083811114	-0.97412109375	-0.1767578125	0.20751953125	0.5	0.5625	1.125
18	12	03	11	43	09	0.764675280681	-0.21460714295	0.594076030242	-0.98046875	-0.189453125	0.20458984375	-0.375	0.8125	0.875
18	12	03	11	43	09	0.764561410982	-0.214487370125	0.594265519505	-0.98388671875	-0.189453125	0.2021484375	0.5	0.75	1.125
18	12	03	11	43	09	0.764600954963	-0.214298232049	0.594309850601	-0.9794921875	-0.189453125	0.212890625	1.375	0.6875	1.0625
18	12	03	11	43	09	0.764556061603	-0.214119644268	0.59444447421	-0.98193359375	-0.189453125	0.20263671875	1.3125	0.375	1.0
18	12	03	11	43	09	0.764562007738	-0.214121309528	0.594449097346	-0.9833984375	-0.19384765625	0.205078125	0.75	0.125	0.875
18	12	03	11	43	09	0.764605109478	-0.214177323314	0.594374116396	-0.97705078125	-0.19970703125	0.2080078125	0.25	-0.1875	0.5625
18	12	03	11	43	09	0.764601056084	-0.214237224144	0.594370965446	-0.97705078125	-0.19873046875	0.2119140625	0.5	-0.0625	0.5625
18	12	03	11	43	09	0.764677891654	-0.214241650679	0.594322208735	-0.9765625	-0.20263671875	0.2041015625	1.25	-0.25	0.25
18	12	03	11	43	10	0.764821831874	-0.214125697224	0.594217121572	-0.9775390625	-0.1953125	0.21142578125	1.3125	-0.25	0.3125
18	12	03	11	43	10	0.764817757028	-0.214185595324	0.59421395568	-0.97900390625	-0.19189453125	0.2060546875	0.8125	0.0	0.1875
18	12	03	11	43	10	0.764817757028	-0.214185595324	0.59421395568	-0.9736328125	-0.19384765625	0.2001953125	0.625	-0.0625	0.375
18	12	03	11	43	10	0.764896165604	-0.214112332344	0.594180032888	-0.9794921875	-0.19189453125	0.2041015625	1.125	-0.375	0.3125
18	12	03	11	43	10	0.764870838159	-0.214122328646	0.59420777348	-0.9765625	-0.181640625	0.19970703125	0.0	-0.3125	0.625
18	12	03	11	43	10	0.764750563702	-0.214366986968	0.594209173728	-0.98046875	-0.18408203125	0.2060546875	-2.25	0.375	0.625
18	12	03	11	43	10	0.764621995993	-0.21473139474	0.594204129559	-0.97509765625	-0.19482421875	0.20263671875	-2.125	0.5	0.8125
18	12	03	11	43	10	0.764552951153	-0.214790183228	0.594258943991	-0.9755859375	-0.19140625	0.20068359375	-0.375	0.375	1.0
18	12	03	11	43	10	0.764552951153	-0.214790183228	0.594258943991	-0.97509765625	-0.18408203125	0.20166015625	0.1875	0.0	0.625
18	12	03	11	43	10	0.764558885822	-0.214791850488	0.594263556791	-0.97216796875	-0.189453125	0.2021484375	-0.5	-0.125	0.4375
18	12	03	11	43	10	0.764446136235	-0.215099663374	0.594270806642	-0.978515625	-0.19140625	0.1962890625	-1.3125	-0.1875	0.3125
18	12	03	11	43	10	0.764414176912	-0.215212742558	0.594245961866	-0.97802734375	-0.1884765625	0.201171875	-1.125	-0.375	0.5
18	12	03	11	43	10	0.76440413456	-0.215270950383	0.594238155069	-0.97412109375	-0.18798828125	0.19873046875	-0.375	-0.5	0.75
18	12	03	11	43	10	0.76440413456	-0.215270950383	0.594238155069	-0.9775390625	-0.18701171875	0.205078125	0.0	-0.6875	0.9375
18	12	03	11	43	10	0.764431859132	-0.215278758157	0.594198670445	-0.9794921875	-0.18505859375	0.20556640625	-0.8125	-0.4375	0.75
18	12	03	11	43	10	0.76432306684	-0.215526653012	0.594208996621	-0.9755859375	-0.1884765625	0.19873046875	-2.0	-0.25	0.6875
18	12	03	11	43	10	0.764257227748	-0.215830489363	0.594144226092	-0.9755859375	-0.1962890625	0.201171875	-1.75	-0.3125	0.8125
18	12	03	11	43	10	0.764246909166	-0.215949649759	0.594075167072	-0.96826171875	-0.1953125	0.2001953125	-1.0	-0.25	1.1875
18	12	03	11	43	10	0.764155742451	-0.216063205134	0.594112779315	-0.97119140625	-0.19091796875	0.19970703125	-0.8125	0.0	1.3125
18	12	03	11	43	10	0.764013730292	-0.216196902828	0.5942057733	-0.97216796875	-0.1875	0.19873046875	-1.25	0.375	1.1875
18	12	03	11	43	10	0.763845468508	-0.216445263811	0.594278366741	-0.9755859375	-0.19287109375	0.19970703125	-1.875	0.8125	1.0625
18	12	03	11	43	10	0.763627670902	-0.216679580505	0.594434488604	-0.97998046875	-0.19091796875	0.197265625	-1.6875	0.8125	0.8125
18	12	03	11	43	10	0.763661376192	-0.216689144392	0.594399686784	-0.97998046875	-0.1884765625	0.203125	-1.0	0.5625	0.875
18	12	03	11	43	10	0.76352696028	-0.216746681266	0.594512158696	-0.97998046875	-0.189453125	0.19775390625	-0.5625	0.25	1.125
18	12	03	11	43	10	0.763461780634	-0.216745505519	0.594569971631	-0.98095703125	-0.1865234375	0.1962890625	-0.5625	-0.1875	1.125
18	12	03	11	43	10	0.76339613102	-0.21680523366	0.594566379808	-0.9853515625	-0.18310546875	0.19921875	-1.125	-0.4375	1.0
18	12	03	11	43	10	0.76339709659	-0.216988620643	0.594445056664	-0.978515625	-0.18505859375	0.20166015625	-1.6875	-0.4375	0.75
18	12	03	11	43	10	0.763346783482	-0.217235822998	0.594392369866	-0.978515625	-0.18896484375	0.2001953125	-1.4375	-0.375	0.5625
18	12	03	11	43	10	0.763346783482	-0.217235822998	0.594392369866	-0.9775390625	-0.19091796875	0.2021484375	-0.5	-0.4375	0.4375
18	12	03	11	43	10	0.763346783482	-0.217235822998	0.594392369866	-0.98046875	-0.1875	0.19970703125	-0.3125	-0.25	0.1875
18	12	03	11	43	10	0.763346783482	-0.217235822998	0.594392369866	-0.98291015625	-0.1826171875	0.2001953125	-0.75	0.4375	0.0
18	12	03	11	43	10	0.763342699538	-0.217295698893	0.594389189837	-0.9775390625	-0.19091796875	0.19921875	-0.75	0.5625	-0.1875
18	12	03	11	43	10	0.763342699538	-0.217295698893	0.594389189837	-0.9833984375	-0.1923828125	0.18798828125	0.1875	0.5625	-0.25
18	12	03	11	43	10	0.763279404937	-0.217356094441	0.594448470587	-0.986328125	-0.18994140625	0.19189453125	-0.0625	0.5625	-0.25
18	12	03	11	43	10	0.763086757256	-0.217719601914	0.594563118096	-0.9853515625	-0.18896484375	0.19580078125	-1.9375	1.1875	-0.4375
18	12	03	11	43	10	0.762812463307	-0.218277776169	0.594709276627	-0.98193359375	-0.20166015625	0.1962890625	-2.25	1.5	-0.3125
18	12	03	11	43	10	0.762607986207	-0.218576852778	0.594875735039	-0.9814453125	-0.1962890625	0.19970703125	-1.1875	1.6875	-0.0625
18	12	03	11	43	10	0.76243710962	-0.218885555608	0.595007360866	-0.9755859375	-0.19140625	0.19873046875	-0.625	1.5	-0.5625
18	12	03	11	43	10	0.762408921997	-0.219060573297	0.595046399852	-0.97900390625	-0.19580078125	0.20068359375	0.1875	1.0	-1.1875
18	12	03	11	43	10	0.762404586263	-0.219242436463	0.595104052203	-0.9833984375	-0.2041015625	0.19287109375	1.375	0.5625	-1.8125
18	12	03	11	43	10	0.762565173731	-0.219192470893	0.595073071216	-0.98876953125	-0.19970703125	0.20068359375	2.9375	0.1875	-2.125
18	12	03	11	43	10	0.762844350708	-0.218940845415	0.594991737134	-0.98193359375	-0.19921875	0.2001953125	4.75	-0.4375	-2.5
18	12	03	11	43	10	0.763267200085	-0.218573358137	0.594805187111	-0.96826171875	-0.19677734375	0.2001953125	5.5625	-1.25	-3.0625
18	12	03	11	43	10	0.76373193428	-0.218261439861	0.59454269734	-0.96533203125	-0.19189453125	0.19921875	5.3125	-1.5625	-3.625
18	12	03	11	43	10	0.764287636249	-0.217897050105	0.594242487344	-0.9638671875	-0.2021484375	0.2060546875	6.75	-1.375	-4.5625
18	12	03	11	43	10	0.765158090192	-0.216802930469	0.593949694932	-0.96728515625	-0.21142578125	0.20751953125	12.8125	-1.9375	-4.8125
18	12	03	11	43	10	0.766129522421	-0.215031413917	0.593823623617	-0.9658203125	-0.208984375	0.2021484375	17.375	-2.25	-4.0
18	12	03	11	43	10	0.767121245342	-0.21326556582	0.593652230442	-0.9580078125	-0.20166015625	0.19775390625	17.25	-2.6875	-4.1875
18	12	03	11	43	10	0.767879361782	-0.211912975448	0.593502814877	-0.9658203125	-0.18701171875	0.201171875	12.8125	-2.5	-4.25
18	12	03	11	43	10	0.768381987093	-0.211367608333	0.593269752525	-0.96142578125	-0.185546875	0.19580078125	6.8125	-2.4375	-4.3125
18	12	03	11	43	10	0.768762654575	-0.211371581802	0.592914682536	-0.96923828125	-0.1943359375	0.205078125	2.625	-2.3125	-4.0
18	12	03	11	43	11	0.769079415839	-0.211374763258	0.592618416539	-0.9697265625	-0.19677734375	0.20068359375	2.4375	-2.3125	-2.9375
18	12	03	11	43	11	0.769447098977	-0.211008933933	0.592375384386	-0.97216796875	-0.19384765625	0.2001953125	3.6875	-2.6875	-1.875
18	12	03	11	43	11	0.769813140105	-0.210520577246	0.592131087231	-0.9697265625	-0.1796875	0.20068359375	3.5	-3.125	-1.25
18	12	03	11	43	11	0.770038379725	-0.210393333459	0.591872397606	-0.96826171875	-0.17822265625	0.19873046875	0.375	-2.8125	-0.875
18	12	03	11	43	11	0.770118525957	-0.210581668745	0.591642931925	-0.97314453125	-0.1796875	0.2001953125	-2.0625	-2.5625	-0.625
18	12	03	11	43	11	0.770170726444	-0.21076236475	0.591453030531	-0.98193359375	-0.1923828125	0.20068359375	-1.6875	-2.4375	0.125
18	12	03	11	43	11	0.770335138541	-0.210513104574	0.591316601077	-0.9775390625	-0.1982421875	0.20654296875	1.0625	-2.1875	1.125
18	12	03	11	43	11	0.770470250404	-0.209784223294	0.591387646056	-0.9765625	-0.1865234375	0.197265625	3.375	-1.875	2.0
18	12	03	11	43	11	0.770556863115	-0.208997678969	0.591529353648	-0.97265625	-0.1826171875	0.20068359375	3.125	-1.25	2.6875
18	12	03	11	43	11	0.770467507751	-0.208501703753	0.591751761677	-0.96630859375	-0.18310546875	0.203125	1.125	-0.4375	3.25
18	12	03	11	43	11	0.770346164549	-0.20819671716	0.591935433309	-0.966796875	-0.1923828125	0.205078125	0.0	-0.125	3.5
18	12	03	11	43	11	0.770194395175	-0.207899992865	0.592142639689	-0.96875	-0.1962890625	0.20361328125	-0.0625	0.0	4.0625
18	12	03	11	43	11	0.769970498855	-0.207583802347	0.592416461505	-0.97314453125	-0.1904296875	0.20654296875	-0.9375	0.5	4.625
18	12	03	11	43	11	0.769676882463	-0.207403810199	0.592730547629	-0.97900390625	-0.1982421875	0.205078125	-1.5	0.625	4.8125
18	12	03	11	43	11	0.769521526025	-0.207228173305	0.592874005099	-0.97314453125	-0.20703125	0.2138671875	-0.6875	0.4375	5.125
18	12	03	11	43	11	0.769312616422	-0.20691604012	0.59315931501	-0.9794921875	-0.2001953125	0.201171875	-0.1875	0.3125	4.9375
18	12	03	11	43	11	0.769121526242	-0.206669747469	0.593397308002	-0.97802734375	-0.20068359375	0.20458984375	-0.5	0.25	4.3125
18	12	03	11	43	11	0.76902903041	-0.206738735296	0.593420131252	-0.9765625	-0.20703125	0.212890625	-0.9375	0.0	3.25
18	12	03	11	43	11	0.769012547402	-0.2069784545	0.593346374577	-0.97607421875	-0.21728515625	0.21142578125	-1.0	-0.5	1.8125
18	12	03	11	43	11	0.769061115722	-0.20703613528	0.593275717842	-0.97607421875	-0.2255859375	0.22314453125	0.25	-0.625	0.75
18	12	03	11	43	11	0.76934099671	-0.206923673346	0.593059118061	-0.9736328125	-0.220703125	0.2255859375	3.0625	-0.6875	0.3125
18	12	03	11	43	11	0.769643736384	-0.20649573798	0.592935145946	-0.9736328125	-0.2119140625	0.2255859375	4.6875	-0.375	0.1875
18	12	03	11	43	11	0.769814569836	-0.206126213316	0.592925684379	-0.97216796875	-0.19970703125	0.22021484375	3.25	0.1875	0.1875
18	12	03	11	43	11	0.769819994857	-0.206127665924	0.592929862832	-0.97509765625	-0.19140625	0.212890625	0.5625	0.8125	0.0
18	12	03	11	43	11	0.769623026486	-0.206368106317	0.59310230378	-0.97119140625	-0.18896484375	0.21044921875	-1.0	1.375	-0.0625
18	12	03	11	43	11	0.76933316577	-0.206677411877	0.593358275504	-0.97314453125	-0.18896484375	0.20556640625	-1.4375	1.625	0.0625
18	12	03	11	43	11	0.769019525261	-0.206919294439	0.593656949178	-0.9794921875	-0.18408203125	0.20947265625	-1.6875	1.875	0.0625
18	12	03	11	43	11	0.768769380883	-0.207161832371	0.593896472885	-0.9765625	-0.1845703125	0.20458984375	-1.25	1.875	-0.125
18	12	03	11	43	11	0.768480270172	-0.20728824444	0.594214092941	-0.98095703125	-0.18505859375	0.20751953125	-0.75	1.8125	0.375
18	12	03	11	43	11	0.768217292894	-0.207222128506	0.59456575958	-0.9833984375	-0.1806640625	0.20556640625	-0.125	1.8125	0.5625
18	12	03	11	43	11	0.767986340448	-0.207103612553	0.594881169449	-0.9833984375	-0.17626953125	0.203125	0.0625	1.625	0.8125
18	12	03	11	43	11	0.767740102694	-0.207042012111	0.595184746491	-0.97998046875	-0.1767578125	0.203125	-0.4375	1.375	1.0
18	12	03	11	43	11	0.767584523102	-0.207032975697	0.595341876458	-0.97900390625	-0.18017578125	0.20849609375	-0.8125	0.8125	1.25
18	12	03	11	43	11	0.767431680156	-0.207041140467	0.59548743113	-0.97998046875	-0.18310546875	0.201171875	-1.1875	0.25	1.3125
18	12	03	11	43	11	0.767428017574	-0.20710119014	0.595423551375	-0.978515625	-0.18701171875	0.20849609375	-0.875	-0.5	1.25
18	12	03	11	43	11	0.767530245471	-0.207156871024	0.595225046031	-0.97607421875	-0.1904296875	0.212890625	-1.0625	-1.125	0.9375
18	12	03	11	43	11	0.767667019233	-0.207282913041	0.594992295737	-0.9755859375	-0.19873046875	0.20947265625	-0.625	-1.25	0.625
18	12	03	11	43	11	0.767786825653	-0.207404375035	0.594807426345	-0.97705078125	-0.20068359375	0.2119140625	0.0	-1.125	0.25
18	12	03	11	43	11	0.767782586546	-0.207464266768	0.594804142292	-0.9775390625	-0.19677734375	0.20556640625	0.8125	-0.75	0.25
18	12	03	11	43	11	0.767782586546	-0.207464266768	0.594804142292	-0.96923828125	-0.20263671875	0.20361328125	0.9375	-0.4375	0.1875
18	12	03	11	43	11	0.767853157956	-0.207527880529	0.59475049055	-0.970703125	-0.20263671875	0.20263671875	1.1875	-0.4375	-0.0625
18	12	03	11	43	11	0.767825283323	-0.207520346844	0.594789935293	-0.97607421875	-0.1904296875	0.19921875	0.9375	-0.5625	-0.5
18	12	03	11	43	11	0.76780022993	-0.207530072483	0.59481781069	-0.97607421875	-0.18505859375	0.20458984375	-0.875	0.1875	-0.625
18	12	03	11	43	11	0.767654089545	-0.207950821585	0.594860201694	-0.97607421875	-0.19482421875	0.20556640625	-2.0	0.8125	-0.375
18	12	03	11	43	11	0.767499337839	-0.208141620966	0.595004258411	-0.97119140625	-0.19677734375	0.20654296875	-0.4375	1.25	0.25
18	12	03	11	43	11	0.767368060464	-0.208017049798	0.5952412763	-0.97021484375	-0.1884765625	0.19677734375	1.125	1.0	0.6875
18	12	03	11	43	11	0.767368060464	-0.208017049798	0.5952412763	-0.9697265625	-0.1806640625	0.201171875	0.5	0.6875	0.6875
18	12	03	11	43	11	0.767226232051	-0.208133767008	0.595348024457	-0.9697265625	-0.17919921875	0.20361328125	-1.125	0.5625	0.375
18	12	03	11	43	11	0.767042611661	-0.208499845742	0.595408663703	-0.97607421875	-0.18896484375	0.2060546875	-2.6875	0.75	0.5625
18	12	03	11	43	12	0.766868589356	-0.208807501129	0.595476755632	-0.97705078125	-0.1953125	0.20458984375	-2.1875	0.8125	0.8125
18	12	03	11	43	12	0.766732027522	-0.208925627305	0.59558757559	-0.9794921875	-0.19482421875	0.20654296875	-0.9375	0.6875	1.0
18	12	03	11	43	12	0.766722248954	-0.208983997804	0.595579979724	-0.978515625	-0.1923828125	0.20361328125	0.0	0.5	0.9375
18	12	03	11	43	12	0.766750120359	-0.208991594659	0.595540592608	-0.9755859375	-0.1923828125	0.20556640625	-0.625	0.4375	0.8125
18	12	03	11	43	12	0.766612017847	-0.209292405191	0.595589177559	-0.9775390625	-0.19970703125	0.203125	-1.5625	0.4375	0.8125
18	12	03	11	43	12	0.766539360367	-0.209550057664	0.595566534408	-0.9697265625	-0.2041015625	0.2080078125	-1.75	0.25	1.0625
18	12	03	11	43	12	0.766501662154	-0.209844936653	0.595476207674	-0.97021484375	-0.20166015625	0.2099609375	-1.8125	0.25	1.0
18	12	03	11	43	12	0.766420664057	-0.210083612781	0.595460699096	-0.9697265625	-0.19775390625	0.20654296875	-1.5	0.1875	0.9375
18	12	03	11	43	12	0.766377284213	-0.210271562927	0.595413380655	-0.96923828125	-0.1962890625	0.2060546875	-1.5	0.1875	0.75
18	12	03	11	43	12	0.766307206172	-0.210513226132	0.595406355731	-0.97314453125	-0.19970703125	0.20703125	-1.25	0.3125	0.75
18	12	03	11	43	12	0.766307206172	-0.210513226132	0.595406355731	-0.97314453125	-0.19482421875	0.20703125	-0.625	0.375	0.8125
18	12	03	11	43	12	0.766297358738	-0.210571556165	0.595398704459	-0.9755859375	-0.18994140625	0.205078125	-0.5	0.0625	0.875
18	12	03	11	43	12	0.766263720653	-0.210701160084	0.595358955811	-0.97802734375	-0.19384765625	0.20751953125	-1.25	0.125	1.0
18	12	03	11	43	12	0.766146177081	-0.210946557361	0.595362476995	-0.978515625	-0.189453125	0.20263671875	-2.3125	0.0625	0.8125
18	12	03	11	43	12	0.766056242826	-0.211304813374	0.595278984645	-0.97265625	-0.193359375	0.208984375	-2.9375	-0.125	0.8125
18	12	03	11	43	12	0.765956350556	-0.211616118207	0.595235184527	-0.9765625	-0.19921875	0.201171875	-2.5	-0.1875	1.1875
18	12	03	11	43	12	0.765901339718	-0.211800896463	0.595178830379	-0.97412109375	-0.19384765625	0.20458984375	-1.75	-0.5	1.375
18	12	03	11	43	12	0.765846225344	-0.211985649209	0.595122395561	-0.98193359375	-0.2001953125	0.19970703125	-1.625	-0.6875	1.375
18	12	03	11	43	12	0.765834143401	-0.212226453862	0.594990932483	-0.98193359375	-0.1923828125	0.2001953125	-2.125	-1.0	1.0625
18	12	03	11	43	12	0.765732369513	-0.212476235813	0.594945668047	-0.97705078125	-0.193359375	0.19873046875	-2.625	-0.8125	1.1875
18	12	03	11	43	12	0.765641416223	-0.21283415325	0.594861387318	-0.97705078125	-0.19482421875	0.19970703125	-2.8125	-0.6875	1.1875
18	12	03	11	43	12	0.765575846336	-0.213077037356	0.594796828713	-0.97412109375	-0.20068359375	0.1953125	-1.75	-0.875	1.4375
18	12	03	11	43	12	0.76553576366	-0.213204945181	0.594752071528	-0.974609375	-0.19189453125	0.19189453125	-1.4375	-0.9375	1.3125
18	12	03	11	43	12	0.76530153343	-0.213573940459	0.594820820168	-0.9775390625	-0.18603515625	0.19091796875	-3.3125	-0.3125	1.0625
18	12	03	11	43	12	0.765002264712	-0.214247023788	0.594825426443	-0.9794921875	-0.1904296875	0.1982421875	-5.375	0.3125	1.0625
18	12	03	11	43	12	0.764739084437	-0.214913106896	0.594810629567	-0.98193359375	-0.1982421875	0.20263671875	-5.0	0.5	1.25
18	12	03	11	43	12	0.764580178846	-0.215347187527	0.594768422695	-0.978515625	-0.19873046875	0.19970703125	-3.5625	0.0625	1.25
18	12	03	11	43	12	0.764481760414	-0.215702877549	0.594678306724	-0.9736328125	-0.19140625	0.19970703125	-3.0	-0.5	1.125
18	12	03	11	43	12	0.764401361008	-0.216019836829	0.594588649491	-0.97705078125	-0.19189453125	0.19873046875	-2.8125	-0.75	0.75
18	12	03	11	43	12	0.764379058906	-0.216440800358	0.594388187784	-0.9794921875	-0.19384765625	0.201171875	-2.9375	-1.0625	0.5
18	12	03	11	43	12	0.764388397015	-0.216748638329	0.594212332903	-0.97802734375	-0.1953125	0.20068359375	-2.1875	-1.0625	0.3125
18	12	03	11	43	12	0.764433023941	-0.21692709734	0.594077500959	-0.97509765625	-0.19287109375	0.19189453125	-0.8125	-1.4375	0.25
18	12	03	11	43	12	0.764539188154	-0.216922583003	0.593943065618	-0.9736328125	-0.193359375	0.197265625	0.25	-1.4375	0.0
18	12	03	11	43	12	0.764625813275	-0.21692984277	0.593840866716	-0.978515625	-0.18896484375	0.1953125	0.1875	-1.4375	-0.125
18	12	03	11	43	12	0.764690624982	-0.216991951773	0.593721720083	-0.97802734375	-0.1884765625	0.19677734375	-0.3125	-1.25	-0.1875
18	12	03	11	43	12	0.764755417402	-0.217054055733	0.593602556807	-0.98095703125	-0.19091796875	0.19677734375	-0.4375	-1.125	0.0625
18	12	03	11	43	12	0.764792484461	-0.217108289483	0.593522914517	-0.9775390625	-0.18798828125	0.19677734375	-0.25	-1.0625	0.3125
18	12	03	11	43	12	0.764792484461	-0.217108289483	0.593522914517	-0.97412109375	-0.193359375	0.20263671875	-0.4375	-0.6875	0.625
18	12	03	11	43	12	0.764767146726	-0.217118424527	0.593550621339	-0.970703125	-0.18701171875	0.197265625	-0.375	-0.4375	0.5625
18	12	03	11	43	12	0.76473943915	-0.217110558309	0.5935901545	-0.97705078125	-0.1904296875	0.19970703125	-0.625	-0.125	0.375
18	12	03	11	43	12	0.76473943915	-0.217110558309	0.5935901545	-0.97998046875	-0.19189453125	0.19921875	-0.75	0.375	0.375
18	12	03	11	43	12	0.764735148442	-0.217170377377	0.593586824056	-0.978515625	-0.1962890625	0.19482421875	0.0	0.3125	0.5
18	12	03	11	43	12	0.764735148442	-0.217170377377	0.593586824056	-0.97802734375	-0.1943359375	0.1982421875	0.5625	0.3125	0.75
18	12	03	11	43	12	0.764735148442	-0.217170377377	0.593586824056	-0.97705078125	-0.1875	0.19775390625	0.0	0.25	0.8125
18	12	03	11	43	12	0.764545579653	-0.217412689983	0.593703884184	-0.97265625	-0.19091796875	0.1962890625	-1.5625	0.375	0.6875
18	12	03	11	43	12	0.764395296158	-0.21772722362	0.593729381596	-0.97314453125	-0.19287109375	0.19873046875	-2.3125	0.4375	0.3125
18	12	03	11	43	12	0.764303058757	-0.218084557494	0.593705147143	-0.97607421875	-0.19775390625	0.20458984375	-2.0625	0.5625	0.0
18	12	03	11	43	12	0.764292883755	-0.218142690188	0.593697243274	-0.97509765625	-0.203125	0.2060546875	-0.25	0.5	-0.125
18	12	03	11	43	12	0.764347541398	-0.218140869836	0.593692289002	-0.9775390625	-0.20166015625	0.20458984375	1.25	0.375	-0.25
18	12	03	11	43	12	0.76436356307	-0.218023368784	0.593765770306	-0.9833984375	-0.19677734375	0.2021484375	1.3125	0.4375	-0.1875
18	12	03	11	43	12	0.764353390124	-0.218081503067	0.593757867853	-0.978515625	-0.1962890625	0.20166015625	-0.0625	0.5	0.125
18	12	03	11	43	13	0.764328011797	-0.21809167754	0.593785569299	-0.96728515625	-0.1982421875	0.19677734375	-0.1875	0.0625	0.3125
18	12	03	11	43	13	0.764323671962	-0.218151477687	0.5937821978	-0.97021484375	-0.1962890625	0.197265625	-0.0625	-0.4375	0.375
18	12	03	11	43	13	0.764248721436	-0.218269581332	0.593771389037	-0.9794921875	-0.185546875	0.2041015625	-1.875	0.0	0.375
18	12	03	11	43	13	0.764132303378	-0.218820537392	0.593653708975	-0.9775390625	-0.19384765625	0.20849609375	-3.5	0.5625	0.0
18	12	03	11	43	13	0.764067441146	-0.219185667132	0.593589700044	-0.97802734375	-0.208984375	0.2109375	-2.0	0.375	0.1875
18	12	03	11	43	13	0.764114785816	-0.219120703018	0.593579063189	-0.974609375	-0.2021484375	0.2001953125	1.0	0.0	0.75
18	12	03	11	43	13	0.764192751838	-0.218881406397	0.593592213389	-0.97509765625	-0.1953125	0.19775390625	1.8125	-0.5	0.5625
18	12	03	11	43	13	0.764198604084	-0.218883082607	0.593596759162	-0.97314453125	-0.19482421875	0.19677734375	0.0625	-1.0	0.1875
18	12	03	11	43	13	0.764238396081	-0.219182180363	0.593397147727	-0.97705078125	-0.1982421875	0.19921875	-1.875	-1.375	-0.0625
18	12	03	11	43	13	0.764264238016	-0.219555823348	0.593173058465	-0.97607421875	-0.1982421875	0.19970703125	-2.25	-1.375	0.0625
18	12	03	11	43	13	0.764355514378	-0.219730084785	0.592966048246	-0.97216796875	-0.19970703125	0.20263671875	-1.25	-1.3125	0.3125
18	12	03	11	43	13	0.76435113775	-0.219789862416	0.592962652978	-0.9755859375	-0.20556640625	0.19873046875	-0.5625	-0.5625	0.6875
18	12	03	11	43	13	0.76418989623	-0.220162376653	0.592979619958	-0.97119140625	-0.1962890625	0.19091796875	-2.1875	0.0625	0.4375
18	12	03	11	43	13	0.764068337824	-0.220711863682	0.592918983354	-0.974609375	-0.205078125	0.1865234375	-2.625	-0.6875	-0.5625
18	12	03	11	43	13	0.764114021487	-0.220890537883	0.592846033286	-0.9833984375	-0.20703125	0.19140625	0.375	-1.125	-0.9375
18	12	03	11	43	13	0.764475865042	-0.22021787793	0.592720568896	-0.9833984375	-0.18701171875	0.19775390625	4.8125	-2.0625	-0.625
18	12	03	11	43	13	0.764853193683	-0.219488634944	0.592607106972	-0.974609375	-0.19091796875	0.19580078125	5.25	-2.0625	0.0625
18	12	03	11	43	13	0.765067884457	-0.219009380041	0.592570529943	-0.96533203125	-0.19287109375	0.19287109375	3.5625	-1.6875	0.4375
18	12	03	11	43	13	0.765175426677	-0.218700028221	0.592559272669	-0.9658203125	-0.1884765625	0.1943359375	1.75	-1.125	0.8125
18	12	03	11	43	13	0.765147751293	-0.21869211813	0.59259887662	-0.96533203125	-0.1904296875	0.18896484375	-0.1875	-0.5	0.8125
18	12	03	11	43	13	0.765112231992	-0.218760449897	0.592618640639	-0.96923828125	-0.19580078125	0.1953125	-0.1875	0.0	0.9375
18	12	03	11	43	13	0.765044726648	-0.218514450407	0.592796743674	-0.97265625	-0.19384765625	0.19677734375	1.1875	0.3125	1.25
18	12	03	11	43	13	0.764940149804	-0.218214254353	0.593054460222	-0.97607421875	-0.19140625	0.19091796875	1.5625	0.5625	1.4375
18	12	03	11	43	13	0.764750414118	-0.218029250477	0.593354519566	-0.978515625	-0.19287109375	0.1904296875	1.0625	0.75	1.5625
18	12	03	11	43	13	0.764560556441	-0.21784421411	0.593654476445	-0.9765625	-0.1953125	0.19140625	0.5	0.8125	1.6875
18	12	03	11	43	13	0.764441211926	-0.217722916236	0.593839711819	-0.9775390625	-0.1962890625	0.19384765625	0.5625	0.75	1.75
18	12	03	11	43	13	0.764251153002	-0.217537825198	0.5941395035	-0.978515625	-0.193359375	0.19140625	0.75	0.75	1.75
18	12	03	11	43	13	0.764118402531	-0.217290639269	0.594375349776	-0.978515625	-0.18896484375	0.197265625	0.875	0.8125	1.6875
18	12	03	11	43	13	0.764050340821	-0.217044496881	0.594552993284	-0.97802734375	-0.19580078125	0.19921875	1.1875	0.8125	1.875
18	12	03	11	43	13	0.764008248096	-0.216683652692	0.594750848402	-0.97021484375	-0.19775390625	0.19873046875	1.9375	0.625	2.0
18	12	03	11	43	13	0.763938276515	-0.216314897089	0.594988040865	-0.978515625	-0.193359375	0.19287109375	2.4375	0.4375	1.9375
18	12	03	11	43	13	0.76386994013	-0.216068684623	0.59516546434	-0.97705078125	-0.19091796875	0.1982421875	0.8125	0.6875	1.5625
18	12	03	11	43	13	0.763763585316	-0.216073131305	0.595299788028	-0.98291015625	-0.201171875	0.1982421875	0.25	0.875	1.1875
18	12	03	11	43	13	0.763771609667	-0.215831248444	0.595428118941	-0.9814453125	-0.20751953125	0.2021484375	2.375	0.5625	1.25
18	12	03	11	43	13	0.763882160069	-0.215339693226	0.595541209412	-0.97802734375	-0.197265625	0.2021484375	3.75	0.125	1.1875
18	12	03	11	43	13	0.764065277746	-0.215034508188	0.595480176521	-0.978515625	-0.19921875	0.20654296875	2.625	-0.3125	0.625
18	12	03	11	43	13	0.76425213674	-0.214974524846	0.595299983198	-0.9794921875	-0.1962890625	0.20947265625	1.125	-0.6875	-0.125
18	12	03	11	43	13	0.764412649105	-0.214968169127	0.595160311515	-0.9755859375	-0.20556640625	0.20068359375	1.3125	-0.875	-0.375
18	12	03	11	43	13	0.764677762031	-0.214729914338	0.594993520456	-0.9765625	-0.20556640625	0.20654296875	3.0625	-1.0	-0.0625
18	12	03	11	43	13	0.764968165558	-0.21417643764	0.594920985374	-0.97314453125	-0.19140625	0.20703125	4.4375	-1.0	0.0
18	12	03	11	43	13	0.765232777158	-0.213632824444	0.594875859151	-0.9765625	-0.1904296875	0.19970703125	4.25	-1.0	-0.1875
18	12	03	11	43	13	0.765323936875	-0.2133800529	0.594912864879	-0.978515625	-0.18603515625	0.1943359375	2.5625	-0.8125	-0.3125
18	12	03	11	43	13	0.765413993236	-0.213266067972	0.594874384217	-0.97607421875	-0.18701171875	0.201171875	1.125	-0.625	-0.5
18	12	03	11	43	13	0.765413993236	-0.213266067972	0.594874384217	-0.98291015625	-0.18798828125	0.1982421875	0.5625	-0.25	0.0
18	12	03	11	43	13	0.765437076979	-0.213133424193	0.594905923715	-0.97900390625	-0.19091796875	0.20263671875	1.125	-0.125	0.5625
18	12	03	11	43	13	0.765411634944	-0.212838147612	0.5950556642	-0.9775390625	-0.18603515625	0.1953125	1.4375	0.0	1.0
