18	12	03	11	44	24	0.954923452211	-0.155705319693	0.207586747266	-0.43505859375	-0.22705078125	0.8662109375	-0.875	0.8125	-0.0625
18	12	03	11	44	24	0.9548696403	-0.155950647594	0.207649355427	-0.43408203125	-0.22998046875	0.86572265625	-1.8125	1.0625	-0.125
18	12	03	11	44	24	0.95478075376	-0.156261266438	0.207778652717	-0.43310546875	-0.2333984375	0.865234375	-2.1875	1.75	0.125
18	12	03	11	44	24	0.954620303412	-0.156682245451	0.20807548685	-0.4375	-0.2275390625	0.8642578125	-2.9375	2.3125	0.5
18	12	03	11	44	24	0.954454125188	-0.157112292526	0.208384369341	-0.43212890625	-0.23291015625	0.86767578125	-3.0625	2.75	0.8125
18	12	03	11	44	24	0.954232519837	-0.157594241155	0.208742178447	-0.43359375	-0.236328125	0.86328125	-3.4375	2.875	2.1875
18	12	03	11	44	24	0.953970274856	-0.158089641812	0.20917884266	-0.43994140625	-0.2373046875	0.857421875	-3.4375	2.875	3.3125
18	12	03	11	44	24	0.953676555552	-0.158701935768	0.209669672832	-0.45068359375	-0.244140625	0.86279296875	-3.75	2.8125	2.9375
18	12	03	11	44	24	0.953386689451	-0.159365726386	0.210147911125	-0.4560546875	-0.251953125	0.8564453125	-3.3125	2.25	2.375
18	12	03	11	44	24	0.953180327765	-0.159738275984	0.210583512474	-0.46142578125	-0.2587890625	0.85693359375	-1.1875	1.875	2.0625
18	12	03	11	44	24	0.953036076201	-0.15979559674	0.211066911202	-0.46240234375	-0.2470703125	0.8515625	0.0625	1.625	1.5625
18	12	03	11	44	24	0.95290941491	-0.159794827584	0.21155419114	-0.46728515625	-0.24169921875	0.85791015625	0.0625	1.5	0.9375
18	12	03	11	44	24	0.95290941491	-0.159794827584	0.21155419114	-0.466796875	-0.24853515625	0.857421875	0.125	0.5625	0.6875
18	12	03	11	44	24	0.952887813427	-0.1598522408	0.211610431024	-0.458984375	-0.2490234375	0.8544921875	0.5	-0.25	0.25
18	12	03	11	44	24	0.952887813427	-0.1598522408	0.211610431024	-0.45361328125	-0.2412109375	0.85400390625	0.75	-0.5	0.0
18	12	03	11	44	24	0.952888544694	-0.159791327825	0.211610593419	-0.44677734375	-0.2333984375	0.8603515625	-0.4375	-0.3125	-0.3125
18	12	03	11	44	24	0.952914679718	-0.159978822415	0.211433285328	-0.4482421875	-0.2392578125	0.8671875	-1.5	-0.4375	-1.0625
18	12	03	11	44	24	0.952970148345	-0.160222035445	0.211126864992	-0.44189453125	-0.2529296875	0.85693359375	-0.625	-1.0	-1.125
18	12	03	11	44	24	0.952970148345	-0.160222035445	0.211126864992	-0.44140625	-0.23974609375	0.86572265625	-0.1875	-0.9375	-0.8125
18	12	03	11	44	24	0.952982427298	-0.160224099895	0.211068547595	-0.44140625	-0.2470703125	0.8623046875	-0.4375	-0.625	-0.9375
18	12	03	11	44	24	0.952982427298	-0.160224099895	0.211068547595	-0.43994140625	-0.244140625	0.85693359375	0.375	-0.625	-0.4375
18	12	03	11	44	24	0.952994703175	-0.160226163827	0.211010227943	-0.43896484375	-0.2421875	0.85400390625	0.5625	-0.375	0.1875
18	12	03	11	44	24	0.952994703175	-0.160226163827	0.211010227943	-0.435546875	-0.24365234375	0.85791015625	0.125	-0.25	0.0625
18	12	03	11	44	24	0.953021895489	-0.160159437285	0.210941697887	-0.43994140625	-0.2333984375	0.86669921875	-0.25	0.4375	0.3125
18	12	03	11	44	24	0.953021895489	-0.160159437285	0.210941697887	-0.44580078125	-0.244140625	0.8642578125	-0.125	0.625	0.3125
18	12	03	11	44	25	0.953021895489	-0.160159437285	0.210941697887	-0.44921875	-0.24462890625	0.86279296875	0.4375	0.6875	0.5625
18	12	03	11	44	25	0.953021895489	-0.160159437285	0.210941697887	-0.45361328125	-0.236328125	0.8583984375	0.3125	0.5	0.6875
18	12	03	11	44	25	0.953018937999	-0.160097904084	0.211002079458	-0.4560546875	-0.236328125	0.8603515625	-0.625	0.3125	0.3125
18	12	03	11	44	25	0.953009623684	-0.160157374955	0.211000017233	-0.45751953125	-0.248046875	0.85888671875	-0.5	-0.0625	0.3125
18	12	03	11	44	25	0.953009623684	-0.160157374955	0.211000017233	-0.4501953125	-0.2431640625	0.85595703125	0.0	-0.375	0.375
18	12	03	11	44	25	0.953009623684	-0.160157374955	0.211000017233	-0.4482421875	-0.24072265625	0.85888671875	-0.375	-0.5	0.5
18	12	03	11	44	25	0.953018937999	-0.160097904084	0.211002079458	-0.44580078125	-0.23486328125	0.85693359375	-0.5	0.1875	0.125
18	12	03	11	44	25	0.953009623684	-0.160157374955	0.211000017233	-0.4443359375	-0.25	0.8564453125	0.1875	0.4375	0.25
18	12	03	11	44	25	0.953018937999	-0.160097904084	0.211002079458	-0.4462890625	-0.2412109375	0.8564453125	-0.1875	0.9375	0.0625
18	12	03	11	44	25	0.952931420825	-0.160225786553	0.21125388467	-0.4501953125	-0.23779296875	0.8583984375	-0.6875	1.4375	0.0625
18	12	03	11	44	25	0.95286355567	-0.160285676586	0.211557560947	-0.455078125	-0.2431640625	0.85107421875	-0.1875	1.4375	0.125
18	12	03	11	44	25	0.95286355567	-0.160285676586	0.211557560947	-0.453125	-0.24072265625	0.85693359375	-0.8125	0.8125	-0.25
18	12	03	11	44	25	0.95286355567	-0.160285676586	0.211557560947	-0.4482421875	-0.24755859375	0.857421875	-0.875	0.25	-0.5
18	12	03	11	44	25	0.95286355567	-0.160285676586	0.211557560947	-0.4453125	-0.248046875	0.8564453125	-0.4375	-0.25	-0.6875
18	12	03	11	44	25	0.95286355567	-0.160285676586	0.211557560947	-0.44482421875	-0.2412109375	0.865234375	-0.5	-0.125	-0.5
18	12	03	11	44	25	0.952875858499	-0.160287746103	0.211499253712	-0.4443359375	-0.248046875	0.861328125	-0.125	-0.125	-0.625
18	12	03	11	44	25	0.952875858499	-0.160287746103	0.211499253712	-0.44384765625	-0.2431640625	0.85595703125	0.6875	-0.125	-0.125
18	12	03	11	44	25	0.952875858499	-0.160287746103	0.211499253712	-0.44482421875	-0.23681640625	0.857421875	0.375	-0.125	-0.0625
18	12	03	11	44	25	0.952875858499	-0.160287746103	0.211499253712	-0.44921875	-0.23876953125	0.857421875	-0.5	-0.1875	-0.25
18	12	03	11	44	25	0.952875858499	-0.160287746103	0.211499253712	-0.44970703125	-0.24755859375	0.859375	-0.375	-0.25	0.0625
18	12	03	11	44	25	0.952875858499	-0.160287746103	0.211499253712	-0.4521484375	-0.244140625	0.85888671875	-0.125	-0.25	0.375
18	12	03	11	44	25	0.952875858499	-0.160287746103	0.211499253712	-0.44873046875	-0.24755859375	0.8564453125	0.3125	-0.375	0.5625
18	12	03	11	44	25	0.952875858499	-0.160287746103	0.211499253712	-0.451171875	-0.24365234375	0.85302734375	0.4375	-0.4375	0.375
18	12	03	11	44	25	0.952875858499	-0.160287746103	0.211499253712	-0.45166015625	-0.23974609375	0.857421875	0.9375	-0.5	0.25
18	12	03	11	44	25	0.952897123007	-0.160097947326	0.21155146223	-0.45556640625	-0.23974609375	0.853515625	1.0	-0.5	0.0
18	12	03	11	44	25	0.952909425561	-0.1601000143	0.211493156519	-0.44384765625	-0.23681640625	0.861328125	0.3125	-0.5	-0.375
18	12	03	11	44	25	0.95290643286	-0.160038474696	0.211553529099	-0.4521484375	-0.23876953125	0.85546875	-0.0625	-0.6875	-0.5625
18	12	03	11	44	25	0.95290643286	-0.160038474696	0.211553529099	-0.44873046875	-0.2412109375	0.85791015625	-0.1875	-0.625	-0.125
18	12	03	11	44	25	0.952918735774	-0.160040540943	0.211495222871	-0.447265625	-0.24169921875	0.85791015625	-0.6875	-0.625	-0.625
18	12	03	11	44	25	0.952918735774	-0.160040540943	0.211495222871	-0.44482421875	-0.24267578125	0.85888671875	-0.25	-0.5625	-0.5625
18	12	03	11	44	25	0.952918735774	-0.160040540943	0.211495222871	-0.44580078125	-0.24560546875	0.85986328125	-0.3125	-0.4375	-0.375
18	12	03	11	44	25	0.952918735774	-0.160040540943	0.211495222871	-0.4453125	-0.24609375	0.86474609375	0.3125	-0.375	-0.3125
18	12	03	11	44	25	0.952931035615	-0.160042606673	0.211436914384	-0.44384765625	-0.24365234375	0.85986328125	0.5	-0.4375	-0.25
18	12	03	11	44	25	0.952931035615	-0.160042606673	0.211436914384	-0.4462890625	-0.244140625	0.8583984375	0.1875	-0.1875	0.0
18	12	03	11	44	25	0.952931035615	-0.160042606673	0.211436914384	-0.447265625	-0.234375	0.859375	-0.125	0.0625	0.0
18	12	03	11	44	25	0.952931035615	-0.160042606673	0.211436914384	-0.44580078125	-0.2431640625	0.86572265625	-0.625	-0.125	-0.25
18	12	03	11	44	25	0.952943332382	-0.160044671887	0.211378603641	-0.439453125	-0.24072265625	0.8564453125	0.125	0.125	0.1875
18	12	03	11	44	25	0.95294894133	-0.160035363106	0.21136630909	-0.4443359375	-0.2392578125	0.861328125	-0.625	0.25	0.1875
18	12	03	11	44	25	0.95294894133	-0.160035363106	0.21136630909	-0.44482421875	-0.2470703125	0.8642578125	0.0625	0.0625	0.125
18	12	03	11	44	25	0.95294894133	-0.160035363106	0.21136630909	-0.44873046875	-0.24365234375	0.85791015625	0.6875	0.0	0.125
18	12	03	11	44	25	0.952958247959	-0.159975889829	0.211368373322	-0.4462890625	-0.232421875	0.86083984375	0.4375	-0.25	0.0625
18	12	03	11	44	25	0.952958247959	-0.159975889829	0.211368373322	-0.4541015625	-0.23974609375	0.8642578125	0.375	-0.3125	-0.125
18	12	03	11	44	25	0.952958247959	-0.159975889829	0.211368373322	-0.4482421875	-0.23388671875	0.85595703125	0.3125	-0.1875	0.0625
18	12	03	11	44	25	0.95296755131	-0.15991641481	0.211370436828	-0.4462890625	-0.23583984375	0.857421875	-0.6875	0.0	-0.1875
18	12	03	11	44	25	0.95296755131	-0.15991641481	0.211370436828	-0.4482421875	-0.24755859375	0.86181640625	-0.6875	-0.1875	-0.4375
18	12	03	11	44	25	0.952979844365	-0.159918477694	0.211312125869	-0.447265625	-0.2412109375	0.859375	-0.125	-0.3125	-0.1875
18	12	03	11	44	25	0.952979844365	-0.159918477694	0.211312125869	-0.44189453125	-0.23974609375	0.861328125	-0.1875	-0.3125	-0.25
18	12	03	11	44	25	0.952979844365	-0.159918477694	0.211312125869	-0.44189453125	-0.2421875	0.86279296875	-0.25	-0.0625	-0.5
18	12	03	11	44	25	0.952992134344	-0.159920540062	0.211253812654	-0.443359375	-0.2451171875	0.859375	-0.1875	0.25	-0.3125
18	12	03	11	44	25	0.952992134344	-0.159920540062	0.211253812654	-0.44482421875	-0.2451171875	0.85888671875	0.0	0.1875	-0.1875
18	12	03	11	44	26	0.952992134344	-0.159920540062	0.211253812654	-0.44384765625	-0.23583984375	0.85791015625	-0.125	0.1875	0.0
18	12	03	11	44	26	0.952992134344	-0.159920540062	0.211253812654	-0.44677734375	-0.2392578125	0.857421875	-0.25	-0.1875	-0.125
18	12	03	11	44	26	0.952992134344	-0.159920540062	0.211253812654	-0.4423828125	-0.2451171875	0.859375	-0.375	-0.375	0.0
18	12	03	11	44	26	0.953004421249	-0.159922601913	0.211195497183	-0.44482421875	-0.2421875	0.861328125	-0.25	-0.125	-0.1875
18	12	03	11	44	26	0.953010023091	-0.159913299635	0.211183212495	-0.4453125	-0.25	0.86376953125	0.3125	-0.125	0.0
18	12	03	11	44	26	0.953010023091	-0.159913299635	0.211183212495	-0.44580078125	-0.2431640625	0.857421875	0.0625	0.1875	0.25
18	12	03	11	44	26	0.953010023091	-0.159913299635	0.211183212495	-0.44921875	-0.24169921875	0.85693359375	0.125	0.3125	0.0625
18	12	03	11	44	26	0.953010023091	-0.159913299635	0.211183212495	-0.44775390625	-0.2392578125	0.86181640625	0.5625	0.1875	0.25
18	12	03	11	44	26	0.953010023091	-0.159913299635	0.211183212495	-0.44873046875	-0.2392578125	0.85498046875	0.5	0.25	0.3125
18	12	03	11	44	26	0.953019323217	-0.159853823972	0.211185273366	-0.44970703125	-0.23583984375	0.86181640625	0.125	-0.1875	0.375
18	12	03	11	44	26	0.953019323217	-0.159853823972	0.211185273366	-0.44775390625	-0.240234375	0.859375	-0.1875	-0.125	0.1875
18	12	03	11	44	26	0.953019323217	-0.159853823972	0.211185273366	-0.4482421875	-0.24462890625	0.8662109375	0.0	-0.0625	0.0625
18	12	03	11	44	26	0.953031606049	-0.159855884222	0.211126958199	-0.44677734375	-0.244140625	0.86083984375	0.5	-0.125	0.0
18	12	03	11	44	26	0.953031606049	-0.159855884222	0.211126958199	-0.44677734375	-0.240234375	0.85791015625	0.0625	-0.125	-0.1875
18	12	03	11	44	26	0.953031606049	-0.159855884222	0.211126958199	-0.44482421875	-0.23681640625	0.859375	0.1875	-0.0625	0.0
18	12	03	11	44	26	0.953031606049	-0.159855884222	0.211126958199	-0.4501953125	-0.23828125	0.85546875	0.0625	-0.0625	-0.375
18	12	03	11	44	26	0.953040903256	-0.159796406092	0.211129017828	-0.44677734375	-0.2412109375	0.8662109375	-0.25	-0.125	-0.125
18	12	03	11	44	26	0.953040903256	-0.159796406092	0.211129017828	-0.44189453125	-0.2421875	0.86572265625	-0.125	-0.25	0.0
18	12	03	11	44	26	0.953053183371	-0.1597984651	0.211070699891	-0.4462890625	-0.2353515625	0.86669921875	-0.25	-0.0625	-0.125
18	12	03	11	44	26	0.953053183371	-0.1597984651	0.211070699891	-0.44677734375	-0.24169921875	0.86669921875	-0.375	0.0	-0.25
18	12	03	11	44	26	0.953062477658	-0.159738984503	0.211072758277	-0.44140625	-0.240234375	0.86083984375	0.375	-0.125	-0.0625
18	12	03	11	44	26	0.953062477658	-0.159738984503	0.211072758277	-0.4482421875	-0.23583984375	0.859375	0.125	0.0	-0.125
18	12	03	11	44	26	0.953053925484	-0.159737551107	0.211070864245	-0.44775390625	-0.2412109375	0.86962890625	-0.625	-0.125	0.0
18	12	03	11	44	26	0.953071797211	-0.159730316574	0.211000269162	-0.44580078125	-0.240234375	0.86181640625	-0.625	-0.125	0.0625
18	12	03	11	44	26	0.953080348771	-0.159731749775	0.211002162389	-0.44140625	-0.2421875	0.859375	-0.375	-0.125	0.0
18	12	03	11	44	26	0.953080348771	-0.159731749775	0.211002162389	-0.4453125	-0.24169921875	0.85986328125	-0.1875	0.125	0.25
18	12	03	11	44	26	0.953081087302	-0.159670837296	0.211002325892	-0.44970703125	-0.23828125	0.85791015625	-0.625	0.1875	0.1875
18	12	03	11	44	26	0.953081087302	-0.159670837296	0.211002325892	-0.4501953125	-0.2392578125	0.86181640625	0.0	-0.125	0.125
18	12	03	11	44	26	0.953081087302	-0.159670837296	0.211002325892	-0.4453125	-0.24462890625	0.85986328125	0.3125	-0.375	-0.125
18	12	03	11	44	26	0.953081087302	-0.159670837296	0.211002325892	-0.44287109375	-0.23828125	0.85595703125	0.1875	-0.25	-0.125
18	12	03	11	44	26	0.953081087302	-0.159670837296	0.211002325892	-0.44775390625	-0.23828125	0.857421875	0.125	0.125	0.4375
18	12	03	11	44	26	0.953081087302	-0.159670837296	0.211002325892	-0.44970703125	-0.2373046875	0.85595703125	-0.625	0.5	0.1875
18	12	03	11	44	26	0.953081087302	-0.159670837296	0.211002325892	-0.4462890625	-0.24267578125	0.85986328125	-0.0625	0.0	0.125
18	12	03	11	44	26	0.953081087302	-0.159670837296	0.211002325892	-0.44677734375	-0.236328125	0.85693359375	-0.5	-0.125	-0.0625
18	12	03	11	44	26	0.953093360296	-0.159672893406	0.210944005968	-0.4443359375	-0.24658203125	0.85791015625	-0.1875	-0.375	-0.5
18	12	03	11	44	26	0.953102647467	-0.159613411663	0.210946061457	-0.44384765625	-0.23681640625	0.8603515625	-0.3125	-0.3125	-0.5
18	12	03	11	44	26	0.953102647467	-0.159613411663	0.210946061457	-0.44384765625	-0.23828125	0.86083984375	-0.25	-0.1875	-0.75
18	12	03	11	44	26	0.953102647467	-0.159613411663	0.210946061457	-0.4423828125	-0.23828125	0.86083984375	0.125	0.0	-0.4375
18	12	03	11	44	26	0.953102647467	-0.159613411663	0.210946061457	-0.443359375	-0.24072265625	0.861328125	-0.4375	-0.0625	-0.3125
18	12	03	11	44	26	0.953114917743	-0.159615466532	0.210887738764	-0.44482421875	-0.23974609375	0.8583984375	-0.125	-0.1875	-0.125
18	12	03	11	44	26	0.953124201992	-0.159555982325	0.210889793012	-0.44140625	-0.236328125	0.859375	-0.0625	0.0625	0.25
18	12	03	11	44	26	0.953129789886	-0.159546700228	0.210877524594	-0.44287109375	-0.240234375	0.86181640625	-0.125	0.125	0.0625
18	12	03	11	44	26	0.953129789886	-0.159546700228	0.210877524594	-0.4453125	-0.2421875	0.8603515625	-0.1875	0.25	-0.0625
18	12	03	11	44	26	0.953142056088	-0.159548753497	0.210819202211	-0.44580078125	-0.24658203125	0.86181640625	0.0	0.0	0.1875
18	12	03	11	44	26	0.953142056088	-0.159548753497	0.210819202211	-0.44482421875	-0.2373046875	0.865234375	0.0	0.0625	0.3125
18	12	03	11	44	26	0.953142056088	-0.159548753497	0.210819202211	-0.44677734375	-0.23828125	0.8603515625	-0.0625	0.1875	0.25
18	12	03	11	44	26	0.953142056088	-0.159548753497	0.210819202211	-0.45068359375	-0.24169921875	0.8544921875	-0.25	0.0	0.0625
18	12	03	11	44	26	0.953142056088	-0.159548753497	0.210819202211	-0.44775390625	-0.244140625	0.8603515625	-0.3125	-0.0625	0.25
18	12	03	11	44	26	0.953142056088	-0.159548753497	0.210819202211	-0.44677734375	-0.24560546875	0.86083984375	0.25	-0.1875	0.0625
18	12	03	11	44	26	0.953142056088	-0.159548753497	0.210819202211	-0.44140625	-0.24365234375	0.861328125	0.1875	-0.1875	0.125
18	12	03	11	44	27	0.953142056088	-0.159548753497	0.210819202211	-0.4462890625	-0.2392578125	0.86279296875	0.125	0.0	0.0
18	12	03	11	44	27	0.953142056088	-0.159548753497	0.210819202211	-0.44677734375	-0.23779296875	0.8583984375	-0.25	0.1875	0.0
18	12	03	11	44	27	0.953154319213	-0.159550806251	0.210760877577	-0.4423828125	-0.2412109375	0.85888671875	-0.3125	0.3125	-0.125
18	12	03	11	44	27	0.953154319213	-0.159550806251	0.210760877577	-0.44775390625	-0.2421875	0.859375	-0.125	0.3125	-0.3125
18	12	03	11	44	27	0.953163599874	-0.159491322136	0.210762929711	-0.44482421875	-0.23876953125	0.8623046875	-0.375	0.1875	-0.1875
18	12	03	11	44	27	0.953163599874	-0.159491322136	0.210762929711	-0.44677734375	-0.24609375	0.86962890625	-0.1875	0.0	-0.0625
18	12	03	11	44	27	0.953163599874	-0.159491322136	0.210762929711	-0.44580078125	-0.22900390625	0.86083984375	-0.3125	0.3125	0.1875
18	12	03	11	44	27	0.953175860279	-0.159493373649	0.210704602311	-0.43994140625	-0.24560546875	0.85888671875	-1.0	0.625	-0.125
18	12	03	11	44	27	0.953175860279	-0.159493373649	0.210704602311	-0.4462890625	-0.2509765625	0.85791015625	-0.375	0.5625	-0.4375
18	12	03	11	44	27	0.953175860279	-0.159493373649	0.210704602311	-0.4453125	-0.23486328125	0.869140625	0.5625	0.375	0.3125
18	12	03	11	44	27	0.953175860279	-0.159493373649	0.210704602311	-0.44091796875	-0.234375	0.85400390625	-0.5	0.5	0.3125
18	12	03	11	44	27	0.953126457552	-0.159729248169	0.210754716824	-0.45166015625	-0.2431640625	0.865234375	-1.625	0.5625	-0.375
18	12	03	11	44	27	0.953138716524	-0.159731302583	0.210696391486	-0.44140625	-0.24609375	0.85498046875	0.125	0.4375	0.5
18	12	03	11	44	27	0.953138716524	-0.159731302583	0.210696391486	-0.443359375	-0.240234375	0.85302734375	-0.5625	0.375	0.1875
18	12	03	11	44	27	0.95314726879	-0.159732735811	0.21069828201	-0.44873046875	-0.24560546875	0.86767578125	-0.6875	0.4375	0.125
18	12	03	11	44	27	0.953138716524	-0.159731302583	0.210696391486	-0.44482421875	-0.240234375	0.86181640625	0.3125	0.5	0.375
18	12	03	11	44	27	0.953138716524	-0.159731302583	0.210696391486	-0.44677734375	-0.2421875	0.859375	0.375	0.5625	0.375
18	12	03	11	44	27	0.953138716524	-0.159731302583	0.210696391486	-0.4501953125	-0.23876953125	0.8642578125	-0.125	0.625	0.4375
18	12	03	11	44	27	0.953138716524	-0.159731302583	0.210696391486	-0.451171875	-0.2392578125	0.86328125	-0.25	0.875	0.375
18	12	03	11	44	27	0.953148007382	-0.159671822958	0.210698445279	-0.4482421875	-0.23583984375	0.859375	-0.25	0.8125	0.0
18	12	03	11	44	27	0.953148007382	-0.159671822958	0.210698445279	-0.4501953125	-0.23828125	0.86083984375	-0.1875	0.6875	-0.0625
18	12	03	11	44	27	0.953148007382	-0.159671822958	0.210698445279	-0.4482421875	-0.244140625	0.85791015625	-0.375	0.1875	-0.0625
18	12	03	11	44	27	0.953148007382	-0.159671822958	0.210698445279	-0.44775390625	-0.23974609375	0.8603515625	-0.5625	-0.0625	-0.3125
18	12	03	11	44	27	0.953148007382	-0.159671822958	0.210698445279	-0.44677734375	-0.23974609375	0.8603515625	-0.5625	0.0	-0.25
18	12	03	11	44	27	0.953148007382	-0.159671822958	0.210698445279	-0.447265625	-0.23876953125	0.8564453125	-0.375	0.125	-0.5
18	12	03	11	44	27	0.953148007382	-0.159671822958	0.210698445279	-0.44970703125	-0.251953125	0.85693359375	0.375	-0.625	-0.4375
18	12	03	11	44	27	0.953148007382	-0.159671822958	0.210698445279	-0.45166015625	-0.24365234375	0.8603515625	-0.0625	0.0	0.0
18	12	03	11	44	27	0.953148007382	-0.159671822958	0.210698445279	-0.451171875	-0.23974609375	0.8623046875	-0.75	-0.0625	-0.4375
18	12	03	11	44	27	0.953148007382	-0.159671822958	0.210698445279	-0.44921875	-0.2451171875	0.8544921875	-0.1875	-0.0625	-0.3125
18	12	03	11	44	27	0.953138716524	-0.159731302583	0.210696391486	-0.447265625	-0.25048828125	0.8515625	-0.125	-0.3125	-0.0625
18	12	03	11	44	27	0.953138716524	-0.159731302583	0.210696391486	-0.4462890625	-0.240234375	0.86083984375	0.1875	0.0	0.3125
18	12	03	11	44	27	0.953138716524	-0.159731302583	0.210696391486	-0.4453125	-0.244140625	0.8642578125	0.4375	-0.375	0.375
18	12	03	11	44	27	0.953150972418	-0.159733356482	0.210638063897	-0.4384765625	-0.2431640625	0.8603515625	-0.0625	0.1875	0.25
18	12	03	11	44	27	0.953150972418	-0.159733356482	0.210638063897	-0.439453125	-0.244140625	0.865234375	0.0625	0.5	0.25
18	12	03	11	44	27	0.953160263634	-0.159673876131	0.210640117175	-0.4453125	-0.23291015625	0.859375	0.25	0.5625	0.5
18	12	03	11	44	27	0.953160263634	-0.159673876131	0.210640117175	-0.443359375	-0.2373046875	0.85791015625	-0.3125	0.625	0.25
18	12	03	11	44	27	0.953160263634	-0.159673876131	0.210640117175	-0.447265625	-0.23486328125	0.8623046875	-0.375	0.5625	0.4375
18	12	03	11	44	27	0.953169551571	-0.159614394042	0.210642169728	-0.44482421875	-0.240234375	0.85791015625	-0.25	0.5	0.5
18	12	03	11	44	27	0.953160263634	-0.159673876131	0.210640117175	-0.44921875	-0.24365234375	0.85595703125	-0.625	0.5	0.375
18	12	03	11	44	27	0.953160263634	-0.159673876131	0.210640117175	-0.4501953125	-0.24951171875	0.85888671875	-0.125	0.3125	0.5
18	12	03	11	44	27	0.953160263634	-0.159673876131	0.210640117175	-0.45166015625	-0.2373046875	0.8583984375	-0.1875	0.0625	0.5625
18	12	03	11	44	27	0.953160263634	-0.159673876131	0.210640117175	-0.4560546875	-0.24267578125	0.85791015625	-1.0	0.125	0.25
18	12	03	11	44	27	0.953160263634	-0.159673876131	0.210640117175	-0.453125	-0.2421875	0.85986328125	-0.625	0.375	0.25
18	12	03	11	44	27	0.953148007382	-0.159671822958	0.210698445279	-0.453125	-0.2412109375	0.85205078125	-0.0625	-0.0625	0.25
18	12	03	11	44	27	0.953148007382	-0.159671822958	0.210698445279	-0.451171875	-0.24658203125	0.8564453125	-0.375	-0.25	-0.125
18	12	03	11	44	27	0.953148007382	-0.159671822958	0.210698445279	-0.45849609375	-0.23828125	0.86181640625	-0.75	-0.25	-0.25
18	12	03	11	44	27	0.953135748052	-0.159669769269	0.210756771134	-0.455078125	-0.234375	0.8525390625	0.0	-0.9375	0.0
18	12	03	11	44	27	0.95317547497	-0.15973746273	0.21052140197	-0.44775390625	-0.24755859375	0.85498046875	-0.375	-1.1875	-0.0625
18	12	03	11	44	27	0.95317547497	-0.15973746273	0.21052140197	-0.44970703125	-0.24609375	0.85888671875	-0.5625	-1.0	-0.3125
18	12	03	11	44	27	0.95317547497	-0.15973746273	0.21052140197	-0.4453125	-0.24755859375	0.86083984375	0.0625	-0.875	-0.0625
18	12	03	11	44	28	0.953166179757	-0.15979694279	0.210519349	-0.43701171875	-0.24951171875	0.85791015625	0.4375	-0.5	-0.0625
18	12	03	11	44	28	0.953178426057	-0.159798995864	0.21046101518	-0.4423828125	-0.25146484375	0.85888671875	0.75	-0.25	0.125
18	12	03	11	44	28	0.953187721627	-0.159739515081	0.210463067634	-0.44287109375	-0.23095703125	0.8662109375	0.75	0.5	0.3125
18	12	03	11	44	28	0.953187721627	-0.159739515081	0.210463067634	-0.4482421875	-0.23583984375	0.85546875	0.6875	0.625	0.25
18	12	03	11	44	28	0.953187721627	-0.159739515081	0.210463067634	-0.44140625	-0.2353515625	0.8603515625	0.625	0.375	0.25
18	12	03	11	44	28	0.95320259341	-0.159670742419	0.210452874565	-0.44384765625	-0.23486328125	0.8642578125	-0.125	0.1875	0.25
18	12	03	11	44	28	0.953214835993	-0.159672793171	0.210394540543	-0.439453125	-0.24267578125	0.8681640625	-0.3125	0.0625	0.4375
18	12	03	11	44	28	0.953214835993	-0.159672793171	0.210394540543	-0.43994140625	-0.240234375	0.86767578125	-0.0625	0.3125	0.25
18	12	03	11	44	28	0.953214835993	-0.159672793171	0.210394540543	-0.4462890625	-0.2333984375	0.86376953125	0.0625	0.3125	0.3125
18	12	03	11	44	28	0.953224124336	-0.159613311464	0.210396590676	-0.44580078125	-0.240234375	0.85888671875	-0.6875	0.0	0.25
18	12	03	11	44	28	0.953215567544	-0.159611878666	0.210394702012	-0.453125	-0.23486328125	0.8525390625	-0.4375	0.125	0.25
18	12	03	11	44	28	0.953203324933	-0.159609828693	0.210453036074	-0.45849609375	-0.23486328125	0.85546875	-0.5625	0.1875	0.125
18	12	03	11	44	28	0.953158358495	-0.159734594274	0.210517621571	-0.4560546875	-0.23779296875	0.8564453125	-1.0625	-0.125	0.0
18	12	03	11	44	28	0.953106262275	-0.16004128208	0.210519596451	-0.45654296875	-0.24609375	0.85107421875	-1.1875	-0.375	-0.375
18	12	03	11	44	28	0.953094013638	-0.160039225345	0.210577928085	-0.46142578125	-0.2421875	0.85302734375	-1.0	-0.5625	-0.375
18	12	03	11	44	28	0.953094013638	-0.160039225345	0.210577928085	-0.4560546875	-0.244140625	0.8515625	-0.75	-0.625	-0.6875
18	12	03	11	44	28	0.953081761922	-0.160037168092	0.21063625747	-0.45458984375	-0.2412109375	0.85205078125	-0.875	-0.6875	-0.5625
18	12	03	11	44	28	0.953081761922	-0.160037168092	0.21063625747	-0.455078125	-0.2451171875	0.857421875	-0.6875	-0.5625	-0.5625
18	12	03	11	44	28	0.953081761922	-0.160037168092	0.21063625747	-0.45166015625	-0.24462890625	0.85595703125	-0.25	-0.8125	-0.75
18	12	03	11	44	28	0.953081761922	-0.160037168092	0.21063625747	-0.44384765625	-0.24755859375	0.86083984375	0.25	-1.0	-0.6875
18	12	03	11	44	28	0.953072450509	-0.160096640262	0.210634199597	-0.4453125	-0.24853515625	0.85888671875	0.875	-0.75	-0.625
18	12	03	11	44	28	0.953084701865	-0.160098698238	0.210575870729	-0.43994140625	-0.2451171875	0.86083984375	0.75	-0.5625	-0.25
18	12	03	11	44	28	0.953094013638	-0.160039225345	0.210577928085	-0.4375	-0.24169921875	0.86767578125	0.6875	-0.125	-0.25
18	12	03	11	44	28	0.953182112291	-0.159799613856	0.210400790283	-0.4326171875	-0.240234375	0.86083984375	1.1875	-0.3125	-0.0625
18	12	03	11	44	28	0.953202122892	-0.159914808348	0.210269662122	-0.42041015625	-0.2421875	0.85888671875	-0.5625	1.125	-0.125
18	12	03	11	44	28	0.953234773148	-0.160042362502	0.210276864538	-0.44873046875	-0.2646484375	0.88525390625	0.25	1.25	-1.4375
18	12	03	11	44	28	0.953277247405	-0.159306800853	0.210516918063	-0.44482421875	-0.22509765625	0.85791015625	3.0625	0.5	1.4375
18	12	03	11	44	28	0.953277247405	-0.159306800853	0.210516918063	-0.44091796875	-0.23046875	0.85400390625	0.5625	-0.5625	0.0625
18	12	03	11	44	28	0.953277247405	-0.159306800853	0.210516918063	-0.44677734375	-0.23681640625	0.86474609375	-0.6875	-0.3125	-0.125
18	12	03	11	44	28	0.953286515073	-0.159247311937	0.210518964687	-0.45654296875	-0.2431640625	0.86767578125	-0.4375	-0.5	0.625
18	12	03	11	44	28	0.953264996882	-0.159304753609	0.210575249023	-0.455078125	-0.23876953125	0.8486328125	0.625	-0.5625	0.75
18	12	03	11	44	28	0.953274264193	-0.159245265417	0.210577296163	-0.455078125	-0.23779296875	0.8525390625	-0.3125	-0.625	0.4375
18	12	03	11	44	28	0.953264996882	-0.159304753609	0.210575249023	-0.453125	-0.24755859375	0.85546875	-0.1875	-1.0	0.0625
18	12	03	11	44	28	0.953264996882	-0.159304753609	0.210575249023	-0.44677734375	-0.25048828125	0.8603515625	0.5	-0.625	0.4375
18	12	03	11	44	28	0.953264996882	-0.159304753609	0.210575249023	-0.45068359375	-0.24169921875	0.8564453125	0.9375	-0.3125	0.375
18	12	03	11	44	28	0.953264996882	-0.159304753609	0.210575249023	-0.44189453125	-0.23974609375	0.859375	0.625	-0.25	0.625
18	12	03	11	44	28	0.953264996882	-0.159304753609	0.210575249023	-0.4453125	-0.24169921875	0.86083984375	0.0625	0.5625	0.25
18	12	03	11	44	28	0.953264996882	-0.159304753609	0.210575249023	-0.44140625	-0.23193359375	0.8583984375	-0.3125	0.4375	0.5
18	12	03	11	44	28	0.953274264193	-0.159245265417	0.210577296163	-0.44482421875	-0.2353515625	0.86328125	-0.8125	0.6875	-0.4375
18	12	03	11	44	28	0.953243112037	-0.159555452063	0.210522859283	-0.4404296875	-0.244140625	0.85986328125	-1.625	0.75	-0.625
18	12	03	11	44	28	0.953243112037	-0.159555452063	0.210522859283	-0.44775390625	-0.24609375	0.8681640625	-0.6875	0.875	-0.5625
18	12	03	11	44	28	0.953243112037	-0.159555452063	0.210522859283	-0.44287109375	-0.24072265625	0.857421875	-0.125	0.3125	-0.6875
18	12	03	11	44	28	0.95326093242	-0.159548218552	0.2104522791	-0.43896484375	-0.23583984375	0.86474609375	-0.5	0.125	-0.625
18	12	03	11	44	28	0.95326093242	-0.159548218552	0.2104522791	-0.4443359375	-0.236328125	0.86572265625	-0.4375	0.0	-0.5625
18	12	03	11	44	28	0.953270213818	-0.159488735351	0.210454328163	-0.443359375	-0.236328125	0.86083984375	-0.6875	-0.1875	-0.3125
18	12	03	11	44	28	0.953270213818	-0.159488735351	0.210454328163	-0.44775390625	-0.24267578125	0.85595703125	-0.6875	-0.25	-0.125
18	12	03	11	44	28	0.953270213818	-0.159488735351	0.210454328163	-0.45068359375	-0.23388671875	0.859375	-0.5625	-0.3125	0.375
18	12	03	11	44	28	0.953270213818	-0.159488735351	0.210454328163	-0.44775390625	-0.2412109375	0.85595703125	-0.875	-0.1875	0.125
18	12	03	11	44	28	0.953227492781	-0.159735951118	0.210458371973	-0.44921875	-0.24560546875	0.85888671875	-1.125	0.0	-0.125
18	12	03	11	44	29	0.953227492781	-0.159735951118	0.210458371973	-0.4541015625	-0.2470703125	0.861328125	-0.4375	-0.375	0.0625
18	12	03	11	44	29	0.953227492781	-0.159735951118	0.210458371973	-0.4462890625	-0.2412109375	0.85986328125	-0.0625	-0.4375	0.375
18	12	03	11	44	29	0.953227492781	-0.159735951118	0.210458371973	-0.44677734375	-0.24658203125	0.86083984375	-0.3125	-0.1875	0.0625
18	12	03	11	44	29	0.953227492781	-0.159735951118	0.210458371973	-0.4443359375	-0.24267578125	0.8603515625	-0.1875	-0.0625	-0.125
18	12	03	11	44	29	0.953227492781	-0.159735951118	0.210458371973	-0.44140625	-0.24609375	0.8623046875	0.1875	-0.0625	-0.0625
18	12	03	11	44	29	0.953239736324	-0.159738002815	0.21040003657	-0.43994140625	-0.24365234375	0.865234375	-0.1875	0.5625	-0.0625
18	12	03	11	44	29	0.953239736324	-0.159738002815	0.21040003657	-0.4404296875	-0.2451171875	0.86083984375	0.0625	0.6875	-0.125
18	12	03	11	44	29	0.953239736324	-0.159738002815	0.21040003657	-0.4453125	-0.23876953125	0.865234375	-0.3125	0.8125	-0.0625
18	12	03	11	44	29	0.953254602332	-0.159669230356	0.210389845962	-0.4453125	-0.23828125	0.857421875	-0.5	0.5	-0.0625
18	12	03	11	44	29	0.953234137441	-0.159798102825	0.210337762542	-0.44677734375	-0.2333984375	0.85888671875	-1.25	-0.25	-0.1875
18	12	03	11	44	29	0.953225070764	-0.16004073353	0.210152648949	-0.443359375	-0.23876953125	0.8623046875	-1.9375	-0.375	-0.1875
18	12	03	11	44	29	0.953225070764	-0.16004073353	0.210152648949	-0.447265625	-0.24462890625	0.86572265625	-0.9375	-0.1875	0.1875
18	12	03	11	44	29	0.953225070764	-0.16004073353	0.210152648949	-0.44482421875	-0.2431640625	0.85888671875	-0.1875	-0.125	0.375
18	12	03	11	44	29	0.953225070764	-0.16004073353	0.210152648949	-0.4462890625	-0.2421875	0.857421875	-0.375	-0.3125	0.25
18	12	03	11	44	29	0.953225070764	-0.16004073353	0.210152648949	-0.44921875	-0.244140625	0.86083984375	-0.3125	-0.3125	0.3125
18	12	03	11	44	29	0.953225070764	-0.16004073353	0.210152648949	-0.44873046875	-0.2451171875	0.8642578125	-0.25	-0.125	0.5
18	12	03	11	44	29	0.953225070764	-0.16004073353	0.210152648949	-0.44677734375	-0.2421875	0.85888671875	-0.1875	0.125	0.25
18	12	03	11	44	29	0.953225070764	-0.16004073353	0.210152648949	-0.44482421875	-0.24462890625	0.861328125	-0.375	0.0	0.25
18	12	03	11	44	29	0.953225070764	-0.16004073353	0.210152648949	-0.44580078125	-0.24365234375	0.86083984375	-0.125	-0.125	0.125
18	12	03	11	44	29	0.953237296456	-0.16004278615	0.210094305846	-0.4462890625	-0.24560546875	0.861328125	0.375	-0.1875	-0.0625
18	12	03	11	44	29	0.953237296456	-0.16004278615	0.210094305846	-0.4462890625	-0.2470703125	0.8623046875	0.3125	-0.0625	-0.25
18	12	03	11	44	29	0.953237296456	-0.16004278615	0.210094305846	-0.4462890625	-0.2421875	0.861328125	0.8125	0.0625	-0.25
18	12	03	11	44	29	0.953237296456	-0.16004278615	0.210094305846	-0.4423828125	-0.240234375	0.86376953125	0.5625	0.125	-0.375
18	12	03	11	44	29	0.953237296456	-0.16004278615	0.210094305846	-0.44970703125	-0.240234375	0.85302734375	0.25	0.3125	-0.5
18	12	03	11	44	29	0.953237296456	-0.16004278615	0.210094305846	-0.4462890625	-0.2392578125	0.85986328125	-0.3125	0.1875	-0.5
18	12	03	11	44	29	0.953237296456	-0.16004278615	0.210094305846	-0.447265625	-0.24609375	0.86083984375	0.4375	-0.375	-0.375
18	12	03	11	44	29	0.953246606765	-0.15998331026	0.210096357846	-0.4453125	-0.232421875	0.859375	0.25	-0.125	-0.125
18	12	03	11	44	29	0.953246606765	-0.15998331026	0.210096357846	-0.4462890625	-0.2470703125	0.8671875	-0.25	-0.25	-0.375
18	12	03	11	44	29	0.953252180418	-0.159974002105	0.210084134012	-0.443359375	-0.24267578125	0.86279296875	0.375	-0.3125	-0.1875
18	12	03	11	44	29	0.953264402036	-0.159976053127	0.210025791229	-0.4423828125	-0.23876953125	0.8623046875	0.375	-0.375	-0.0625
18	12	03	11	44	29	0.953264402036	-0.159976053127	0.210025791229	-0.44189453125	-0.23779296875	0.857421875	-0.0625	-0.1875	-0.125
18	12	03	11	44	29	0.953264402036	-0.159976053127	0.210025791229	-0.4404296875	-0.2470703125	0.86181640625	-0.25	0.0625	-0.1875
18	12	03	11	44	29	0.953264402036	-0.159976053127	0.210025791229	-0.44384765625	-0.24365234375	0.8603515625	0.125	0.0625	0.0
18	12	03	11	44	29	0.953276620573	-0.159978103632	0.209967446201	-0.44091796875	-0.23974609375	0.85986328125	-0.125	0.25	0.0
18	12	03	11	44	29	0.953264402036	-0.159976053127	0.210025791229	-0.44677734375	-0.24365234375	0.85498046875	0.0625	0.25	0.0
18	12	03	11	44	29	0.953273708396	-0.159916578051	0.210027841631	-0.44482421875	-0.236328125	0.85400390625	0.0625	0.625	0.125
18	12	03	11	44	29	0.953273708396	-0.159916578051	0.210027841631	-0.44580078125	-0.240234375	0.861328125	-0.4375	0.75	-0.0625
18	12	03	11	44	29	0.953273708396	-0.159916578051	0.210027841631	-0.44873046875	-0.2421875	0.857421875	-0.5	0.4375	-0.1875
18	12	03	11	44	29	0.953273708396	-0.159916578051	0.210027841631	-0.447265625	-0.24365234375	0.86474609375	-0.3125	0.3125	-0.0625
18	12	03	11	44	29	0.953273708396	-0.159916578051	0.210027841631	-0.44580078125	-0.24072265625	0.85546875	-0.375	0.0625	-0.125
18	12	03	11	44	29	0.953273708396	-0.159916578051	0.210027841631	-0.447265625	-0.24462890625	0.859375	-0.4375	0.0625	-0.0625
18	12	03	11	44	29	0.953273708396	-0.159916578051	0.210027841631	-0.44873046875	-0.2421875	0.859375	-0.5	0.0	-0.3125
18	12	03	11	44	29	0.953273708396	-0.159916578051	0.210027841631	-0.44873046875	-0.24169921875	0.85791015625	-0.5625	0.0625	-0.25
18	12	03	11	44	29	0.953273708396	-0.159916578051	0.210027841631	-0.44580078125	-0.24755859375	0.857421875	-0.25	-0.125	-0.1875
18	12	03	11	44	29	0.953273708396	-0.159916578051	0.210027841631	-0.451171875	-0.234375	0.86083984375	-0.875	-0.125	-0.375
18	12	03	11	44	29	0.953273708396	-0.159916578051	0.210027841631	-0.4462890625	-0.248046875	0.8603515625	-0.8125	0.0625	-0.4375
18	12	03	11	44	29	0.953273708396	-0.159916578051	0.210027841631	-0.44287109375	-0.24560546875	0.85986328125	-0.1875	-0.0625	-0.25
18	12	03	11	44	29	0.95328592729	-0.159918627833	0.209969496086	-0.44482421875	-0.24365234375	0.861328125	-0.4375	0.0625	0.0
18	12	03	11	44	29	0.95328592729	-0.159918627833	0.209969496086	-0.4404296875	-0.2490234375	0.86328125	-0.3125	0.0	-0.125
18	12	03	11	44	29	0.953276620573	-0.159978103632	0.209967446201	-0.44482421875	-0.24658203125	0.8623046875	0.25	-0.1875	0.0
18	12	03	11	44	30	0.95328592729	-0.159918627833	0.209969496086	-0.44384765625	-0.2421875	0.86181640625	0.0	0.0625	0.0
18	12	03	11	44	30	0.953298143103	-0.159920677099	0.209911148299	-0.44189453125	-0.240234375	0.86083984375	0.0	0.0625	-0.125
18	12	03	11	44	30	0.953298143103	-0.159920677099	0.209911148299	-0.44091796875	-0.2421875	0.8623046875	0.3125	0.1875	0.0
18	12	03	11	44	30	0.953298143103	-0.159920677099	0.209911148299	-0.44384765625	-0.240234375	0.85986328125	-0.5	0.125	-0.125
18	12	03	11	44	30	0.953298143103	-0.159920677099	0.209911148299	-0.4453125	-0.24755859375	0.86083984375	-0.0625	-0.125	0.1875
18	12	03	11	44	30	0.953298143103	-0.159920677099	0.209911148299	-0.44384765625	-0.24267578125	0.85400390625	0.125	-0.0625	0.125
18	12	03	11	44	30	0.953298143103	-0.159920677099	0.209911148299	-0.44873046875	-0.2451171875	0.85791015625	0.1875	-0.1875	0.125
18	12	03	11	44	30	0.953298143103	-0.159920677099	0.209911148299	-0.44482421875	-0.2412109375	0.85888671875	0.3125	-0.25	0.0
18	12	03	11	44	30	0.953288836028	-0.15998015362	0.209909098931	-0.447265625	-0.24951171875	0.85595703125	0.75	-0.5	0.125
18	12	03	11	44	30	0.953298143103	-0.159920677099	0.209911148299	-0.451171875	-0.23779296875	0.859375	0.4375	-0.1875	0.25
18	12	03	11	44	30	0.953298143103	-0.159920677099	0.209911148299	-0.44580078125	-0.2490234375	0.86328125	0.5	-0.125	0.25
18	12	03	11	44	30	0.953298143103	-0.159920677099	0.209911148299	-0.44677734375	-0.23681640625	0.85888671875	0.0625	0.125	0.125
18	12	03	11	44	30	0.953298143103	-0.159920677099	0.209911148299	-0.4453125	-0.2412109375	0.86328125	-0.375	-0.0625	0.0
18	12	03	11	44	30	0.953298143103	-0.159920677099	0.209911148299	-0.4462890625	-0.244140625	0.86083984375	-0.3125	-0.25	-0.25
18	12	03	11	44	30	0.953298143103	-0.159920677099	0.209911148299	-0.44140625	-0.244140625	0.85791015625	0.3125	-0.0625	-0.3125
18	12	03	11	44	30	0.953310355834	-0.159922725847	0.209852798268	-0.4423828125	-0.2412109375	0.8583984375	-0.1875	0.0	-0.25
18	12	03	11	44	30	0.953310355834	-0.159922725847	0.209852798268	-0.4462890625	-0.2431640625	0.8603515625	-0.125	-0.0625	0.0
18	12	03	11	44	30	0.953310355834	-0.159922725847	0.209852798268	-0.44287109375	-0.2431640625	0.859375	0.1875	0.0	0.0
18	12	03	11	44	30	0.953310355834	-0.159922725847	0.209852798268	-0.4462890625	-0.244140625	0.86083984375	0.0625	0.0625	0.0625
18	12	03	11	44	30	0.953310355834	-0.159922725847	0.209852798268	-0.4453125	-0.24267578125	0.85791015625	0.3125	-0.0625	0.125
18	12	03	11	44	30	0.953315922085	-0.159913420569	0.209840587754	-0.44482421875	-0.248046875	0.86279296875	0.125	-0.125	-0.0625
18	12	03	11	44	30	0.953315922085	-0.159913420569	0.209840587754	-0.44384765625	-0.24072265625	0.8603515625	-0.125	0.3125	-0.375
18	12	03	11	44	30	0.953304530887	-0.159799671012	0.20997359369	-0.44189453125	-0.2333984375	0.8642578125	0.0	1.0625	-0.125
18	12	03	11	44	30	0.953287878877	-0.159857917453	0.210092001479	-0.44140625	-0.2451171875	0.8564453125	0.1875	1.0625	-0.375
18	12	03	11	44	30	0.953287878877	-0.159857917453	0.210092001479	-0.44775390625	-0.25244140625	0.86865234375	0.1875	0.875	0.125
18	12	03	11	44	30	0.953318397446	-0.159608656721	0.210146311698	-0.44482421875	-0.23828125	0.86474609375	1.0	0.375	0.375
18	12	03	11	44	30	0.953318397446	-0.159608656721	0.210146311698	-0.44482421875	-0.23828125	0.86376953125	0.5	0.3125	0.0
18	12	03	11	44	30	0.953318397446	-0.159608656721	0.210146311698	-0.44921875	-0.2431640625	0.85693359375	0.125	0.375	-0.5
18	12	03	11	44	30	0.953318397446	-0.159608656721	0.210146311698	-0.451171875	-0.24072265625	0.85400390625	0.9375	-0.3125	-0.1875
18	12	03	11	44	30	0.953327682886	-0.159549174919	0.210148358549	-0.44873046875	-0.2333984375	0.86083984375	0.5625	-0.5625	0.1875
18	12	03	11	44	30	0.953318397446	-0.159608656721	0.210146311698	-0.453125	-0.24462890625	0.86279296875	-0.6875	-0.625	-0.75
18	12	03	11	44	30	0.953318397446	-0.159608656721	0.210146311698	-0.443359375	-0.2431640625	0.85986328125	0.25	-0.4375	0.125
18	12	03	11	44	30	0.953327682886	-0.159549174919	0.210148358549	-0.4453125	-0.23828125	0.8603515625	-0.25	0.0	-0.0625
18	12	03	11	44	30	0.953318397446	-0.159608656721	0.210146311698	-0.44970703125	-0.2470703125	0.8583984375	-0.25	-0.0625	-0.25
18	12	03	11	44	30	0.953327682886	-0.159549174919	0.210148358549	-0.4482421875	-0.24169921875	0.859375	0.0	-0.1875	-0.0625
18	12	03	11	44	30	0.953327682886	-0.159549174919	0.210148358549	-0.44189453125	-0.23974609375	0.86328125	0.25	-0.0625	0.0
18	12	03	11	44	30	0.953327682886	-0.159549174919	0.210148358549	-0.4423828125	-0.240234375	0.8564453125	0.4375	0.0625	0.1875
18	12	03	11	44	30	0.953327682886	-0.159549174919	0.210148358549	-0.44140625	-0.234375	0.85791015625	0.0625	0.5	0.5
18	12	03	11	44	30	0.953339909394	-0.159551221151	0.210090016527	-0.44140625	-0.23779296875	0.8662109375	-0.5625	0.375	0.25
18	12	03	11	44	30	0.95334064815	-0.15949030755	0.210090179329	-0.44482421875	-0.236328125	0.8623046875	-0.5	0.3125	0.25
18	12	03	11	44	30	0.95334064815	-0.15949030755	0.210090179329	-0.4453125	-0.23486328125	0.86181640625	-0.6875	0.4375	0.25
18	12	03	11	44	30	0.95334064815	-0.15949030755	0.210090179329	-0.4423828125	-0.2412109375	0.859375	-0.75	0.0	0.25
18	12	03	11	44	30	0.953352871606	-0.159492352488	0.210031835021	-0.43994140625	-0.24560546875	0.86328125	-0.25	-0.1875	0.125
18	12	03	11	44	30	0.953361415695	-0.159493781882	0.210033717358	-0.44189453125	-0.24462890625	0.865234375	-0.5	0.125	0.125
18	12	03	11	44	30	0.953361415695	-0.159493781882	0.210033717358	-0.44140625	-0.2470703125	0.86474609375	-0.0625	0.25	0.3125
18	12	03	11	44	30	0.953361415695	-0.159493781882	0.210033717358	-0.44482421875	-0.23974609375	0.857421875	0.1875	0.5	0.5625
18	12	03	11	44	30	0.953362150949	-0.15943286627	0.21003387934	-0.45166015625	-0.23486328125	0.8603515625	-0.0625	0.5625	0.1875
18	12	03	11	44	30	0.953362150949	-0.15943286627	0.21003387934	-0.451171875	-0.240234375	0.85986328125	0.0	0.25	0.3125
18	12	03	11	44	30	0.953362150949	-0.15943286627	0.21003387934	-0.45556640625	-0.2373046875	0.86328125	-0.6875	0.4375	0.1875
18	12	03	11	44	31	0.953349927136	-0.159430822055	0.210092224163	-0.45263671875	-0.24169921875	0.857421875	-0.0625	0.3125	0.25
18	12	03	11	44	31	0.953349927136	-0.159430822055	0.210092224163	-0.4453125	-0.23876953125	0.85302734375	0.25	-0.125	0.3125
18	12	03	11	44	31	0.953349927136	-0.159430822055	0.210092224163	-0.44775390625	-0.2412109375	0.861328125	-0.125	0.0	0.375
18	12	03	11	44	31	0.953349927136	-0.159430822055	0.210092224163	-0.44384765625	-0.2412109375	0.8623046875	0.25	0.25	0.3125
18	12	03	11	44	31	0.953359202841	-0.159371334824	0.210094268274	-0.44287109375	-0.23193359375	0.86279296875	-0.25	0.625	0.3125
18	12	03	11	44	31	0.953332101067	-0.159488877655	0.210088295785	-0.4443359375	-0.23583984375	0.865234375	-1.3125	0.6875	0.25
18	12	03	11	44	31	0.953260055256	-0.159731179703	0.210146905509	-0.4443359375	-0.2431640625	0.86376953125	-1.25	0.5625	0.375
18	12	03	11	44	31	0.95321876899	-0.159856563744	0.210151259629	-0.44384765625	-0.23876953125	0.86083984375	-1.375	0.5625	0.375
18	12	03	11	44	31	0.953164478772	-0.160040808359	0.210213784893	-0.4462890625	-0.24169921875	0.86328125	-1.125	0.4375	0.25
18	12	03	11	44	31	0.953164478772	-0.160040808359	0.210213784893	-0.44140625	-0.24658203125	0.859375	-0.25	0.375	0.375
18	12	03	11	44	31	0.95317670725	-0.160042861578	0.210155443331	-0.4453125	-0.23876953125	0.8603515625	-0.6875	0.625	0.75
18	12	03	11	44	31	0.95317670725	-0.160042861578	0.210155443331	-0.44921875	-0.24462890625	0.8701171875	-0.375	0.5625	0.3125
18	12	03	11	44	31	0.95317670725	-0.160042861578	0.210155443331	-0.45068359375	-0.2412109375	0.857421875	-0.125	0.625	0.3125
18	12	03	11	44	31	0.95317670725	-0.160042861578	0.210155443331	-0.44775390625	-0.24169921875	0.859375	0.4375	0.5	0.25
18	12	03	11	44	31	0.953173788139	-0.159981333166	0.210215838009	-0.44970703125	-0.23583984375	0.85400390625	0.4375	0.375	0.25
18	12	03	11	44	31	0.953173788139	-0.159981333166	0.210215838009	-0.45458984375	-0.2353515625	0.857421875	-0.25	0.25	0.125
18	12	03	11	44	31	0.953173788139	-0.159981333166	0.210215838009	-0.447265625	-0.24169921875	0.8583984375	-0.5	0.3125	-0.3125
18	12	03	11	44	31	0.953173788139	-0.159981333166	0.210215838009	-0.451171875	-0.2470703125	0.859375	0.4375	0.4375	-0.0625
18	12	03	11	44	31	0.953173788139	-0.159981333166	0.210215838009	-0.44970703125	-0.2431640625	0.8564453125	0.875	0.4375	-0.0625
18	12	03	11	44	31	0.953161556223	-0.159979280152	0.210274177842	-0.451171875	-0.23779296875	0.861328125	0.0	0.8125	0.0
18	12	03	11	44	31	0.953161556223	-0.159979280152	0.210274177842	-0.4560546875	-0.236328125	0.8623046875	0.1875	0.5625	-0.25
18	12	03	11	44	31	0.953161556223	-0.159979280152	0.210274177842	-0.44921875	-0.244140625	0.8544921875	0.5625	0.25	-0.125
18	12	03	11	44	31	0.953161556223	-0.159979280152	0.210274177842	-0.4482421875	-0.23974609375	0.85888671875	0.875	-0.25	-0.1875
18	12	03	11	44	31	0.95320433877	-0.159732071112	0.210270150929	-0.44921875	-0.240234375	0.859375	1.0	-0.5625	0.125
18	12	03	11	44	31	0.953260001987	-0.159425990856	0.21020792975	-0.4462890625	-0.23193359375	0.8642578125	1.0	-0.375	0.25
18	12	03	11	44	31	0.953260001987	-0.159425990856	0.21020792975	-0.451171875	-0.234375	0.86083984375	0.625	0.0	-0.125
18	12	03	11	44	31	0.953260001987	-0.159425990856	0.21020792975	-0.453125	-0.24462890625	0.86474609375	0.4375	-0.1875	-0.4375
18	12	03	11	44	31	0.953269276255	-0.159366505334	0.210209974864	-0.4501953125	-0.2373046875	0.86083984375	0.8125	-0.25	-0.125
18	12	03	11	44	31	0.953248473009	-0.15936302747	0.210266422686	-0.45166015625	-0.224609375	0.8623046875	0.5	-0.125	-0.25
18	12	03	11	44	31	0.953257743389	-0.159303541442	0.210268467536	-0.44677734375	-0.236328125	0.86376953125	-0.5	-0.3125	-0.5
18	12	03	11	44	31	0.953257743389	-0.159303541442	0.210268467536	-0.44482421875	-0.24267578125	0.85400390625	-0.8125	-0.3125	-0.1875
18	12	03	11	44	31	0.953269276255	-0.159366505334	0.210209974864	-0.44091796875	-0.24755859375	0.8583984375	0.125	-0.25	-0.1875
18	12	03	11	44	31	0.953269975875	-0.159305585673	0.21021012914	-0.44775390625	-0.23681640625	0.86474609375	0.5	0.3125	0.1875
18	12	03	11	44	31	0.953257743389	-0.159303541442	0.210268467536	-0.45166015625	-0.23193359375	0.85986328125	-0.375	0.75	-0.125
18	12	03	11	44	31	0.953257743389	-0.159303541442	0.210268467536	-0.451171875	-0.23779296875	0.85791015625	-0.75	0.5	-0.3125
18	12	03	11	44	31	0.953257743389	-0.159303541442	0.210268467536	-0.455078125	-0.24169921875	0.85986328125	-0.25	-0.0625	-0.375
18	12	03	11	44	31	0.953257743389	-0.159303541442	0.210268467536	-0.44921875	-0.2353515625	0.857421875	-0.5	-0.25	-0.4375
18	12	03	11	44	31	0.953245507823	-0.159301496697	0.210326803685	-0.451171875	-0.24169921875	0.85595703125	-0.75	-0.5625	-0.5
18	12	03	11	44	31	0.953267010489	-0.159244053679	0.210270511662	-0.44189453125	-0.23583984375	0.8583984375	-0.625	-0.625	-0.25
18	12	03	11	44	31	0.953252130702	-0.159363638959	0.210206194016	-0.4404296875	-0.23193359375	0.859375	-1.1875	-0.125	-0.0625
18	12	03	11	44	31	0.95320943819	-0.159610852332	0.21021023917	-0.44677734375	-0.23681640625	0.857421875	-1.75	0.3125	-0.5625
18	12	03	11	44	31	0.953160304471	-0.159979070058	0.210151826863	-0.4453125	-0.2451171875	0.86474609375	-2.125	0.375	-0.1875
18	12	03	11	44	31	0.953118202443	-0.160165364279	0.210156001986	-0.447265625	-0.244140625	0.86474609375	-1.1875	0.375	0.0
18	12	03	11	44	31	0.953118202443	-0.160165364279	0.210156001986	-0.4453125	-0.23974609375	0.85400390625	-0.9375	0.5	0.0
18	12	03	11	44	31	0.953118202443	-0.160165364279	0.210156001986	-0.447265625	-0.24658203125	0.8583984375	-0.9375	0.5	-0.125
18	12	03	11	44	31	0.953118202443	-0.160165364279	0.210156001986	-0.4462890625	-0.24169921875	0.86083984375	-0.8125	0.5	-0.1875
18	12	03	11	44	31	0.953118202443	-0.160165364279	0.210156001986	-0.4462890625	-0.24560546875	0.85986328125	-0.25	0.3125	-0.25
18	12	03	11	44	31	0.953118202443	-0.160165364279	0.210156001986	-0.443359375	-0.23779296875	0.86474609375	0.25	0.0625	-0.0625
18	12	03	11	44	31	0.953133106277	-0.160096576445	0.210145830233	-0.4453125	-0.23095703125	0.86376953125	-0.5	0.5	-0.0625
18	12	03	11	44	31	0.953133106277	-0.160096576445	0.210145830233	-0.44677734375	-0.2431640625	0.85986328125	-0.8125	0.75	-0.5
18	12	03	11	44	31	0.953133106277	-0.160096576445	0.210145830233	-0.45068359375	-0.23828125	0.85400390625	-1.0	0.375	-0.125
18	12	03	11	44	32	0.953060927704	-0.160288074558	0.210278909693	-0.4560546875	-0.2392578125	0.85595703125	-1.125	0.1875	0.125
18	12	03	11	44	32	0.953060927704	-0.160288074558	0.210278909693	-0.451171875	-0.248046875	0.8505859375	-0.125	-0.0625	0.125
18	12	03	11	44	32	0.953048693449	-0.160286016972	0.210337248471	-0.4541015625	-0.24462890625	0.857421875	0.375	-0.1875	0.0625
18	12	03	11	44	32	0.953048693449	-0.160286016972	0.210337248471	-0.45654296875	-0.2412109375	0.85595703125	0.4375	-0.3125	0.625
18	12	03	11	44	32	0.953048693449	-0.160286016972	0.210337248471	-0.44970703125	-0.2412109375	0.85693359375	0.3125	-0.625	-0.0625
18	12	03	11	44	32	0.953048693449	-0.160286016972	0.210337248471	-0.45166015625	-0.24169921875	0.85595703125	0.375	-0.625	-0.0625
18	12	03	11	44	32	0.953103059368	-0.160101781923	0.210274738362	-0.4521484375	-0.244140625	0.8525390625	1.0	-0.9375	-0.25
18	12	03	11	44	32	0.953090825057	-0.160099726809	0.21033307609	-0.4521484375	-0.24169921875	0.85595703125	0.875	-1.0	-0.125
18	12	03	11	44	32	0.953143146204	-0.159976190202	0.210148043825	-0.451171875	-0.23974609375	0.86181640625	0.5	-1.1875	-0.125
18	12	03	11	44	32	0.953240466157	-0.159677086474	0.209972927168	-0.4482421875	-0.24072265625	0.86474609375	1.25	-1.3125	-0.1875
18	12	03	11	44	32	0.95332537615	-0.159426716339	0.209781632488	-0.4453125	-0.23876953125	0.86279296875	1.125	-1.0625	-0.125
18	12	03	11	44	32	0.95332537615	-0.159426716339	0.209781632488	-0.44140625	-0.23876953125	0.861328125	0.9375	-0.8125	0.0625
18	12	03	11	44	32	0.953334651139	-0.15936723056	0.209783673472	-0.43994140625	-0.236328125	0.8642578125	0.5625	-0.5	0.1875
18	12	03	11	44	32	0.953346856605	-0.159369270926	0.209725321678	-0.4404296875	-0.23486328125	0.8583984375	-0.0625	0.0625	0.125
18	12	03	11	44	32	0.953346856605	-0.159369270926	0.209725321678	-0.443359375	-0.236328125	0.86279296875	-0.5	0.25	0.25
18	12	03	11	44	32	0.953356128669	-0.159309782689	0.209727361426	-0.43701171875	-0.23388671875	0.86279296875	-0.375	0.25	0.125
18	12	03	11	44	32	0.953356128669	-0.159309782689	0.209727361426	-0.43798828125	-0.23388671875	0.8583984375	-0.8125	0.375	-0.125
18	12	03	11	44	32	0.953368331408	-0.159311821818	0.209669006875	-0.443359375	-0.24169921875	0.8642578125	-0.6875	0.375	-0.375
18	12	03	11	44	32	0.953368331408	-0.159311821818	0.209669006875	-0.44287109375	-0.23681640625	0.86474609375	-0.0625	0.0625	-0.125
18	12	03	11	44	32	0.953377600546	-0.159252331124	0.209671045385	-0.4521484375	-0.2373046875	0.86279296875	-0.0625	-0.3125	0.0
18	12	03	11	44	32	0.953365397451	-0.159250292717	0.209729400451	-0.45361328125	-0.23828125	0.85595703125	0.0	-0.6875	0.0
18	12	03	11	44	32	0.953365397451	-0.159250292717	0.209729400451	-0.451171875	-0.234375	0.859375	-0.375	-0.625	0.0
18	12	03	11	44	32	0.953353191272	-0.159248253795	0.209787753275	-0.45751953125	-0.24365234375	0.86083984375	-0.5	-0.6875	-0.5
18	12	03	11	44	32	0.953353191272	-0.159248253795	0.209787753275	-0.45654296875	-0.24658203125	0.8564453125	0.0625	-1.0	-0.4375
18	12	03	11	44	32	0.953343922846	-0.159307743046	0.209785713735	-0.45361328125	-0.24072265625	0.85205078125	-0.0625	-1.0	-0.5625
18	12	03	11	44	32	0.953331713941	-0.159305702887	0.209844063802	-0.451171875	-0.2451171875	0.85107421875	-0.5	-0.75	-0.375
18	12	03	11	44	32	0.953331713941	-0.159305702887	0.209844063802	-0.44384765625	-0.24658203125	0.859375	0.1875	-0.4375	-0.625
18	12	03	11	44	32	0.953343922846	-0.159307743046	0.209785713735	-0.4384765625	-0.2392578125	0.86181640625	0.8125	-0.0625	-0.1875
18	12	03	11	44	32	0.953343922846	-0.159307743046	0.209785713735	-0.43701171875	-0.23974609375	0.86474609375	0.375	0.625	-0.25
18	12	03	11	44	32	0.953356128669	-0.159309782689	0.209727361426	-0.43896484375	-0.2412109375	0.859375	0.25	0.8125	-0.25
18	12	03	11	44	32	0.953365397451	-0.159250292717	0.209729400451	-0.4365234375	-0.2373046875	0.86328125	0.5	0.8125	0.125
18	12	03	11	44	32	0.953365397451	-0.159250292717	0.209729400451	-0.4423828125	-0.23095703125	0.857421875	0.5	0.5625	0.0625
18	12	03	11	44	32	0.953383159008	-0.159243064139	0.209658844507	-0.4375	-0.24365234375	0.86865234375	0.125	0.0625	-0.0625
18	12	03	11	44	32	0.95339242384	-0.159183574992	0.209660881939	-0.4375	-0.234375	0.8662109375	0.625	0.125	0.3125
18	12	03	11	44	32	0.95339242384	-0.159183574992	0.209660881939	-0.44091796875	-0.23486328125	0.865234375	0.1875	0.375	0.1875
18	12	03	11	44	32	0.953383840941	-0.159182141945	0.209658994471	-0.44287109375	-0.23779296875	0.85888671875	0.25	0.1875	0.25
18	12	03	11	44	32	0.953393102241	-0.159122651571	0.209661031127	-0.44921875	-0.23486328125	0.8603515625	0.5	-0.0625	0.5
18	12	03	11	44	32	0.953393102241	-0.159122651571	0.209661031127	-0.4482421875	-0.23583984375	0.861328125	0.5	-0.5	0.5
18	12	03	11	44	32	0.953400076365	-0.158940704152	0.209723601946	-0.45556640625	-0.23974609375	0.857421875	1.0625	-0.6875	0.5
18	12	03	11	44	32	0.953400076365	-0.158940704152	0.209723601946	-0.45263671875	-0.23828125	0.86083984375	0.375	-0.75	0.3125
18	12	03	11	44	32	0.95340932393	-0.158881208079	0.209725636173	-0.4482421875	-0.23583984375	0.8603515625	0.75	-0.8125	0.4375
18	12	03	11	44	32	0.95340932393	-0.158881208079	0.209725636173	-0.4501953125	-0.2333984375	0.85400390625	0.125	-0.5	0.3125
18	12	03	11	44	32	0.95340932393	-0.158881208079	0.209725636173	-0.44775390625	-0.234375	0.85791015625	-0.5	0.1875	0.0
18	12	03	11	44	32	0.953381571387	-0.159059691103	0.209719531324	-0.4423828125	-0.24072265625	0.85986328125	-1.125	0.3125	-0.1875
18	12	03	11	44	32	0.953357492596	-0.159187933971	0.209727661474	-0.44189453125	-0.2373046875	0.86572265625	-1.125	0.625	-0.1875
18	12	03	11	44	32	0.953317482945	-0.159364360585	0.209779895568	-0.44580078125	-0.2431640625	0.869140625	-1.125	0.625	-0.375
18	12	03	11	44	32	0.953329687752	-0.15936640084	0.209721544729	-0.44287109375	-0.240234375	0.8642578125	-0.8125	0.5625	-0.0625
18	12	03	11	44	32	0.953329687752	-0.15936640084	0.209721544729	-0.44287109375	-0.22998046875	0.8603515625	-0.8125	0.625	-0.3125
18	12	03	11	44	32	0.953322639699	-0.15954833089	0.209658958151	-0.44091796875	-0.23876953125	0.8662109375	-1.375	0.25	-0.5625
18	12	03	11	44	32	0.953331921711	-0.159488847649	0.209660999493	-0.4453125	-0.234375	0.8642578125	-0.6875	0.125	-0.5
18	12	03	11	44	32	0.953331921711	-0.159488847649	0.209660999493	-0.44677734375	-0.23779296875	0.8603515625	-0.9375	-0.25	-0.625
18	12	03	11	44	33	0.953331921711	-0.159488847649	0.209660999493	-0.44140625	-0.23974609375	0.85986328125	-0.6875	-0.0625	-0.625
18	12	03	11	44	33	0.953305012151	-0.159738712819	0.209546427629	-0.44287109375	-0.2451171875	0.86181640625	-1.375	0.0	-0.1875
18	12	03	11	44	33	0.953313598671	-0.159740151602	0.209548315036	-0.44677734375	-0.24951171875	0.85693359375	-0.0625	0.1875	0.1875
18	12	03	11	44	33	0.953313598671	-0.159740151602	0.209548315036	-0.44970703125	-0.24609375	0.861328125	-0.1875	0.0625	0.625
18	12	03	11	44	33	0.953305012151	-0.159738712819	0.209546427629	-0.44775390625	-0.23681640625	0.865234375	0.0625	-0.0625	0.5
18	12	03	11	44	33	0.953305012151	-0.159738712819	0.209546427629	-0.44921875	-0.23876953125	0.86181640625	-0.625	0.125	0.1875
18	12	03	11	44	33	0.953305012151	-0.159738712819	0.209546427629	-0.44384765625	-0.2353515625	0.85986328125	-0.5	0.75	0.375
18	12	03	11	44	33	0.953319871307	-0.15966993939	0.209536277495	-0.4453125	-0.23828125	0.8564453125	-0.6875	0.875	0.0
18	12	03	11	44	33	0.953252721974	-0.15991305747	0.209657004737	-0.447265625	-0.24169921875	0.859375	-1.125	0.75	0.0
18	12	03	11	44	33	0.95324714838	-0.15992236209	0.209669203732	-0.447265625	-0.248046875	0.859375	-0.875	0.375	-0.125
18	12	03	11	44	33	0.953252721974	-0.15991305747	0.209657004737	-0.4423828125	-0.2431640625	0.85888671875	0.0	0.1875	-0.125
18	12	03	11	44	33	0.953252721974	-0.15991305747	0.209657004737	-0.4453125	-0.24365234375	0.86083984375	0.5	0.125	-0.0625
18	12	03	11	44	33	0.95324714838	-0.15992236209	0.209669203732	-0.4501953125	-0.240234375	0.85498046875	0.875	-0.1875	0.0
18	12	03	11	44	33	0.953262024439	-0.159853581893	0.209659050707	-0.447265625	-0.23486328125	0.861328125	0.5	0.0	0.125
18	12	03	11	44	33	0.953262024439	-0.159853581893	0.209659050707	-0.4482421875	-0.23681640625	0.859375	0.625	-0.125	0.375
18	12	03	11	44	33	0.953262024439	-0.159853581893	0.209659050707	-0.44482421875	-0.2353515625	0.8623046875	0.25	-0.0625	-0.1875
18	12	03	11	44	33	0.953262024439	-0.159853581893	0.209659050707	-0.44287109375	-0.24853515625	0.8623046875	-0.5625	-0.125	0.125
18	12	03	11	44	33	0.953262024439	-0.159853581893	0.209659050707	-0.43896484375	-0.23779296875	0.857421875	0.0	0.0	0.625
18	12	03	11	44	33	0.953262024439	-0.159853581893	0.209659050707	-0.44384765625	-0.24072265625	0.8564453125	-0.4375	0.1875	-0.25
18	12	03	11	44	33	0.953271323626	-0.159794104575	0.209661095957	-0.44677734375	-0.2412109375	0.869140625	-0.9375	0.25	-0.125
18	12	03	11	44	33	0.95328352112	-0.159796149206	0.209602741166	-0.443359375	-0.24169921875	0.8623046875	0.5	0.0625	0.0
18	12	03	11	44	33	0.953271323626	-0.159794104575	0.209661095957	-0.44775390625	-0.23974609375	0.85498046875	0.25	0.0625	0.0625
18	12	03	11	44	33	0.95328352112	-0.159796149206	0.209602741166	-0.4462890625	-0.244140625	0.8642578125	-0.0625	-0.375	0.0625
18	12	03	11	44	33	0.95328352112	-0.159796149206	0.209602741166	-0.4423828125	-0.2392578125	0.8642578125	-0.0625	-0.1875	0.0
18	12	03	11	44	33	0.95328352112	-0.159796149206	0.209602741166	-0.44189453125	-0.24560546875	0.86279296875	-0.3125	0.0	-0.1875
18	12	03	11	44	33	0.95328352112	-0.159796149206	0.209602741166	-0.443359375	-0.23583984375	0.85693359375	0.3125	0.25	-0.1875
18	12	03	11	44	33	0.95328352112	-0.159796149206	0.209602741166	-0.4482421875	-0.2392578125	0.8505859375	0.125	0.0625	-0.125
18	12	03	11	44	33	0.95328352112	-0.159796149206	0.209602741166	-0.451171875	-0.24072265625	0.86083984375	-0.375	-0.0625	-0.125
18	12	03	11	44	33	0.953284227875	-0.159735230141	0.209602896563	-0.45068359375	-0.23779296875	0.8642578125	-0.0625	-0.125	0.0
18	12	03	11	44	33	0.953284227875	-0.159735230141	0.209602896563	-0.4443359375	-0.23876953125	0.857421875	0.25	0.1875	0.1875
18	12	03	11	44	33	0.953284227875	-0.159735230141	0.209602896563	-0.439453125	-0.2392578125	0.85595703125	0.0625	0.1875	-0.0625
18	12	03	11	44	33	0.953284227875	-0.159735230141	0.209602896563	-0.4384765625	-0.2431640625	0.86279296875	-0.1875	0.0	0.125
18	12	03	11	44	33	0.953284227875	-0.159735230141	0.209602896563	-0.44287109375	-0.23974609375	0.86181640625	0.125	0.5625	0.125
18	12	03	11	44	33	0.953284227875	-0.159735230141	0.209602896563	-0.4462890625	-0.2353515625	0.859375	-0.4375	0.8125	-0.125
18	12	03	11	44	33	0.953293520608	-0.15967574913	0.209604939798	-0.4453125	-0.23828125	0.853515625	-0.5625	0.4375	-0.1875
18	12	03	11	44	33	0.953293520608	-0.15967574913	0.209604939798	-0.44580078125	-0.2421875	0.8603515625	-0.375	0.0625	-0.0625
18	12	03	11	44	33	0.953293520608	-0.15967574913	0.209604939798	-0.44580078125	-0.24169921875	0.859375	-0.25	0.125	0.125
18	12	03	11	44	33	0.953284227875	-0.159735230141	0.209602896563	-0.443359375	-0.2451171875	0.85546875	-0.25	0.3125	-0.1875
18	12	03	11	44	33	0.953284227875	-0.159735230141	0.209602896563	-0.4443359375	-0.24169921875	0.8544921875	-0.0625	0.125	0.125
18	12	03	11	44	33	0.953293520608	-0.15967574913	0.209604939798	-0.44873046875	-0.23681640625	0.85498046875	-0.0625	0.25	0.3125
18	12	03	11	44	33	0.953293520608	-0.15967574913	0.209604939798	-0.44482421875	-0.2412109375	0.859375	-0.4375	0.1875	0.25
18	12	03	11	44	33	0.953293520608	-0.15967574913	0.209604939798	-0.447265625	-0.24609375	0.86279296875	-0.1875	0.1875	0.125
18	12	03	11	44	33	0.953284227875	-0.159735230141	0.209602896563	-0.4462890625	-0.24267578125	0.85302734375	-0.0625	0.3125	0.0625
18	12	03	11	44	33	0.953284227875	-0.159735230141	0.209602896563	-0.4462890625	-0.24169921875	0.86279296875	0.0	0.3125	0.0625
18	12	03	11	44	33	0.953293520608	-0.15967574913	0.209604939798	-0.4482421875	-0.2392578125	0.8583984375	-0.0625	0.3125	0.0
18	12	03	11	44	33	0.953293520608	-0.15967574913	0.209604939798	-0.4453125	-0.24072265625	0.85791015625	-0.6875	0.375	-0.125
18	12	03	11	44	33	0.953284227875	-0.159735230141	0.209602896563	-0.44775390625	-0.24658203125	0.8603515625	-0.25	0.125	-0.0625
18	12	03	11	44	33	0.953293520608	-0.15967574913	0.209604939798	-0.4482421875	-0.2412109375	0.859375	0.25	0.0	-0.125
18	12	03	11	44	33	0.953284227875	-0.159735230141	0.209602896563	-0.44580078125	-0.24560546875	0.86181640625	0.5	0.0	-0.0625
18	12	03	11	44	33	0.953293520608	-0.15967574913	0.209604939798	-0.451171875	-0.23486328125	0.86279296875	0.5625	0.125	-0.125
18	12	03	11	44	34	0.953293520608	-0.15967574913	0.209604939798	-0.4482421875	-0.240234375	0.85888671875	0.0625	0.0	-0.1875
18	12	03	11	44	34	0.953293520608	-0.15967574913	0.209604939798	-0.4453125	-0.23974609375	0.861328125	0.75	-0.0625	0.0
18	12	03	11	44	34	0.953293520608	-0.15967574913	0.209604939798	-0.44482421875	-0.2353515625	0.85888671875	0.4375	-0.1875	0.25
18	12	03	11	44	34	0.953293520608	-0.15967574913	0.209604939798	-0.44677734375	-0.24169921875	0.86279296875	0.0625	-0.1875	0.0
18	12	03	11	44	34	0.953293520608	-0.15967574913	0.209604939798	-0.44482421875	-0.2431640625	0.86083984375	0.625	-0.3125	0.125
18	12	03	11	44	34	0.953302810062	-0.159616266379	0.209606982312	-0.44677734375	-0.2353515625	0.86083984375	0.375	-0.125	0.25
18	12	03	11	44	34	0.953302810062	-0.159616266379	0.209606982312	-0.44580078125	-0.23779296875	0.85791015625	0.1875	-0.125	0.125
18	12	03	11	44	34	0.953302810062	-0.159616266379	0.209606982312	-0.44384765625	-0.23779296875	0.8623046875	0.0	-0.25	0.0625
18	12	03	11	44	34	0.953302810062	-0.159616266379	0.209606982312	-0.44384765625	-0.24365234375	0.8623046875	0.0625	-0.3125	0.0
18	12	03	11	44	34	0.953302810062	-0.159616266379	0.209606982312	-0.44384765625	-0.24365234375	0.86572265625	0.25	-0.3125	0.25
18	12	03	11	44	34	0.953302810062	-0.159616266379	0.209606982312	-0.4482421875	-0.2421875	0.85595703125	0.8125	-0.0625	0.3125
18	12	03	11	44	34	0.953324706685	-0.159365568164	0.209659412732	-0.45068359375	-0.23876953125	0.8603515625	1.125	-0.125	0.5625
18	12	03	11	44	34	0.953321776682	-0.159304042329	0.209719804384	-0.4501953125	-0.23193359375	0.8525390625	0.875	0.0625	0.1875
18	12	03	11	44	34	0.953321776682	-0.159304042329	0.209719804384	-0.44970703125	-0.2373046875	0.86083984375	0.125	-0.0625	0.0
18	12	03	11	44	34	0.953313180388	-0.159302605853	0.209717913299	-0.4453125	-0.2333984375	0.86181640625	0.75	-0.25	0.3125
18	12	03	11	44	34	0.953322447917	-0.159243118421	0.209719952048	-0.4423828125	-0.228515625	0.86328125	-0.3125	-0.3125	0.0625
18	12	03	11	44	34	0.953334649363	-0.159245156552	0.20966159937	-0.4423828125	-0.24267578125	0.859375	-0.75	-0.1875	-0.25
18	12	03	11	44	34	0.953334649363	-0.159245156552	0.20966159937	-0.4423828125	-0.240234375	0.861328125	0.0625	-0.125	-0.1875
18	12	03	11	44	34	0.953334649363	-0.159245156552	0.20966159937	-0.44091796875	-0.23681640625	0.86767578125	0.3125	0.0625	0.25
18	12	03	11	44	34	0.953334649363	-0.159245156552	0.20966159937	-0.4443359375	-0.2373046875	0.85791015625	0.125	0.25	0.0
18	12	03	11	44	34	0.953343913967	-0.159185666664	0.209663636883	-0.4453125	-0.236328125	0.861328125	-0.375	0.25	-0.125
