18	12	12	15	36	26	0.852651214976	0.00885062826054	0.487944291826	-0.79736328125	0.2177734375	0.54345703125	8.375	-0.625	5.1875
18	12	12	15	36	26	0.852589010377	0.0106207393904	0.487760508443	-0.7998046875	0.224609375	0.55078125	6.0	-0.0625	6.6875
18	12	12	15	36	26	0.852322396877	0.0120853505143	0.487747656362	-0.80126953125	0.232421875	0.54248046875	3.4375	1.3125	7.9375
18	12	12	15	36	26	0.851905109143	0.0128179460428	0.487936479364	-0.8193359375	0.22119140625	0.53759765625	-0.5	2.4375	8.0
18	12	12	15	36	26	0.851403087637	0.0131229237825	0.488233801563	-0.8349609375	0.22265625	0.52587890625	-2.75	2.5	8.125
18	12	12	15	36	26	0.850923044639	0.0131230510435	0.488421648605	-0.83642578125	0.21484375	0.517578125	-4.6875	1.875	8.1875
18	12	12	15	36	26	0.850526438611	0.0128183258295	0.488561333045	-0.83203125	0.20263671875	0.5185546875	-5.0625	1.75	7.125
18	12	12	15	36	26	0.850095466415	0.0126961913559	0.488925445967	-0.83447265625	0.2001953125	0.50927734375	-2.8125	2.0625	5.5625
18	12	12	15	36	26	0.849739416677	0.0127573836711	0.489297547883	-0.83349609375	0.20263671875	0.50830078125	-0.5	1.8125	4.25
18	12	12	15	36	26	0.849438852732	0.0134288982179	0.48972750183	-0.83837890625	0.21484375	0.51171875	3.0625	1.25	3.25
18	12	12	15	36	26	0.849166772788	0.0147713024019	0.490138670607	-0.83251953125	0.2333984375	0.5126953125	6.125	0.625	3.125
18	12	12	15	36	26	0.84913210656	0.016114648561	0.490275974401	-0.81982421875	0.228515625	0.5185546875	7.125	-0.4375	1.8125
18	12	12	15	36	26	0.849215253747	0.0176398482235	0.49025349803	-0.8095703125	0.23193359375	0.529296875	8.4375	-0.8125	1.0
18	12	12	15	36	26	0.849270029703	0.0194097936931	0.490310920555	-0.806640625	0.234375	0.52880859375	9.75	-0.8125	1.25
18	12	12	15	36	26	0.849332810273	0.0214240615455	0.490311927051	-0.79833984375	0.2412109375	0.52734375	10.9375	-0.9375	2.0
18	12	12	15	36	26	0.849394814227	0.0235603907942	0.49025144782	-0.7958984375	0.2431640625	0.53564453125	10.9375	-1.0625	2.875
18	12	12	15	36	26	0.849415489998	0.0252700497887	0.490080265105	-0.79833984375	0.2529296875	0.54248046875	7.625	-0.5625	3.8125
18	12	12	15	36	26	0.849415607092	0.0266739451207	0.489836177559	-0.79638671875	0.25830078125	0.5380859375	4.5625	-0.375	4.25
18	12	12	15	36	26	0.849395886982	0.0277719983168	0.489519618683	-0.8056640625	0.25537109375	0.54345703125	3.0	-0.5625	5.5
18	12	12	15	36	26	0.849224998481	0.0287490098674	0.48934355012	-0.80517578125	0.26220703125	0.53076171875	0.75	-0.125	6.5
18	12	12	15	36	26	0.849031990887	0.0291149000469	0.489215773325	-0.8076171875	0.26171875	0.53271484375	-1.8125	0.8125	5.4375
18	12	12	15	36	26	0.848790958754	0.0290539692483	0.489217570431	-0.8212890625	0.2470703125	0.5263671875	-3.375	0.9375	4.625
18	12	12	15	36	26	0.848490348927	0.0288099737209	0.489281248615	-0.82177734375	0.25634765625	0.5166015625	-4.5625	1.5625	4.6875
18	12	12	15	36	26	0.848148794911	0.0282614531877	0.489478602835	-0.8232421875	0.24169921875	0.51171875	-5.5	2.0625	4.0
18	12	12	15	36	26	0.847886442371	0.0277114998803	0.4895901774	-0.82666015625	0.2451171875	0.5146484375	-5.375	1.625	3.375
18	12	12	15	36	26	0.847696999167	0.0271619502181	0.489647561011	-0.8232421875	0.23876953125	0.515625	-4.5	1.1875	2.5625
18	12	12	15	36	26	0.847508829721	0.0267955618471	0.489766715858	-0.826171875	0.240234375	0.51611328125	-3.0	1.0625	2.0
18	12	12	15	36	26	0.847320962441	0.0266733367373	0.489947080069	-0.8232421875	0.24169921875	0.5107421875	-1.625	0.875	1.75
18	12	12	15	36	26	0.847159627976	0.0264909055798	0.490081753226	-0.82421875	0.2509765625	0.51171875	-1.9375	0.75	1.375
18	12	12	15	36	26	0.847130769747	0.026367929428	0.490065058743	-0.8232421875	0.24365234375	0.51171875	-1.375	-0.125	0.5
18	12	12	15	36	26	0.847113533461	0.0263692928704	0.490090399205	-0.8203125	0.2373046875	0.5126953125	0.3125	-0.875	0.5
18	12	12	15	36	26	0.847170317016	0.0266743589982	0.490026897111	-0.81103515625	0.2392578125	0.513671875	1.9375	-0.75	0.375
18	12	12	15	36	26	0.847135844618	0.0273446832184	0.490129031795	-0.8173828125	0.24609375	0.51171875	3.875	-0.5625	0.6875
18	12	12	15	36	26	0.847194571477	0.0282601647402	0.49012769517	-0.81298828125	0.25439453125	0.5224609375	4.9375	-0.875	0.25
18	12	12	15	36	26	0.847243494273	0.0291142674712	0.490120687199	-0.814453125	0.255859375	0.51708984375	4.9375	-1.0	0.1875
18	12	12	15	36	26	0.847347041532	0.0297871600827	0.490023199065	-0.81201171875	0.2548828125	0.52734375	3.6875	-1.0	0.0625
18	12	12	15	36	26	0.847454243919	0.0301528663567	0.489892521009	-0.8115234375	0.24462890625	0.52392578125	2.4375	-0.8125	0.0
18	12	12	15	36	26	0.847523166633	0.030519379425	0.489775001013	-0.814453125	0.2578125	0.52685546875	1.75	-0.6875	0.25
18	12	12	15	36	26	0.847578677595	0.0308243721868	0.489710768425	-0.814453125	0.25244140625	0.517578125	1.375	-0.8125	-0.125
18	12	12	15	36	26	0.847637304806	0.0310073990668	0.489648337233	-0.81640625	0.24853515625	0.515625	1.3125	-0.875	-0.1875
18	12	12	15	36	26	0.847706327126	0.0311908073993	0.489591910274	-0.8154296875	0.25	0.51806640625	1.3125	-0.5625	-0.25
18	12	12	15	36	26	0.847745477966	0.0313731136637	0.489640307023	-0.81982421875	0.24365234375	0.51318359375	1.9375	-0.5	-0.5625
18	12	12	15	36	26	0.847758564718	0.031495674231	0.48970890379	-0.81982421875	0.25048828125	0.51513671875	1.3125	-0.1875	-1.0
18	12	12	15	36	26	0.847788753686	0.0316166000295	0.48975212092	-0.81982421875	0.2529296875	0.52197265625	1.1875	0.125	-1.125
18	12	12	15	36	26	0.847856244193	0.0316778770957	0.489755849356	-0.822265625	0.2548828125	0.52001953125	1.0	-0.4375	-1.4375
18	12	12	15	36	27	0.847967248732	0.031618703919	0.489662630962	-0.81689453125	0.24853515625	0.5146484375	0.125	-0.875	-1.6875
18	12	12	15	36	27	0.848061260874	0.03149558159	0.489585387467	-0.8125	0.25244140625	0.51904296875	-0.375	-0.3125	-1.5
18	12	12	15	36	27	0.848124716073	0.0313125569878	0.489586782844	-0.81787109375	0.2421875	0.51513671875	0.0	0.0	-1.75
18	12	12	15	36	27	0.848193581736	0.0313128459579	0.48959130103	-0.81201171875	0.2509765625	0.5185546875	0.75	-0.0625	-1.8125
18	12	12	15	36	27	0.848248958694	0.0312515986797	0.4896490715	-0.8212890625	0.25048828125	0.52197265625	0.5625	0.0625	-2.0625
18	12	12	15	36	27	0.848315388878	0.0309466039834	0.489652183737	-0.81640625	0.2421875	0.5166015625	-0.4375	0.0625	-1.9375
18	12	12	15	36	27	0.848432854293	0.0307022824251	0.489588483761	-0.8173828125	0.23779296875	0.52197265625	-0.1875	0.0	-1.875
18	12	12	15	36	27	0.848485580334	0.0305188684388	0.489583687494	-0.81396484375	0.251953125	0.525390625	-0.5	0.625	-2.0
18	12	12	15	36	27	0.848500494903	0.0301531720367	0.489653332142	-0.81884765625	0.244140625	0.525390625	-1.3125	0.6875	-2.0
18	12	12	15	36	27	0.848572807905	0.0297873349344	0.489598798173	-0.81591796875	0.24853515625	0.52587890625	-1.25	0.625	-1.875
18	12	12	15	36	27	0.848621152903	0.029359618395	0.489591474317	-0.8125	0.24609375	0.52392578125	-1.8125	0.8125	-2.1875
18	12	12	15	36	27	0.848722558303	0.0286874938801	0.489457475371	-0.8115234375	0.23681640625	0.52587890625	-3.125	0.4375	-1.9375
18	12	12	15	36	27	0.848805037493	0.028077830954	0.489347762518	-0.80859375	0.23193359375	0.5234375	-2.8125	0.375	-1.5
18	12	12	15	36	27	0.848892268622	0.02777149714	0.489266639723	-0.80859375	0.22802734375	0.52392578125	-0.75	0.5	-1.125
18	12	12	15	36	27	0.848892268622	0.02777149714	0.489266639723	-0.814453125	0.236328125	0.5185546875	0.6875	0.6875	-0.6875
18	12	12	15	36	27	0.84891761865	0.0277723264657	0.489220212358	-0.8173828125	0.23876953125	0.52001953125	0.5	0.625	-0.375
18	12	12	15	36	27	0.84891761865	0.0277723264657	0.489220212358	-0.82275390625	0.244140625	0.5224609375	-0.3125	0.625	-0.375
18	12	12	15	36	27	0.84891761865	0.0277723264657	0.489220212358	-0.8212890625	0.2412109375	0.5205078125	-0.1875	0.125	-0.6875
18	12	12	15	36	27	0.84891761865	0.0277723264657	0.489220212358	-0.822265625	0.2451171875	0.5205078125	-0.375	0.0625	-0.5625
18	12	12	15	36	27	0.848913084859	0.0275280271262	0.489217599593	-0.8212890625	0.248046875	0.5234375	-1.75	0.25	-0.8125
18	12	12	15	36	27	0.848980465969	0.0271009653383	0.489099178504	-0.8193359375	0.24560546875	0.52880859375	-2.375	0.375	-1.1875
18	12	12	15	36	27	0.848925895733	0.0267349397707	0.489163943659	-0.8173828125	0.24462890625	0.52197265625	-2.25	1.0625	-1.125
18	12	12	15	36	27	0.848890987818	0.026489695766	0.489265901521	-0.8193359375	0.24462890625	0.5224609375	-1.0	1.0	-1.25
18	12	12	15	36	27	0.848968293367	0.0263070914114	0.489214240516	-0.82470703125	0.24658203125	0.52734375	-0.625	0.125	-1.875
18	12	12	15	36	27	0.84909197027	0.0259409163514	0.489093088762	-0.82080078125	0.23876953125	0.52392578125	-1.4375	-0.4375	-2.25
18	12	12	15	36	27	0.849243470101	0.0254534986726	0.488926916949	-0.81982421875	0.22998046875	0.52197265625	-2.1875	-0.625	-2.125
18	12	12	15	36	27	0.849371035871	0.0247194071233	0.488772869736	-0.81591796875	0.2158203125	0.5166015625	-2.875	-0.5	-1.5625
18	12	12	15	36	27	0.849447602864	0.0242926022807	0.488659733314	-0.81103515625	0.21923828125	0.51318359375	-2.0	-0.3125	-0.4375
18	12	12	15	36	27	0.849448860795	0.0242316014756	0.488660456961	-0.80908203125	0.22705078125	0.51171875	-0.9375	0.1875	0.1875
18	12	12	15	36	27	0.849351017806	0.0241102157408	0.488735436548	-0.8115234375	0.2373046875	0.51318359375	-1.5	0.5	0.4375
18	12	12	15	36	27	0.849236259128	0.02380522828	0.48880068735	-0.81103515625	0.2333984375	0.51416015625	-2.4375	1.1875	0.8125
18	12	12	15	36	27	0.849054793273	0.0234390395842	0.488984755493	-0.814453125	0.2314453125	0.51806640625	-2.6875	1.875	0.875
18	12	12	15	36	27	0.848900404229	0.0230719264307	0.489149255069	-0.8193359375	0.228515625	0.51953125	-2.3125	1.875	0.75
18	12	12	15	36	27	0.848728725757	0.0227060112177	0.489338956807	-0.82421875	0.23095703125	0.52001953125	-2.1875	1.8125	0.75
18	12	12	15	36	27	0.848580988774	0.0224017567889	0.489481437849	-0.8203125	0.23291015625	0.5234375	-2.5	1.625	0.75
18	12	12	15	36	27	0.848425928653	0.0220346590103	0.489645525155	-0.8271484375	0.2333984375	0.52099609375	-2.3125	1.6875	0.6875
18	12	12	15	36	27	0.848296007258	0.0216682315856	0.489763071106	-0.8212890625	0.2314453125	0.52099609375	-2.4375	1.375	0.375
18	12	12	15	36	27	0.848253357861	0.0213635083292	0.489773688097	-0.8232421875	0.22900390625	0.529296875	-1.9375	1.0	0.375
18	12	12	15	36	27	0.84817485541	0.0210578817729	0.489824641239	-0.82568359375	0.2373046875	0.5224609375	-1.875	1.0625	0.0625
18	12	12	15	36	27	0.848143437034	0.0206923803638	0.489841747549	-0.82177734375	0.2275390625	0.52294921875	-2.0625	0.75	-0.25
18	12	12	15	36	27	0.84817045367	0.0203863652509	0.489761062194	-0.8193359375	0.22900390625	0.521484375	-2.1875	0.0625	-0.125
18	12	12	15	36	27	0.848184785644	0.0200815194644	0.489647261833	-0.8193359375	0.236328125	0.5205078125	-2.375	0.0625	-0.125
18	12	12	15	36	27	0.848177700935	0.0195320138385	0.48958213437	-0.82177734375	0.23583984375	0.51806640625	-3.4375	0.25	-0.75
18	12	12	15	36	27	0.8481921502	0.0189219607486	0.48952943614	-0.822265625	0.22216796875	0.5205078125	-3.25	0.3125	-0.6875
18	12	12	15	36	27	0.848130149432	0.0185557081992	0.489650957808	-0.82177734375	0.2236328125	0.509765625	-1.75	0.625	-0.8125
18	12	12	15	36	27	0.848136796315	0.0181285806769	0.489654795253	-0.82275390625	0.228515625	0.51513671875	-2.25	0.375	-1.3125
18	12	12	15	36	27	0.848192982892	0.0175180905361	0.489529916724	-0.8193359375	0.232421875	0.515625	-3.6875	-0.0625	-1.6875
18	12	12	15	36	27	0.848237400144	0.016663223015	0.489459287023	-0.82421875	0.22412109375	0.51416015625	-4.6875	0.0625	-1.9375
18	12	12	15	36	27	0.848252806382	0.0158700244412	0.489407138344	-0.82373046875	0.21923828125	0.51171875	-3.9375	0.1875	-1.4375
18	12	12	15	36	27	0.84824358308	0.0154425866388	0.489462854768	-0.82470703125	0.21337890625	0.51025390625	-1.875	0.0625	-1.0625
18	12	12	15	36	28	0.848304034706	0.015320500267	0.489462516499	-0.83056640625	0.2138671875	0.509765625	0.375	-0.75	-1.0625
18	12	12	15	36	28	0.848449868822	0.0154430084037	0.489354143766	-0.8251953125	0.21728515625	0.513671875	1.4375	-1.6875	-1.0625
18	12	12	15	36	28	0.848664648045	0.015625586155	0.489154091587	-0.82568359375	0.2099609375	0.51611328125	2.375	-2.0625	-1.3125
18	12	12	15	36	28	0.848842996204	0.0161137952828	0.489029271992	-0.8203125	0.22021484375	0.51708984375	3.4375	-1.9375	-1.1875
18	12	12	15	36	28	0.848931473492	0.0166026287597	0.489106118572	-0.82373046875	0.2177734375	0.5087890625	4.125	-1.375	-1.3125
18	12	12	15	36	28	0.849085594606	0.0173345057054	0.489089416259	-0.8251953125	0.2265625	0.5185546875	4.9375	-1.3125	-1.5625
18	12	12	15	36	28	0.849211547356	0.0180670321295	0.489091650181	-0.8212890625	0.2314453125	0.51904296875	5.125	-1.375	-1.6875
18	12	12	15	36	28	0.849362071368	0.0188001090896	0.48904699359	-0.81591796875	0.22802734375	0.52099609375	5.1875	-1.375	-1.4375
18	12	12	15	36	28	0.849470301852	0.0195933007756	0.489100059549	-0.81884765625	0.2255859375	0.515625	5.5	-1.125	-1.125
18	12	12	15	36	28	0.849572407696	0.0203863197191	0.489088562603	-0.81787109375	0.22998046875	0.52294921875	5.125	-0.9375	-0.8125
18	12	12	15	36	28	0.849676353616	0.0209367090008	0.489052223073	-0.82177734375	0.2265625	0.525390625	3.875	-0.9375	-0.5
18	12	12	15	36	28	0.849762454629	0.0214241216474	0.489031517489	-0.8251953125	0.22802734375	0.5205078125	3.3125	-0.9375	-0.625
18	12	12	15	36	28	0.8498735853	0.0219121385466	0.488964183556	-0.81884765625	0.2294921875	0.52392578125	3.25	-0.9375	-0.625
18	12	12	15	36	28	0.849957324331	0.022401029661	0.488916205953	-0.8212890625	0.23095703125	0.5283203125	3.125	-0.5625	-0.375
18	12	12	15	36	28	0.850006496494	0.0228279785788	0.488909380792	-0.8173828125	0.234375	0.52294921875	2.4375	-0.4375	-0.5
18	12	12	15	36	28	0.850074335038	0.0230723126764	0.488852254564	-0.82080078125	0.234375	0.5234375	1.5625	-0.4375	-0.5
18	12	12	15	36	28	0.850074335038	0.0230723126764	0.488852254564	-0.8154296875	0.22412109375	0.5283203125	0.6875	-0.3125	-0.3125
18	12	12	15	36	28	0.850074335038	0.0230723126764	0.488852254564	-0.81982421875	0.23046875	0.5244140625	-0.25	-0.4375	-0.1875
18	12	12	15	36	28	0.850155865958	0.0228897508425	0.488619881318	-0.8232421875	0.23828125	0.52001953125	-2.0625	-1.3125	0.0625
18	12	12	15	36	28	0.85027174974	0.0225843896198	0.488311126914	-0.818359375	0.22900390625	0.51708984375	-2.875	-1.625	0.3125
18	12	12	15	36	28	0.850383487795	0.0222178861296	0.488061037066	-0.82275390625	0.22216796875	0.5185546875	-2.5625	-1.1875	0.375
18	12	12	15	36	28	0.850425202144	0.0219732342476	0.48792787382	-0.81494140625	0.22216796875	0.51953125	-1.875	-0.5625	0.25
18	12	12	15	36	28	0.850426341131	0.0219122268331	0.487928527309	-0.81640625	0.21630859375	0.5185546875	-0.4375	-0.625	0.375
18	12	12	15	36	28	0.850426341131	0.0219122268331	0.487928527309	-0.81982421875	0.23046875	0.51904296875	0.8125	-0.25	0.5625
18	12	12	15	36	28	0.850396366967	0.0223403007687	0.488007389743	-0.822265625	0.23095703125	0.52734375	2.4375	0.1875	0.3125
18	12	12	15	36	28	0.85039088097	0.0228895047634	0.488065280235	-0.8232421875	0.23193359375	0.52734375	3.1875	0.0	0.375
18	12	12	15	36	28	0.850326430277	0.023499797262	0.488246437139	-0.81787109375	0.2373046875	0.5224609375	3.4375	0.375	0.25
18	12	12	15	36	28	0.850330409379	0.0238051008297	0.488248721888	-0.8193359375	0.23388671875	0.529296875	1.625	0.0625	0.1875
18	12	12	15	36	28	0.850347312016	0.0238038653235	0.488223381339	-0.814453125	0.22802734375	0.5263671875	0.0625	0.0	0.375
18	12	12	15	36	28	0.850372651051	0.0238045746418	0.48817689227	-0.81787109375	0.22412109375	0.5205078125	-0.0625	0.3125	0.375
18	12	12	15	36	28	0.850347312016	0.0238038653235	0.488223381339	-0.8193359375	0.22900390625	0.517578125	0.125	0.375	0.375
18	12	12	15	36	28	0.850330409379	0.0238051008297	0.488248721888	-0.82177734375	0.2294921875	0.517578125	0.0625	0.25	0.5
18	12	12	15	36	28	0.850330409379	0.0238051008297	0.488248721888	-0.8203125	0.23291015625	0.5166015625	0.375	0.1875	0.4375
18	12	12	15	36	28	0.850330409379	0.0238051008297	0.488248721888	-0.8212890625	0.23193359375	0.51513671875	0.625	-0.25	0.5
18	12	12	15	36	28	0.850325441846	0.0240491152169	0.488245869595	-0.8212890625	0.23046875	0.51953125	1.25	-0.3125	0.875
18	12	12	15	36	28	0.850266795193	0.0243543755407	0.488308281518	-0.8212890625	0.23388671875	0.52197265625	1.1875	-0.25	0.875
18	12	12	15	36	28	0.850261714021	0.0245983826813	0.4883053634	-0.822265625	0.23291015625	0.52099609375	1.125	-0.125	0.5625
18	12	12	15	36	28	0.850261714021	0.0245983826813	0.4883053634	-0.8232421875	0.2373046875	0.5205078125	0.9375	-0.0625	0.375
18	12	12	15	36	28	0.850261714021	0.0245983826813	0.4883053634	-0.82080078125	0.23828125	0.5166015625	0.4375	0.0625	0.4375
18	12	12	15	36	28	0.850261714021	0.0245983826813	0.4883053634	-0.81787109375	0.2314453125	0.5205078125	0.3125	0.3125	0.5625
18	12	12	15	36	28	0.850236371293	0.0245976495069	0.488351845421	-0.8203125	0.23095703125	0.517578125	0.6875	0.4375	0.375
18	12	12	15	36	28	0.850235093209	0.0246586487909	0.488351111326	-0.82568359375	0.234375	0.517578125	0.625	0.125	0.125
18	12	12	15	36	28	0.850218178728	0.0246599285093	0.488376455453	-0.822265625	0.23583984375	0.52001953125	0.75	-0.125	-0.0625
18	12	12	15	36	28	0.850252755667	0.0247812360948	0.488361256145	-0.81982421875	0.23046875	0.52099609375	1.125	-0.1875	-0.0625
18	12	12	15	36	28	0.850241155844	0.0250860814826	0.488415630227	-0.81884765625	0.23681640625	0.5205078125	1.6875	-0.1875	-0.0625
18	12	12	15	36	28	0.850254809918	0.0253916727154	0.488423473723	-0.818359375	0.23486328125	0.517578125	1.625	-0.25	-0.1875
18	12	12	15	36	28	0.850255774487	0.025574814753	0.488485065558	-0.8193359375	0.236328125	0.51708984375	1.3125	-0.4375	-0.3125
18	12	12	15	36	28	0.850271950901	0.0257584180388	0.488494359157	-0.82177734375	0.2373046875	0.51806640625	1.0	-0.4375	-0.375
18	12	12	15	36	28	0.850340422329	0.0259417615024	0.488437589511	-0.8173828125	0.23046875	0.51806640625	1.3125	-0.6875	-0.5625
18	12	12	15	36	28	0.850444494259	0.02618536482	0.488366209615	-0.81982421875	0.228515625	0.525390625	2.0625	-0.75	-0.625
18	12	12	15	36	29	0.850479455282	0.0264897433323	0.488412272224	-0.818359375	0.23583984375	0.51416015625	2.3125	-0.6875	-0.75
18	12	12	15	36	29	0.850512692152	0.0267959718569	0.488431359452	-0.81884765625	0.24072265625	0.51513671875	2.0	-0.625	-0.875
18	12	12	15	36	29	0.850561275339	0.0271618060657	0.488424207052	-0.81884765625	0.240234375	0.51806640625	1.875	-0.625	-0.5625
18	12	12	15	36	29	0.850612541397	0.0274056422996	0.488418596173	-0.81982421875	0.236328125	0.51904296875	2.0	-0.75	-0.8125
18	12	12	15	36	29	0.850699055255	0.0276506186432	0.488372184911	-0.8203125	0.2392578125	0.5205078125	1.75	-0.8125	-1.0
18	12	12	15	36	29	0.850771502188	0.027834108552	0.488378733606	-0.822265625	0.23046875	0.513671875	1.875	-1.0	-1.1875
18	12	12	15	36	29	0.850876183545	0.028199770215	0.488368747815	-0.8232421875	0.2294921875	0.51513671875	3.0625	-1.375	-1.125
18	12	12	15	36	29	0.850994417781	0.0288100247592	0.488366542581	-0.82421875	0.236328125	0.51708984375	4.6875	-1.25	-1.4375
18	12	12	15	36	29	0.851044433093	0.0294200255864	0.488482292049	-0.830078125	0.23974609375	0.5205078125	4.6875	-1.125	-1.625
18	12	12	15	36	29	0.851177962042	0.0301528801182	0.488488865559	-0.82470703125	0.24169921875	0.521484375	5.1875	-1.0625	-2.0
18	12	12	15	36	29	0.851306413584	0.0308245313587	0.488553562367	-0.82470703125	0.24365234375	0.51904296875	5.3125	-1.25	-2.6875
18	12	12	15	36	29	0.851532186613	0.0311900901268	0.488420941673	-0.81640625	0.23583984375	0.5234375	4.0	-1.625	-2.75
18	12	12	15	36	29	0.851780061576	0.0314343770485	0.488301002695	-0.81982421875	0.224609375	0.52099609375	3.6875	-1.5625	-3.0
18	12	12	15	36	29	0.851974109323	0.0318620493672	0.488307269995	-0.8212890625	0.22509765625	0.51806640625	4.9375	-1.5	-3.3125
18	12	12	15	36	29	0.852160421663	0.0325335939221	0.48830910202	-0.81689453125	0.236328125	0.5185546875	5.9375	-1.4375	-3.3125
18	12	12	15	36	29	0.852387605156	0.0332043578378	0.488238342545	-0.8212890625	0.24169921875	0.52734375	6.0	-1.5625	-3.4375
18	12	12	15	36	29	0.852639221393	0.0337539902234	0.488059504207	-0.8125	0.24560546875	0.529296875	4.375	-1.8125	-3.1875
18	12	12	15	36	29	0.852918316634	0.034119174109	0.487800428406	-0.810546875	0.236328125	0.52783203125	3.3125	-1.875	-2.875
18	12	12	15	36	29	0.853140455235	0.0343038517452	0.487578590285	-0.8134765625	0.2412109375	0.53076171875	2.0625	-1.4375	-2.3125
18	12	12	15	36	29	0.853321554644	0.0343648093895	0.487394321447	-0.81689453125	0.2431640625	0.5263671875	0.5625	-0.9375	-2.25
18	12	12	15	36	29	0.853437490598	0.0342424854975	0.48726873748	-0.818359375	0.24072265625	0.5283203125	-0.3125	-0.6875	-1.875
18	12	12	15	36	29	0.853571050713	0.0340598288256	0.487092175678	-0.81640625	0.2421875	0.52734375	-0.9375	-0.6875	-1.8125
18	12	12	15	36	29	0.853732810753	0.0336927512358	0.48683584032	-0.80810546875	0.23583984375	0.52783203125	-2.125	-0.5625	-1.4375
18	12	12	15	36	29	0.853802836075	0.0332658382657	0.48671888868	-0.81103515625	0.23193359375	0.52294921875	-2.375	-0.25	-0.875
18	12	12	15	36	29	0.853859783301	0.0329604891688	0.48659448084	-0.81494140625	0.23486328125	0.52490234375	-1.875	-0.1875	-0.5
18	12	12	15	36	29	0.853873028394	0.0327168448938	0.486540990016	-0.8115234375	0.2333984375	0.51904296875	-1.875	-0.1875	-0.125
18	12	12	15	36	29	0.853867220965	0.032472468479	0.48647664244	-0.814453125	0.23583984375	0.51904296875	-2.25	-0.0625	0.25
18	12	12	15	36	29	0.853819417439	0.0322288141555	0.48648418337	-0.8173828125	0.232421875	0.513671875	-2.1875	-0.125	0.25
18	12	12	15	36	29	0.853821095511	0.0321678379564	0.486485139492	-0.81689453125	0.22900390625	0.51708984375	-0.5625	-0.375	0.3125
18	12	12	15	36	29	0.853804634927	0.0325334479851	0.486536799042	-0.8212890625	0.23388671875	0.5166015625	1.6875	-0.5625	0.375
18	12	12	15	36	29	0.853782543709	0.0332040108505	0.486646284028	-0.81640625	0.23388671875	0.51318359375	4.1875	-0.875	0.25
18	12	12	15	36	29	0.853850329033	0.0340587950247	0.486650130344	-0.81591796875	0.23681640625	0.5166015625	5.3125	-1.3125	-0.1875
18	12	12	15	36	29	0.853911480826	0.0347912468957	0.486650195613	-0.82080078125	0.23193359375	0.52490234375	4.75	-1.1875	-0.0625
18	12	12	15	36	29	0.853985920555	0.0352800987836	0.486596794987	-0.81640625	0.232421875	0.5263671875	3.5	-0.6875	-0.0625
18	12	12	15	36	29	0.853985274677	0.0357073394101	0.486657465156	-0.8173828125	0.234375	0.51953125	2.8125	-0.5625	0.0
18	12	12	15	36	29	0.853935002659	0.0360740233432	0.486785678785	-0.81884765625	0.23974609375	0.51904296875	2.1875	-0.125	0.25
18	12	12	15	36	29	0.853950933135	0.036379896794	0.486733719858	-0.814453125	0.24169921875	0.52001953125	1.25	-0.375	0.5625
18	12	12	15	36	29	0.853923663833	0.0364397732172	0.486779215087	-0.8193359375	0.23974609375	0.51611328125	0.875	-0.3125	0.5
18	12	12	15	36	29	0.853923663833	0.0364397732172	0.486779215087	-0.8203125	0.236328125	0.51953125	0.9375	-0.25	0.375
18	12	12	15	36	29	0.853845994871	0.0365611373885	0.486952844884	-0.826171875	0.234375	0.51171875	1.4375	0.0	0.0625
18	12	12	15	36	29	0.853806673958	0.0368672598707	0.487087307563	-0.82373046875	0.2353515625	0.5146484375	2.0625	-0.1875	0.0
18	12	12	15	36	29	0.853814625047	0.0372948767446	0.487152882649	-0.81591796875	0.23388671875	0.51123046875	2.8125	-0.8125	-0.125
18	12	12	15	36	29	0.853802354156	0.0378436845565	0.487267957766	-0.8203125	0.23828125	0.5068359375	3.8125	-1.25	-0.4375
18	12	12	15	36	29	0.853855595327	0.0385147530668	0.487324545935	-0.8251953125	0.23583984375	0.51220703125	4.875	-1.4375	-0.5
18	12	12	15	36	29	0.853983836571	0.0394916405019	0.48726702647	-0.8203125	0.232421875	0.5224609375	6.875	-1.75	-0.25
18	12	12	15	36	29	0.854102611332	0.0407732826678	0.487265143019	-0.81884765625	0.23779296875	0.5263671875	8.6875	-1.625	-0.1875
18	12	12	15	36	29	0.854173045042	0.0421776171305	0.48733154149	-0.8173828125	0.2421875	0.51953125	9.3125	-1.6875	-0.625
18	12	12	15	36	29	0.854364072245	0.0434598284946	0.487213976185	-0.8095703125	0.24609375	0.529296875	8.75	-2.0	-1.0
18	12	12	15	36	29	0.854523480384	0.0445572957629	0.487078383819	-0.80859375	0.24658203125	0.529296875	7.25	-1.6875	-0.875
18	12	12	15	36	30	0.854651552362	0.0455342135454	0.486959726092	-0.80859375	0.25732421875	0.525390625	5.75	-1.5	-0.5
18	12	12	15	36	30	0.854765835495	0.0463272828578	0.486772174955	-0.80224609375	0.25732421875	0.53271484375	4.125	-1.0625	-0.1875
18	12	12	15	36	30	0.854889911754	0.0468156905837	0.486529165115	-0.7978515625	0.2587890625	0.53271484375	2.25	-0.8125	0.375
18	12	12	15	36	30	0.854978016473	0.0470613300993	0.486239371687	-0.79541015625	0.259765625	0.53173828125	-0.25	-0.5625	1.125
18	12	12	15	36	30	0.855007261061	0.046998543048	0.485977142531	-0.80078125	0.2646484375	0.53173828125	-2.875	-0.0625	1.5625
18	12	12	15	36	30	0.854972373455	0.046389591192	0.485808889864	-0.80908203125	0.25927734375	0.5263671875	-5.5	0.375	1.875
18	12	12	15	36	30	0.85491840413	0.0455964620795	0.485690828335	-0.81787109375	0.2421875	0.52392578125	-6.0	0.625	1.9375
18	12	12	15	36	30	0.854828815431	0.0448624904921	0.485674607953	-0.81396484375	0.24267578125	0.521484375	-5.3125	0.8125	1.6875
18	12	12	15	36	30	0.854671050884	0.0441923897186	0.485811090843	-0.82568359375	0.23779296875	0.51416015625	-4.75	0.8125	1.75
18	12	12	15	36	30	0.854570869115	0.043518965051	0.485849876306	-0.81982421875	0.2353515625	0.51806640625	-4.1875	0.8125	1.75
18	12	12	15	36	30	0.85442850007	0.0431548042256	0.485995121986	-0.82080078125	0.23681640625	0.51416015625	-2.5625	0.6875	1.5625
18	12	12	15	36	30	0.854339707759	0.0429092530224	0.486040372429	-0.81640625	0.244140625	0.51904296875	-2.125	0.5625	1.3125
18	12	12	15	36	30	0.854278317139	0.0426040486827	0.486040171433	-0.81591796875	0.244140625	0.51708984375	-2.75	0.3125	0.9375
18	12	12	15	36	30	0.85422388981	0.0423602271903	0.486043932444	-0.8115234375	0.24169921875	0.51416015625	-1.875	0.1875	0.9375
18	12	12	15	36	30	0.854086734882	0.0423594793117	0.486218461379	-0.81591796875	0.24609375	0.51513671875	-0.25	0.4375	1.0625
18	12	12	15	36	30	0.85399191965	0.0426660247184	0.486356058593	-0.81884765625	0.24755859375	0.515625	1.125	0.25	1.0
18	12	12	15	36	30	0.853994142099	0.0426050969327	0.486357324298	-0.82421875	0.244140625	0.51708984375	0.9375	0.125	0.9375
18	12	12	15	36	30	0.853968789389	0.0426038321059	0.48640392271	-0.8203125	0.24072265625	0.517578125	0.0625	-0.0625	0.75
18	12	12	15	36	30	0.853968789389	0.0426038321059	0.48640392271	-0.82275390625	0.244140625	0.51318359375	-0.0625	-0.25	0.375
18	12	12	15	36	30	0.853926907315	0.0426047877988	0.486475872144	-0.8203125	0.2431640625	0.51611328125	0.3125	-0.3125	-0.1875
18	12	12	15	36	30	0.853926907315	0.0426047877988	0.486475872144	-0.81982421875	0.24755859375	0.51708984375	0.8125	-0.25	-0.3125
18	12	12	15	36	30	0.853950564054	0.0427280482372	0.486489349215	-0.81787109375	0.2490234375	0.52294921875	1.1875	-0.125	-0.4375
18	12	12	15	36	30	0.853965347054	0.0428478074213	0.486524035549	-0.81982421875	0.248046875	0.52587890625	1.1875	-0.1875	-0.5625
18	12	12	15	36	30	0.854047243568	0.0430319687475	0.486474880734	-0.81640625	0.24853515625	0.52490234375	1.5625	-0.4375	-1.0625
18	12	12	15	36	30	0.854105920695	0.0431539259581	0.486473535906	-0.81787109375	0.2470703125	0.52001953125	1.4375	-0.6875	-1.375
18	12	12	15	36	30	0.854164790033	0.0433369301789	0.486533338671	-0.81591796875	0.24169921875	0.517578125	2.0625	-0.5625	-1.5625
18	12	12	15	36	30	0.854170001099	0.0435813477765	0.486658383504	-0.818359375	0.24267578125	0.51416015625	2.6875	-0.375	-1.375
18	12	12	15	36	30	0.854214585903	0.043885693981	0.486710047016	-0.8115234375	0.24462890625	0.5166015625	2.875	-0.5	-1.1875
18	12	12	15	36	30	0.854291232667	0.0442527253275	0.486718940361	-0.81494140625	0.24658203125	0.52001953125	3.125	-0.6875	-1.375
18	12	12	15	36	30	0.854367561014	0.0446197533115	0.486727651034	-0.8173828125	0.2490234375	0.52294921875	2.8125	-0.75	-1.625
18	12	12	15	36	30	0.854471569814	0.0449239999559	0.486717358218	-0.8193359375	0.2451171875	0.52294921875	3.25	-0.8125	-1.75
18	12	12	15	36	30	0.85451712921	0.0454114817238	0.486769578961	-0.81103515625	0.25537109375	0.52099609375	3.4375	-0.25	-1.5625
18	12	12	15	36	30	0.854534715464	0.0457176072773	0.486840635038	-0.8125	0.2568359375	0.5205078125	2.1875	-0.375	-1.5
18	12	12	15	36	30	0.85464296815	0.0460220538484	0.486710686189	-0.806640625	0.255859375	0.52490234375	1.625	-0.5	-1.25
18	12	12	15	36	30	0.854725574585	0.0461452927506	0.486661930027	-0.810546875	0.24853515625	0.52197265625	1.5625	-0.5	-1.3125
18	12	12	15	36	30	0.854771187048	0.0463275729056	0.486653147268	-0.810546875	0.24951171875	0.52099609375	1.625	-0.25	-1.0
18	12	12	15	36	30	0.854771187048	0.0463275729056	0.486653147268	-0.8154296875	0.2509765625	0.5205078125	0.8125	-0.25	-0.875
18	12	12	15	36	30	0.854771187048	0.0463275729056	0.486653147268	-0.810546875	0.24658203125	0.52197265625	0.0	-0.3125	-0.75
18	12	12	15	36	30	0.854768768408	0.0463884792909	0.486651770245	-0.80908203125	0.25048828125	0.521484375	0.25	-0.4375	-0.3125
18	12	12	15	36	30	0.854768768408	0.0463884792909	0.486651770245	-0.8134765625	0.2490234375	0.52197265625	0.8125	-0.3125	-0.1875
18	12	12	15	36	30	0.854781460529	0.0467553983694	0.486658996344	-0.81005859375	0.25244140625	0.52197265625	2.1875	-0.4375	-0.0625
18	12	12	15	36	30	0.854791549664	0.0471832239282	0.486664740465	-0.81494140625	0.251953125	0.51904296875	2.5625	-0.5	0.0625
18	12	12	15	36	30	0.854791549664	0.0471832239282	0.486664740465	-0.814453125	0.25439453125	0.52197265625	0.6875	0.0	0.3125
18	12	12	15	36	30	0.854783212089	0.0469386096899	0.486659993572	-0.81494140625	0.24365234375	0.52294921875	-1.4375	0.5	0.25
18	12	12	15	36	30	0.854726319753	0.0466336433829	0.486723393109	-0.8095703125	0.24951171875	0.5224609375	-1.9375	0.8125	-0.125
18	12	12	15	36	30	0.85466931225	0.0463286679044	0.486786727981	-0.8125	0.251953125	0.51953125	-2.25	0.9375	-0.0625
18	12	12	15	36	30	0.854577682221	0.0460218250407	0.486891377121	-0.81396484375	0.2568359375	0.51806640625	-2.5625	1.0625	-0.125
18	12	12	15	36	30	0.854494841827	0.045718739662	0.486974773062	-0.814453125	0.2509765625	0.517578125	-2.1875	0.875	0.0625
18	12	12	15	36	30	0.854367806121	0.0454743170365	0.487155066132	-0.81494140625	0.24755859375	0.513671875	-1.5	1.0625	0.3125
18	12	12	15	36	30	0.854238291017	0.0452908047113	0.487333941799	-0.81787109375	0.24951171875	0.51953125	-1.375	1.125	0.4375
18	12	12	15	36	30	0.854160059582	0.0450457427449	0.487385170485	-0.81640625	0.24853515625	0.52587890625	-2.0625	1.25	0.5
18	12	12	15	36	30	0.85407217323	0.0446202657684	0.487465721513	-0.814453125	0.24560546875	0.5185546875	-2.5625	1.0625	0.5
18	12	12	15	36	31	0.853984323363	0.0441915981785	0.48757249482	-0.8154296875	0.23974609375	0.5146484375	-2.8125	0.875	0.375
18	12	12	15	36	31	0.853917105401	0.0438860899774	0.487630003935	-0.8154296875	0.248046875	0.5146484375	-2.25	0.8125	0.375
18	12	12	15	36	31	0.853761279052	0.0437043737614	0.487828708242	-0.81982421875	0.24658203125	0.51220703125	-1.375	0.9375	0.625
18	12	12	15	36	31	0.853745059724	0.0437035434877	0.487880479186	-0.81982421875	0.24462890625	0.5107421875	-0.3125	0.875	0.625
18	12	12	15	36	31	0.853745059724	0.0437035434877	0.487880479186	-0.8115234375	0.24609375	0.51953125	0.3125	0.625	0.625
18	12	12	15	36	31	0.853735856247	0.0437030723581	0.487875219775	-0.814453125	0.25	0.51513671875	0.5625	0.5625	0.4375
18	12	12	15	36	31	0.853735856247	0.0437030723581	0.487875219775	-0.818359375	0.2490234375	0.51318359375	-0.25	0.25	0.5625
18	12	12	15	36	31	0.853735856247	0.0437030723581	0.487875219775	-0.8193359375	0.24951171875	0.51416015625	0.1875	0.4375	0.6875
18	12	12	15	36	31	0.853710432533	0.0437017709083	0.487921727152	-0.8232421875	0.24658203125	0.51806640625	0.5	0.4375	0.5
18	12	12	15	36	31	0.853719635188	0.0437022419958	0.487926986752	-0.8193359375	0.24609375	0.51416015625	0.3125	0.25	0.4375
18	12	12	15	36	31	0.853719635188	0.0437022419958	0.487926986752	-0.814453125	0.244140625	0.52001953125	0.3125	-0.0625	0.4375
18	12	12	15	36	31	0.853719635188	0.0437022419958	0.487926986752	-0.81640625	0.24560546875	0.51416015625	0.9375	0.1875	0.3125
18	12	12	15	36	31	0.853572912733	0.0440703406031	0.488191944797	-0.81884765625	0.24658203125	0.5107421875	2.0625	0.625	0.375
18	12	12	15	36	31	0.853435679805	0.044374748907	0.488427428823	-0.8203125	0.248046875	0.5185546875	2.3125	1.1875	0.5
18	12	12	15	36	31	0.8533400187	0.0446813228676	0.488564628732	-0.8173828125	0.25732421875	0.521484375	1.1875	0.8125	0.5
18	12	12	15	36	31	0.853328499786	0.0447417589659	0.488558033783	-0.81396484375	0.25439453125	0.52001953125	-0.75	0.25	0.5625
18	12	12	15	36	31	0.853328499786	0.0447417589659	0.488558033783	-0.81396484375	0.248046875	0.51806640625	-0.9375	0.0625	0.4375
18	12	12	15	36	31	0.853328499786	0.0447417589659	0.488558033783	-0.81396484375	0.25048828125	0.517578125	0.3125	0.25	0.5
18	12	12	15	36	31	0.853328499786	0.0447417589659	0.488558033783	-0.8134765625	0.2548828125	0.51220703125	0.5625	0.1875	0.4375
18	12	12	15	36	31	0.853328499786	0.0447417589659	0.488558033783	-0.81689453125	0.251953125	0.51220703125	0.5	-0.0625	0.375
18	12	12	15	36	31	0.853303052048	0.0447404246889	0.488604501548	-0.81982421875	0.2470703125	0.515625	0.1875	-0.5	0.5
18	12	12	15	36	31	0.853303052048	0.0447404246889	0.488604501548	-0.81689453125	0.2490234375	0.513671875	0.75	-0.625	0.375
18	12	12	15	36	31	0.853316808073	0.0450463379369	0.488551339901	-0.8134765625	0.25244140625	0.51318359375	1.125	-0.625	0.375
18	12	12	15	36	31	0.853316808073	0.0450463379369	0.488551339901	-0.81591796875	0.25	0.51220703125	0.8125	-0.5	0.375
18	12	12	15	36	31	0.853316808073	0.0450463379369	0.488551339901	-0.81396484375	0.24951171875	0.51416015625	0.25	-0.4375	0.4375
18	12	12	15	36	31	0.853316808073	0.0450463379369	0.488551339901	-0.8095703125	0.2529296875	0.51904296875	0.0	-0.375	0.3125
18	12	12	15	36	31	0.853316808073	0.0450463379369	0.488551339901	-0.81396484375	0.24853515625	0.5185546875	0.25	-0.1875	0.3125
18	12	12	15	36	31	0.853316808073	0.0450463379369	0.488551339901	-0.81591796875	0.25146484375	0.5146484375	-0.1875	0.4375	0.625
18	12	12	15	36	31	0.853316808073	0.0450463379369	0.488551339901	-0.81640625	0.24951171875	0.5224609375	-0.25	0.625	0.5625
18	12	12	15	36	31	0.85331446025	0.0451072522264	0.488549995697	-0.8203125	0.25390625	0.513671875	-0.25	0.625	0.625
18	12	12	15	36	31	0.85331446025	0.0451072522264	0.488549995697	-0.818359375	0.25146484375	0.51611328125	-0.75	0.8125	0.375
18	12	12	15	36	31	0.853137772523	0.0448023985857	0.488797830891	-0.8203125	0.25	0.515625	-1.75	1.5	0.375
18	12	12	15	36	31	0.85296311925	0.044680764512	0.489046837801	-0.81982421875	0.25390625	0.5107421875	-1.5	1.5	0.4375
18	12	12	15	36	31	0.852821237509	0.0445576512583	0.489218595665	-0.8154296875	0.2568359375	0.51220703125	-1.3125	1.4375	0.25
18	12	12	15	36	31	0.852690798856	0.0443741024172	0.489396909465	-0.814453125	0.24853515625	0.509765625	-1.375	1.25	0.375
18	12	12	15	36	31	0.852520410596	0.0441306119325	0.489648366421	-0.8115234375	0.25	0.51220703125	-1.5625	2.0	0.1875
18	12	12	15	36	31	0.85232896517	0.0440691430001	0.4900098061	-0.81884765625	0.25146484375	0.505859375	0.125	1.75	-0.5
18	12	12	15	36	31	0.852265855766	0.0439469609791	0.490130689809	-0.81494140625	0.24169921875	0.51318359375	-0.3125	1.0	0.0625
18	12	12	15	36	31	0.85222365274	0.0439479322427	0.49020256089	-0.8193359375	0.24560546875	0.5107421875	0.6875	0.625	0.0625
18	12	12	15	36	31	0.852191301299	0.0443735192697	0.490244988686	-0.8173828125	0.26025390625	0.51513671875	2.0	0.1875	0.0625
18	12	12	15	36	31	0.85217223415	0.0446809021845	0.490269134353	-0.8154296875	0.2578125	0.5166015625	1.4375	-0.0625	0.1875
18	12	12	15	36	31	0.852151170134	0.0450460256113	0.490318053842	-0.8203125	0.255859375	0.515625	1.75	-0.125	0.125
18	12	12	15	36	31	0.852148630303	0.0453510803177	0.490316592452	-0.8203125	0.251953125	0.50830078125	1.625	-0.6875	0.3125
18	12	12	15	36	31	0.852213721016	0.0456564864145	0.490196848122	-0.81689453125	0.25341796875	0.51318359375	1.4375	-0.9375	0.375
18	12	12	15	36	31	0.852213721016	0.0456564864145	0.490196848122	-0.81640625	0.24853515625	0.51220703125	0.9375	-0.875	0.625
18	12	12	15	36	31	0.852211015888	0.0459615309385	0.490195292121	-0.818359375	0.2470703125	0.51025390625	1.625	-0.75	0.625
18	12	12	15	36	31	0.85225043118	0.0462655465756	0.490121819264	-0.818359375	0.25048828125	0.51806640625	1.6875	-0.6875	0.5625
18	12	12	15	36	31	0.852261428018	0.0466323663257	0.490067106321	-0.81640625	0.26171875	0.5126953125	1.5625	-0.5625	0.5625
18	12	12	15	36	31	0.852261428018	0.0466323663257	0.490067106321	-0.8125	0.251953125	0.5166015625	0.75	-0.5625	0.375
18	12	12	15	36	32	0.852261428018	0.0466323663257	0.490067106321	-0.81591796875	0.25048828125	0.515625	0.6875	-0.5	0.4375
18	12	12	15	36	32	0.852259000644	0.0466932704643	0.490065710533	-0.8134765625	0.2587890625	0.515625	0.6875	-0.375	0.5
18	12	12	15	36	32	0.852259000644	0.0466932704643	0.490065710533	-0.81884765625	0.26025390625	0.5107421875	0.5625	-0.4375	0.625
18	12	12	15	36	32	0.852259000644	0.0466932704643	0.490065710533	-0.814453125	0.25537109375	0.5078125	0.75	-0.4375	0.75
18	12	12	15	36	32	0.852209248996	0.0470601153829	0.490072200271	-0.81787109375	0.2568359375	0.51123046875	1.0625	-0.4375	1.1875
18	12	12	15	36	32	0.852157227724	0.047304766957	0.490138424083	-0.82080078125	0.25	0.5048828125	1.1875	-0.5625	1.0
18	12	12	15	36	32	0.852132845758	0.0477306701084	0.49018543688	-0.8134765625	0.24462890625	0.50244140625	2.5625	-0.6875	1.0625
18	12	12	15	36	32	0.852053090101	0.0484655171245	0.490270823103	-0.81494140625	0.2568359375	0.50830078125	4.0	-0.25	1.625
18	12	12	15	36	32	0.851923351563	0.0493806685831	0.490449532837	-0.8115234375	0.2607421875	0.51025390625	4.5625	0.125	1.8125
18	12	12	15	36	32	0.851782303581	0.0501120223031	0.49062172384	-0.81494140625	0.26513671875	0.51708984375	3.5	0.75	1.6875
18	12	12	15	36	32	0.851649241865	0.0505996718631	0.490737468974	-0.814453125	0.2705078125	0.5234375	2.0	1.4375	1.75
18	12	12	15	36	32	0.851405076425	0.0508438188158	0.490981606908	-0.81103515625	0.27880859375	0.5166015625	-0.4375	2.0625	1.5
18	12	12	15	36	32	0.85122448658	0.0505387835142	0.491105135453	-0.81298828125	0.2734375	0.525390625	-3.125	2.625	1.5
18	12	12	15	36	32	0.850948002926	0.0500521743347	0.491365857798	-0.81201171875	0.26708984375	0.5146484375	-4.375	3.0625	1.625
18	12	12	15	36	32	0.850699468874	0.0495025664961	0.491607485277	-0.810546875	0.265625	0.51025390625	-4.375	3.0	1.6875
18	12	12	15	36	32	0.850363534947	0.0489514466715	0.491955935377	-0.814453125	0.26806640625	0.5078125	-4.8125	3.1875	1.9375
18	12	12	15	36	32	0.850035248887	0.0484042763441	0.492283087913	-0.8173828125	0.2666015625	0.5029296875	-5.125	3.0	2.0625
18	12	12	15	36	32	0.849758481524	0.0477920479122	0.492508345598	-0.822265625	0.271484375	0.50537109375	-5.375	2.5625	2.125
18	12	12	15	36	32	0.849482225681	0.0471222446092	0.49270823638	-0.82275390625	0.27001953125	0.5078125	-6.25	2.5	2.3125
18	12	12	15	36	32	0.84921705713	0.0463275890435	0.492879158796	-0.8251953125	0.2666015625	0.50634765625	-6.75	2.1875	2.1875
18	12	12	15	36	32	0.849037597601	0.045290143596	0.49294231763	-0.82666015625	0.259765625	0.50927734375	-7.5	1.75	1.8125
18	12	12	15	36	32	0.848913706333	0.0443744797602	0.49294126347	-0.82470703125	0.2548828125	0.50732421875	-6.5625	1.25	1.5625
18	12	12	15	36	32	0.848792552538	0.0437031114352	0.493002836679	-0.82080078125	0.25537109375	0.501953125	-5.0625	1.1875	1.0
18	12	12	15	36	32	0.848620686548	0.0429712265935	0.493131448365	-0.8154296875	0.26513671875	0.50634765625	-5.375	1.6875	0.5625
18	12	12	15	36	32	0.848450189682	0.0421783511561	0.493260862073	-0.8203125	0.26171875	0.51123046875	-5.5	2.375	0.1875
18	12	12	15	36	32	0.848259662822	0.0412013580201	0.493439671458	-0.8173828125	0.2568359375	0.51171875	-6.375	2.875	0.3125
18	12	12	15	36	32	0.848076074875	0.040163671892	0.493561475561	-0.81689453125	0.25341796875	0.5146484375	-6.8125	2.8125	0.5
18	12	12	15	36	32	0.847842613201	0.0390044225943	0.493750820603	-0.8203125	0.25732421875	0.50830078125	-7.9375	3.125	0.625
18	12	12	15	36	32	0.847603413789	0.0376617677019	0.493936830216	-0.826171875	0.24853515625	0.5068359375	-8.6875	3.0	0.75
18	12	12	15	36	32	0.847389076272	0.0363175466673	0.494101748356	-0.8251953125	0.24462890625	0.5029296875	-8.25	2.6875	0.4375
18	12	12	15	36	32	0.847193291623	0.0352793748241	0.494277469421	-0.8232421875	0.244140625	0.4990234375	-6.8125	2.125	0.375
18	12	12	15	36	32	0.846977206934	0.0343039197389	0.494476964065	-0.82666015625	0.24755859375	0.49365234375	-6.375	1.875	0.4375
18	12	12	15	36	32	0.846838216098	0.0333876678828	0.494589164267	-0.82080078125	0.23828125	0.498046875	-5.5625	1.6875	0.375
18	12	12	15	36	32	0.846721493827	0.032716459104	0.494714367609	-0.822265625	0.2333984375	0.50537109375	-3.625	1.25	0.375
18	12	12	15	36	32	0.846612587906	0.0324728115909	0.494844142044	-0.8212890625	0.2421875	0.50341796875	-1.5625	1.125	0.3125
18	12	12	15	36	32	0.846612587906	0.0324728115909	0.494844142044	-0.82470703125	0.244140625	0.50390625	0.0	0.75	0.0625
18	12	12	15	36	32	0.846612587906	0.0324728115909	0.494844142044	-0.82373046875	0.2470703125	0.5068359375	0.5625	0.0625	0.25
18	12	12	15	36	32	0.846660378375	0.0326554179533	0.494775360616	-0.8173828125	0.24365234375	0.51025390625	1.125	-0.375	0.1875
18	12	12	15	36	32	0.846660378375	0.0326554179533	0.494775360616	-0.818359375	0.240234375	0.50439453125	0.9375	-0.5	0.375
18	12	12	15	36	32	0.846685947251	0.0326564041367	0.494729262668	-0.8203125	0.2470703125	0.509765625	0.6875	-0.5	0.5
18	12	12	15	36	32	0.846733696063	0.0328390086853	0.494660457966	-0.82373046875	0.2451171875	0.50732421875	1.0625	-0.75	0.375
18	12	12	15	36	32	0.846787959921	0.033143938747	0.494595461633	-0.82666015625	0.2509765625	0.50537109375	1.5	-1.125	0.0
18	12	12	15	36	32	0.846904876535	0.0334489277363	0.494470371518	-0.82666015625	0.2392578125	0.501953125	2.0625	-1.75	0.0
18	12	12	15	36	32	0.847008965798	0.0339975494667	0.494398834255	-0.82373046875	0.23974609375	0.4951171875	3.5625	-2.1875	0.0
18	12	12	15	36	32	0.847195485211	0.0347301319226	0.494217712086	-0.8271484375	0.2353515625	0.50390625	5.125	-2.6875	0.0625
18	12	12	15	36	32	0.847370009891	0.0356453277949	0.494090630992	-0.82763671875	0.244140625	0.50439453125	5.9375	-2.6875	-0.1875
18	12	12	15	36	32	0.847570906336	0.0365006050691	0.493917886653	-0.82666015625	0.25634765625	0.50927734375	5.375	-2.375	-0.8125
18	12	12	15	36	32	0.847747200828	0.0372937965085	0.493791839204	-0.82373046875	0.2587890625	0.5126953125	5.25	-2.25	-1.4375
18	12	12	15	36	32	0.847992815959	0.0380263099649	0.49354854314	-0.81982421875	0.26123046875	0.51806640625	4.8125	-2.0	-1.75
18	12	12	15	36	32	0.848148638487	0.0384551019969	0.493385062604	-0.82275390625	0.2705078125	0.513671875	2.1875	-1.6875	-1.9375
18	12	12	15	36	33	0.848370159724	0.0383930376622	0.493127744472	-0.81591796875	0.255859375	0.51123046875	-0.125	-1.625	-2.25
18	12	12	15	36	33	0.848545051627	0.0381485151249	0.492939853038	-0.8203125	0.248046875	0.5107421875	-0.3125	-1.0625	-2.125
18	12	12	15	36	33	0.848673011022	0.0381487796238	0.492882232739	-0.82080078125	0.2470703125	0.509765625	0.9375	-0.9375	-2.0625
18	12	12	15	36	33	0.848779375627	0.0382091103943	0.492812072401	-0.8134765625	0.25244140625	0.50830078125	1.0	-0.75	-1.8125
18	12	12	15	36	33	0.848913149694	0.0382096370225	0.49269678921	-0.81787109375	0.2529296875	0.5126953125	0.5	-0.5625	-1.75
18	12	12	15	36	33	0.849025438526	0.0382702336417	0.492569035866	-0.814453125	0.25146484375	0.51171875	0.4375	-0.8125	-1.4375
18	12	12	15	36	33	0.849104809024	0.0383320983443	0.492518633026	-0.81640625	0.24755859375	0.50537109375	0.875	-1.0625	-1.0
18	12	12	15	36	33	0.849187818723	0.0385772499592	0.492470336505	-0.818359375	0.25048828125	0.50634765625	1.6875	-0.9375	-0.9375
18	12	12	15	36	33	0.849270388815	0.038758566688	0.49238638972	-0.82080078125	0.2470703125	0.51513671875	1.4375	-0.5625	-0.6875
18	12	12	15	36	33	0.849347551196	0.0388813790954	0.492334699817	-0.8212890625	0.24853515625	0.5224609375	1.4375	-0.25	-0.6875
18	12	12	15	36	33	0.84936139732	0.0389430522091	0.492281686625	-0.81396484375	0.26171875	0.517578125	0.9375	-0.125	-0.6875
18	12	12	15	36	33	0.84936139732	0.0389430522091	0.492281686625	-0.81591796875	0.255859375	0.51416015625	-0.6875	-0.5625	-0.875
18	12	12	15	36	33	0.849472343189	0.0386373495177	0.492092119766	-0.8134765625	0.24755859375	0.5146484375	-1.9375	-0.4375	-0.5
18	12	12	15	36	33	0.849511176172	0.0384532289832	0.492018220371	-0.81591796875	0.2431640625	0.509765625	-1.125	-0.0625	-0.25
18	12	12	15	36	33	0.849511176172	0.0384532289832	0.492018220371	-0.81689453125	0.25048828125	0.51025390625	-0.125	-0.0625	0.0625
18	12	12	15	36	33	0.849494186412	0.0384552229244	0.492043733324	-0.81884765625	0.25244140625	0.505859375	0.0625	-0.3125	0.3125
18	12	12	15	36	33	0.849494186412	0.0384552229244	0.492043733324	-0.8125	0.24560546875	0.5078125	-0.0625	-0.75	0.4375
18	12	12	15	36	33	0.849494186412	0.0384552229244	0.492043733324	-0.8134765625	0.2412109375	0.509765625	0.125	-0.5625	0.75
18	12	12	15	36	33	0.849478519508	0.0386376304411	0.492034658745	-0.82373046875	0.2451171875	0.509765625	0.875	-0.3125	1.1875
18	12	12	15	36	33	0.84945676927	0.0390028652413	0.49202206058	-0.81787109375	0.24560546875	0.51708984375	2.0	-0.25	1.25
18	12	12	15	36	33	0.849465999269	0.0394915931255	0.491966368765	-0.818359375	0.25390625	0.51513671875	2.0625	-0.375	1.1875
18	12	12	15	36	33	0.849459807399	0.0398575306626	0.491901745191	-0.81689453125	0.2587890625	0.51953125	1.3125	-0.25	1.0625
18	12	12	15	36	33	0.849405462844	0.0401019969164	0.491905621232	-0.8154296875	0.2568359375	0.51416015625	0.4375	0.25	1.1875
18	12	12	15	36	33	0.84932970935	0.0402233761022	0.491958135635	-0.81982421875	0.2548828125	0.5146484375	-0.125	0.4375	1.0625
18	12	12	15	36	33	0.849213478849	0.0402846902926	0.492083595665	-0.82373046875	0.2529296875	0.5078125	-0.0625	0.5	1.0
18	12	12	15	36	33	0.84917285513	0.0404077364934	0.492095425393	-0.818359375	0.25244140625	0.51123046875	0.0625	0.0625	1.0625
18	12	12	15	36	33	0.849215381882	0.0404068556606	0.492023660846	-0.81884765625	0.24951171875	0.51611328125	0.25	0.0	0.9375
18	12	12	15	36	33	0.849154738203	0.0406510247012	0.492084926638	-0.818359375	0.25390625	0.51220703125	1.125	0.0	0.875
18	12	12	15	36	33	0.849091913329	0.0409561263636	0.492144928271	-0.8193359375	0.259765625	0.50927734375	1.0625	0.0	0.8125
18	12	12	15	36	33	0.849091913329	0.0409561263636	0.492144928271	-0.81640625	0.2578125	0.5078125	0.125	0.0625	0.6875
18	12	12	15	36	33	0.849091913329	0.0409561263636	0.492144928271	-0.81982421875	0.25244140625	0.5078125	0.375	-0.1875	0.625
18	12	12	15	36	33	0.849111036434	0.041140165233	0.492094973455	-0.81787109375	0.24609375	0.5146484375	1.125	-0.25	0.625
18	12	12	15	36	33	0.849154730294	0.0413834752113	0.492023884481	-0.8154296875	0.2529296875	0.51708984375	1.375	-0.1875	0.625
18	12	12	15	36	33	0.849101435177	0.0416890432194	0.492089409129	-0.8173828125	0.26025390625	0.509765625	1.3125	0.0	0.5
18	12	12	15	36	33	0.849099272962	0.0417499750346	0.492088156036	-0.82177734375	0.25927734375	0.51318359375	0.9375	0.0625	0.3125
18	12	12	15	36	33	0.849092767436	0.0419327676823	0.492084385815	-0.82177734375	0.2587890625	0.5126953125	1.0	-0.0625	0.1875
18	12	12	15	36	33	0.849107838088	0.0420555891339	0.492093119881	-0.81640625	0.24853515625	0.51171875	1.0625	-0.375	0.1875
18	12	12	15	36	33	0.849083296492	0.0422985209165	0.492139933838	-0.818359375	0.25537109375	0.501953125	1.4375	-0.3125	0.25
18	12	12	15	36	33	0.849093906248	0.042543199817	0.492146083393	-0.81640625	0.25048828125	0.51318359375	1.4375	-0.1875	0.4375
18	12	12	15	36	33	0.849031959255	0.042909379393	0.492267631301	-0.82080078125	0.25634765625	0.5126953125	2.3125	0.25	0.5
18	12	12	15	36	33	0.848985697644	0.0432763577274	0.492337237558	-0.81884765625	0.2666015625	0.51220703125	1.875	0.4375	0.1875
18	12	12	15	36	33	0.848983453452	0.0433372817565	0.492335936124	-0.8154296875	0.26708984375	0.51611328125	-0.25	0.3125	-0.125
18	12	12	15	36	33	0.848965563815	0.0430311828665	0.492325561703	-0.81787109375	0.263671875	0.51416015625	-2.0625	0.375	-0.625
18	12	12	15	36	33	0.848971396168	0.0426042155817	0.492328943956	-0.8193359375	0.2568359375	0.5078125	-2.375	0.5625	-0.875
18	12	12	15	36	33	0.848959072143	0.0422373770884	0.492382833775	-0.81884765625	0.25341796875	0.51025390625	-1.625	0.5	-0.875
18	12	12	15	36	33	0.848956881929	0.0422983046356	0.492381563485	-0.81787109375	0.25732421875	0.5029296875	-0.9375	0.625	-0.75
18	12	12	15	36	33	0.848939834801	0.042300496514	0.492407078469	-0.81396484375	0.255859375	0.5029296875	-0.625	0.3125	-0.8125
18	12	12	15	36	33	0.848939834801	0.042300496514	0.492407078469	-0.81787109375	0.2509765625	0.50732421875	-0.0625	0.25	-0.5625
18	12	12	15	36	33	0.848939834801	0.042300496514	0.492407078469	-0.81591796875	0.25732421875	0.5126953125	0.25	0.1875	-0.375
18	12	12	15	36	33	0.848939834801	0.042300496514	0.492407078469	-0.82080078125	0.25830078125	0.509765625	-0.375	0.3125	-0.5625
18	12	12	15	36	34	0.848924804549	0.0421776704014	0.492398360533	-0.81201171875	0.2646484375	0.51171875	-1.1875	0.25	-0.375
18	12	12	15	36	34	0.848884950728	0.0419315473936	0.492375244285	-0.81494140625	0.26708984375	0.509765625	-2.625	0.625	-0.0625
18	12	12	15	36	34	0.848885399103	0.0415073036162	0.492288828918	-0.8173828125	0.25830078125	0.51318359375	-2.9375	0.375	0.3125
18	12	12	15	36	34	0.848839762681	0.0411388509417	0.492262363272	-0.81591796875	0.2568359375	0.5107421875	-3.0	0.5625	0.375
18	12	12	15	36	34	0.848772991355	0.0407113177933	0.492320073944	-0.82080078125	0.25	0.505859375	-2.875	0.625	0.375
18	12	12	15	36	34	0.848698714891	0.0402863314031	0.492408841559	-0.82666015625	0.2490234375	0.50341796875	-2.375	0.375	0.1875
18	12	12	15	36	34	0.848656016573	0.0400401572837	0.492506141954	-0.82958984375	0.2470703125	0.5009765625	-1.0625	0.0	-0.125
18	12	12	15	36	34	0.848638938182	0.0400422314211	0.492531654477	-0.826171875	0.24365234375	0.49951171875	0.375	-0.375	-0.3125
18	12	12	15	36	34	0.848655662467	0.040162214176	0.492566973253	-0.822265625	0.25048828125	0.50390625	1.125	-0.625	-0.4375
18	12	12	15	36	34	0.848713183271	0.0404061939824	0.492564932686	-0.81884765625	0.25048828125	0.50634765625	1.9375	-0.8125	-0.625
18	12	12	15	36	34	0.848805823355	0.0406518537577	0.49252223419	-0.81982421875	0.2509765625	0.51025390625	2.4375	-0.875	-1.0
18	12	12	15	36	34	0.848903514639	0.0409558713203	0.492447048901	-0.8193359375	0.2568359375	0.51171875	2.125	-0.75	-1.0625
18	12	12	15	36	34	0.849006195104	0.0410799604073	0.492349124287	-0.8173828125	0.25830078125	0.515625	1.0	-0.75	-1.0625
18	12	12	15	36	34	0.849050214301	0.0411401757325	0.492339254389	-0.81982421875	0.25537109375	0.50732421875	0.3125	-0.75	-1.0625
18	12	12	15	36	34	0.849162253431	0.0412007275062	0.492211357941	-0.81591796875	0.25634765625	0.51025390625	0.625	-0.6875	-1.125
18	12	12	15	36	34	0.849241388108	0.0412626448905	0.492160807325	-0.8173828125	0.2490234375	0.50732421875	1.125	-0.875	-0.75
18	12	12	15	36	34	0.849340698794	0.0415056899159	0.492086576621	-0.81787109375	0.24658203125	0.5078125	2.0625	-1.375	-0.5625
18	12	12	15	36	34	0.849449208902	0.0419322847248	0.491956644661	-0.81689453125	0.25390625	0.5078125	2.5625	-1.375	-0.4375
18	12	12	15	36	34	0.849501320989	0.0422980611759	0.491951476302	-0.8203125	0.25927734375	0.5048828125	2.3125	-1.25	-0.8125
18	12	12	15	36	34	0.849635269389	0.0425428004859	0.491836278788	-0.822265625	0.251953125	0.51708984375	2.3125	-1.0625	-0.9375
18	12	12	15	36	34	0.849719889214	0.0429712522094	0.491788890697	-0.81396484375	0.26171875	0.51416015625	2.625	-0.5625	-1.125
18	12	12	15	36	34	0.849836506443	0.0431540910763	0.491663654342	-0.81396484375	0.26171875	0.517578125	1.125	-0.6875	-1.3125
18	12	12	15	36	34	0.849933235016	0.0430917676066	0.491526918606	-0.81298828125	0.26025390625	0.51513671875	-0.5	-0.75	-1.1875
18	12	12	15	36	34	0.850052516455	0.0428474809041	0.491342195553	-0.81689453125	0.25537109375	0.51904296875	-1.4375	-0.5	-0.8125
18	12	12	15	36	34	0.850149607025	0.0424830647968	0.49117991727	-0.81689453125	0.25	0.51611328125	-1.8125	-0.375	-0.5625
18	12	12	15	36	34	0.850191211347	0.0422379437327	0.491107652129	-0.81689453125	0.24609375	0.5107421875	-1.125	-0.375	-0.25
18	12	12	15	36	34	0.850191211347	0.0422379437327	0.491107652129	-0.80859375	0.24853515625	0.51220703125	-1.0	-0.625	-0.0625
18	12	12	15	36	34	0.850191211347	0.0422379437327	0.491107652129	-0.81103515625	0.24609375	0.5126953125	-0.25	-0.625	0.25
18	12	12	15	36	34	0.850191211347	0.0422379437327	0.491107652129	-0.81396484375	0.25048828125	0.5087890625	0.875	-0.5625	0.375
18	12	12	15	36	34	0.850229998352	0.0426030537581	0.491033764303	-0.81640625	0.2548828125	0.5146484375	1.75	-0.625	0.5
18	12	12	15	36	34	0.850274998436	0.0430325824765	0.490937674977	-0.81787109375	0.26025390625	0.52099609375	1.8125	-0.8125	0.5625
18	12	12	15	36	34	0.850317384045	0.0430316384863	0.490865867669	-0.818359375	0.2578125	0.51953125	0.9375	-0.875	0.5
18	12	12	15	36	34	0.850317384045	0.0430316384863	0.490865867669	-0.81884765625	0.25537109375	0.51513671875	0.3125	-0.9375	0.4375
18	12	12	15	36	34	0.850317384045	0.0430316384863	0.490865867669	-0.814453125	0.2529296875	0.51513671875	-0.0625	-0.75	0.4375
18	12	12	15	36	34	0.850317384045	0.0430316384863	0.490865867669	-0.8154296875	0.25048828125	0.513671875	-0.25	-0.875	0.375
18	12	12	15	36	34	0.850370503077	0.0429091633407	0.490739222275	-0.81396484375	0.2490234375	0.5078125	-0.6875	-1.0625	0.375
18	12	12	15	36	34	0.850370503077	0.0429091633407	0.490739222275	-0.81787109375	0.25048828125	0.51123046875	-0.375	-1.0	0.1875
18	12	12	15	36	34	0.850380100971	0.0429096476444	0.490744761111	-0.8154296875	0.24365234375	0.50830078125	0.5625	-0.875	0.3125
18	12	12	15	36	34	0.850448597448	0.043154177736	0.490626988178	-0.81640625	0.25048828125	0.51806640625	1.6875	-0.75	0.375
18	12	12	15	36	34	0.850496638031	0.0435197432838	0.490558452695	-0.814453125	0.25732421875	0.51416015625	1.8125	-0.8125	0.125
18	12	12	15	36	34	0.850574557922	0.0437647619684	0.490446112156	-0.8203125	0.25927734375	0.51513671875	1.125	-1.125	-0.125
18	12	12	15	36	34	0.850699292967	0.0438869765117	0.490264527596	-0.81591796875	0.2548828125	0.51611328125	0.5625	-1.1875	-0.25
18	12	12	15	36	34	0.850699292967	0.0438869765117	0.490264527596	-0.81005859375	0.25	0.51416015625	0.8125	-1.0	-0.125
18	12	12	15	36	34	0.850798510055	0.0440078718523	0.490129280131	-0.8134765625	0.2509765625	0.5146484375	1.125	-1.0625	-0.25
18	12	12	15	36	34	0.850798510055	0.0440078718523	0.490129280131	-0.81396484375	0.25537109375	0.517578125	0.6875	-1.0	0.0
18	12	12	15	36	34	0.850798510055	0.0440078718523	0.490129280131	-0.81494140625	0.25244140625	0.51611328125	0.125	-0.8125	0.0625
18	12	12	15	36	34	0.850798510055	0.0440078718523	0.490129280131	-0.81396484375	0.2529296875	0.52001953125	0.5	-0.75	0.0
18	12	12	15	36	34	0.850798510055	0.0440078718523	0.490129280131	-0.81787109375	0.2607421875	0.51220703125	0.3125	-0.75	-0.3125
18	12	12	15	36	34	0.850883116648	0.0440701298579	0.490020779085	-0.82421875	0.2509765625	0.5126953125	0.5625	-1.125	-0.375
18	12	12	15	36	34	0.851001358125	0.0441920085556	0.489896492635	-0.8154296875	0.25	0.5107421875	1.1875	-1.625	-0.4375
18	12	12	15	36	35	0.85113571882	0.0445588837305	0.489720444068	-0.81494140625	0.25390625	0.51220703125	2.3125	-1.6875	-0.375
18	12	12	15	36	35	0.851233385299	0.045045908386	0.489645361886	-0.81591796875	0.25830078125	0.51220703125	2.8125	-1.375	-0.625
18	12	12	15	36	35	0.851330713864	0.0455328873346	0.48957009291	-0.81591796875	0.26220703125	0.52490234375	3.1875	-0.9375	-0.8125
18	12	12	15	36	35	0.851440463012	0.0458406902087	0.489414985478	-0.80908203125	0.2646484375	0.529296875	2.0625	-0.5	-0.8125
18	12	12	15	36	35	0.851454866788	0.045899215758	0.489388180782	-0.8056640625	0.259765625	0.52099609375	-0.25	-0.75	-0.5625
18	12	12	15	36	35	0.851590157612	0.0456557796655	0.489151628662	-0.802734375	0.2509765625	0.51904296875	-1.4375	-0.4375	-0.375
18	12	12	15	36	35	0.851540765003	0.045351214135	0.489219355709	-0.8154296875	0.2529296875	0.51123046875	-1.5	0.125	-0.125
18	12	12	15	36	35	0.851510532408	0.0452275324002	0.489263022564	-0.81884765625	0.2548828125	0.50830078125	-1.125	0.0625	-0.125
18	12	12	15	36	35	0.851496099753	0.0451689687324	0.489289801836	-0.8212890625	0.25244140625	0.5126953125	-0.0625	-0.1875	-0.125
18	12	12	15	36	35	0.851569285889	0.0453527330955	0.489235741266	-0.81689453125	0.25341796875	0.5166015625	1.375	-0.5625	-0.5
18	12	12	15	36	35	0.851663903901	0.0456564609846	0.48915892825	-0.8173828125	0.25537109375	0.52197265625	2.3125	-0.6875	-0.75
18	12	12	15	36	35	0.851750449467	0.0459019878171	0.489051497859	-0.81298828125	0.265625	0.525390625	1.4375	-0.75	-0.875
18	12	12	15	36	35	0.851767204899	0.0458996014392	0.48902607278	-0.8076171875	0.26220703125	0.525390625	0.375	-0.5625	-1.0
18	12	12	15	36	35	0.851780759722	0.04596136955	0.488972817351	-0.8095703125	0.26220703125	0.52783203125	-0.9375	-0.125	-0.6875
18	12	12	15	36	35	0.851848398603	0.0457175731265	0.488854530267	-0.8115234375	0.263671875	0.52392578125	-1.75	0.0	-0.75
18	12	12	15	36	35	0.851859548008	0.0453519378167	0.488799889685	-0.814453125	0.25927734375	0.52001953125	-2.625	0.1875	-0.5625
18	12	12	15	36	35	0.851910201667	0.044802041128	0.488671854593	-0.81396484375	0.25537109375	0.52197265625	-3.4375	0.25	-0.4375
18	12	12	15	36	35	0.851904798104	0.0441913787939	0.488668755006	-0.81005859375	0.24658203125	0.5107421875	-3.1875	0.3125	-0.4375
18	12	12	15	36	35	0.851909008272	0.0438253684846	0.488671170039	-0.8134765625	0.24609375	0.50927734375	-2.1875	0.25	-0.375
18	12	12	15	36	35	0.851911285567	0.0437644473563	0.488672476338	-0.822265625	0.24267578125	0.51953125	-0.8125	0.4375	-0.1875
18	12	12	15	36	35	0.851911285567	0.0437644473563	0.488672476338	-0.81884765625	0.25146484375	0.513671875	-0.0625	0.5625	-0.25
18	12	12	15	36	35	0.851832365555	0.0436414546698	0.488845329301	-0.81591796875	0.25439453125	0.52392578125	-0.3125	1.375	-0.625
18	12	12	15	36	35	0.851711219678	0.0435194280945	0.489090010268	-0.8134765625	0.25341796875	0.509765625	-0.25	1.1875	-0.9375
18	12	12	15	36	35	0.851711219678	0.0435194280945	0.489090010268	-0.814453125	0.25244140625	0.50927734375	-0.875	0.75	-0.5625
18	12	12	15	36	35	0.851711219678	0.0435194280945	0.489090010268	-0.81591796875	0.25439453125	0.51806640625	-0.625	0.625	-0.3125
18	12	12	15	36	35	0.851711219678	0.0435194280945	0.489090010268	-0.81884765625	0.2490234375	0.5048828125	0.0	0.5	-0.3125
18	12	12	15	36	35	0.851720731114	0.0435199140952	0.489095472153	-0.8173828125	0.24462890625	0.5107421875	0.25	0.25	-0.5
18	12	12	15	36	35	0.851722992012	0.0434589917094	0.489096770459	-0.8134765625	0.24609375	0.51611328125	0.9375	0.25	-0.1875
18	12	12	15	36	35	0.85166304878	0.0437642375099	0.489219475093	-0.81103515625	0.2509765625	0.51806640625	1.875	0.375	0.0625
18	12	12	15	36	35	0.851628433173	0.0440707947786	0.48929569383	-0.818359375	0.255859375	0.517578125	1.8125	0.3125	0.0625
18	12	12	15	36	35	0.851617395918	0.0441923017951	0.489350391562	-0.81298828125	0.25830078125	0.521484375	1.125	0.375	-0.5
18	12	12	15	36	35	0.851615097139	0.0442532214324	0.489349070654	-0.81103515625	0.25634765625	0.51806640625	-0.1875	0.4375	-0.6875
18	12	12	15	36	35	0.851631866381	0.044250921173	0.489323634543	-0.814453125	0.25244140625	0.51953125	0.1875	0.625	-0.5625
18	12	12	15	36	35	0.851578585692	0.0443733967745	0.489450163322	-0.814453125	0.251953125	0.51171875	1.125	0.5	-0.3125
18	12	12	15	36	35	0.851522948637	0.0445567882234	0.489575340192	-0.81201171875	0.25537109375	0.51318359375	1.1875	0.625	-0.1875
18	12	12	15	36	35	0.851522948637	0.0445567882234	0.489575340192	-0.8154296875	0.2529296875	0.5166015625	0.625	0.4375	-0.25
18	12	12	15	36	35	0.851495027455	0.0446805992901	0.489655420089	-0.81494140625	0.251953125	0.5224609375	1.1875	0.625	0.0
18	12	12	15	36	35	0.851483858983	0.0448020897845	0.489710035887	-0.810546875	0.2548828125	0.51708984375	1.0	0.375	-0.3125
18	12	12	15	36	35	0.851509310287	0.0448034289427	0.489663633486	-0.8115234375	0.2529296875	0.51904296875	0.1875	0.1875	-0.375
18	12	12	15	36	35	0.851526090848	0.0448011003285	0.489638183699	-0.818359375	0.244140625	0.521484375	0.1875	0.0625	-0.4375
18	12	12	15	36	35	0.851529015784	0.0448012542173	0.489700902705	-0.81787109375	0.24609375	0.51611328125	1.0	-0.0625	-0.5
