18	11	28	12	38	46	0.140506872733	0.662066919431	0.063417307024	-0.98486328125	0.09130859375	0.08935546875	-13.4375	-1.8125	-8.375
18	11	28	12	38	46	0.140870774289	0.661567730726	0.0657966614745	-0.9921875	0.0693359375	0.1044921875	-11.5625	-2.0625	-6.3125
18	11	28	12	38	46	0.140868864592	0.661253587086	0.0670164702437	-0.9990234375	0.07666015625	0.115234375	-5.25	-1.0625	-4.25
18	11	28	12	38	46	0.140561792043	0.661366729736	0.0673207367016	-1.01025390625	0.08935546875	0.10546875	-0.1875	0.375	-2.4375
18	11	28	12	38	46	0.140568086608	0.661396346714	0.0673237514236	-1.0263671875	0.091796875	0.11181640625	-0.25	0.875	-0.75
18	11	28	12	38	46	0.14111286149	0.661436020747	0.067382612061	-1.01904296875	0.08935546875	0.12841796875	-2.5	1.0	2.125
18	11	28	12	38	46	0.142272277703	0.661434866354	0.0676266339319	-0.9970703125	0.09228515625	0.13037109375	-5.3125	1.8125	3.875
18	11	28	12	38	46	0.143740202086	0.661388038135	0.0681163760206	-0.994140625	0.0859375	0.1435546875	-7.6875	2.5625	4.875
18	11	28	12	38	46	0.145509969129	0.661203647473	0.0687876406076	-0.99462890625	0.0859375	0.15234375	-9.5	2.6875	5.3125
18	11	28	12	38	46	0.147581816983	0.66100540857	0.0697015860192	-0.98974609375	0.09228515625	0.14892578125	-11.875	2.25	5.5
18	11	28	12	38	46	0.149898975974	0.660568655115	0.0709212581765	-0.98876953125	0.09375	0.1455078125	-13.9375	1.0625	5.125
18	11	28	12	38	46	0.152099868602	0.6600353046	0.0722657481641	-0.986328125	0.08642578125	0.1416015625	-14.5	-0.0625	4.4375
18	11	28	12	38	46	0.154112099448	0.659294613162	0.0736076007659	-0.98095703125	0.08251953125	0.1455078125	-13.5	-1.1875	3.625
18	11	28	12	38	46	0.155636478752	0.658677991644	0.0747665437142	-0.98291015625	0.07666015625	0.130859375	-11.0625	-1.875	3.0625
18	11	28	12	38	46	0.156859155703	0.658076037662	0.0756219820686	-0.98388671875	0.07373046875	0.13232421875	-8.125	-2.3125	2.8125
18	11	28	12	38	46	0.157775620586	0.657591696786	0.0761107152304	-0.98779296875	0.08203125	0.1298828125	-5.75	-2.375	2.625
18	11	28	12	38	46	0.158450478519	0.657178852934	0.0763565287471	-0.98876953125	0.08349609375	0.1259765625	-3.875	-2.5	2.3125
18	11	28	12	38	46	0.158816517017	0.656872927033	0.0764785149204	-0.9921875	0.08447265625	0.119140625	-2.0625	-2.375	1.8125
18	11	28	12	38	46	0.159238593343	0.656668465228	0.0764149938159	-0.9951171875	0.09619140625	0.1171875	-1.5625	-2.0625	1.5625
18	11	28	12	38	46	0.159482914876	0.656547154735	0.0763540476502	-0.99365234375	0.09619140625	0.1181640625	-1.0	-1.625	1.3125
18	11	28	12	38	46	0.159363936691	0.65643781659	0.0762334572683	-1.0009765625	0.078125	0.12646484375	1.125	-1.3125	1.1875
18	11	28	12	38	46	0.159548292255	0.656381918483	0.0756847293024	-0.9931640625	0.087890625	0.11865234375	1.8125	-1.5625	3.3125
18	11	28	12	38	46	0.159848595245	0.65623982286	0.0753162147888	-0.9921875	0.0859375	0.13232421875	0.3125	-1.125	3.625
18	11	28	12	38	47	0.160214034778	0.656175652532	0.0751327530711	-1.0087890625	0.09033203125	0.14111328125	-0.375	0.0	2.875
18	11	28	12	38	47	0.160770737442	0.656144809225	0.0750751735206	-1.00146484375	0.1005859375	0.1376953125	-2.0625	0.75	2.8125
18	11	28	12	38	47	0.161433902803	0.655989257967	0.0753765103823	-0.998046875	0.08740234375	0.1416015625	-3.625	0.25	2.4375
18	11	28	12	38	47	0.162049663422	0.65564500357	0.0756231762636	-0.9873046875	0.08935546875	0.1474609375	-3.25	-0.75	2.375
18	11	28	12	38	47	0.162415370618	0.655276745194	0.0756839757861	-0.9833984375	0.08251953125	0.15087890625	-1.625	-0.9375	2.125
18	11	28	12	38	47	0.162480448885	0.655048902115	0.0755637850185	-0.982421875	0.0771484375	0.14697265625	0.4375	-0.9375	2.125
18	11	28	12	38	47	0.162350701801	0.654895876062	0.0751329751568	-0.978515625	0.0849609375	0.1455078125	2.4375	-0.6875	1.8125
18	11	28	12	38	47	0.16217024402	0.654784485453	0.0745848845287	-0.9794921875	0.0908203125	0.14404296875	3.25	-0.75	1.75
18	11	28	12	38	47	0.161929550859	0.654676352248	0.0740981812073	-0.99072265625	0.08984375	0.1416015625	2.75	-1.0	1.3125
18	11	28	12	38	47	0.161864258135	0.654598102752	0.0739131284319	-0.99560546875	0.09619140625	0.1279296875	1.125	-0.875	0.75
18	11	28	12	38	47	0.161811347612	0.65463097063	0.0739778775202	-0.9970703125	0.09326171875	0.12841796875	-0.75	-0.75	0.125
18	11	28	12	38	47	0.161859073927	0.654516104371	0.0742769581331	-0.99365234375	0.09033203125	0.134765625	-1.4375	-0.375	-0.3125
18	11	28	12	38	47	0.161742253331	0.65447629527	0.0746455757824	-0.99365234375	0.0888671875	0.1328125	-1.1875	0.125	-0.8125
18	11	28	12	38	47	0.161684894196	0.654491174201	0.0750745261837	-0.99365234375	0.09326171875	0.130859375	-1.5	0.6875	-1.25
18	11	28	12	38	47	0.161745683643	0.654551211846	0.0756237366167	-0.98974609375	0.099609375	0.13037109375	-2.625	1.0	-1.8125
18	11	28	12	38	47	0.161862087436	0.654589324189	0.0764755639356	-0.9951171875	0.1005859375	0.12841796875	-4.125	0.9375	-2.375
18	11	28	12	38	47	0.161988982606	0.654486759789	0.0774544155714	-0.99560546875	0.0908203125	0.13427734375	-4.375	0.8125	-2.6875
18	11	28	12	38	47	0.161927576428	0.654485262737	0.078186666191	-0.9892578125	0.08984375	0.12646484375	-3.0625	0.625	-2.5
18	11	28	12	38	47	0.161684405095	0.654489194349	0.0786143879811	-0.994140625	0.08544921875	0.13330078125	-0.9375	0.5	-1.9375
18	11	28	12	38	47	0.161321285609	0.654562794882	0.0786158970355	-0.99560546875	0.0908203125	0.1298828125	1.5625	0.375	-1.25
18	11	28	12	38	47	0.161011912433	0.654606808508	0.0784917814211	-0.9912109375	0.0830078125	0.1328125	1.875	0.3125	0.125
18	11	28	12	38	47	0.160707155313	0.654730594395	0.0780647366674	-0.9970703125	0.08642578125	0.1357421875	3.125	0.375	0.9375
18	11	28	12	38	47	0.160463334181	0.654853979624	0.0775155703348	-0.99462890625	0.0966796875	0.13818359375	3.375	0.75	1.0
18	11	28	12	38	47	0.160402799355	0.655039133439	0.0772106321096	-1.00830078125	0.10302734375	0.13525390625	1.625	0.8125	0.8125
18	11	28	12	38	47	0.160395610236	0.655009775133	0.0772071715937	-1.0068359375	0.09912109375	0.13623046875	-0.1875	0.1875	0.5
18	11	28	12	38	47	0.160402022526	0.654974925315	0.0772102581795	-0.99755859375	0.09521484375	0.138671875	-0.6875	-0.0625	0.0625
18	11	28	12	38	47	0.160402022526	0.654974925315	0.0772102581795	-1.00341796875	0.087890625	0.13818359375	-0.25	0.0	-0.125
18	11	28	12	38	47	0.160401266324	0.65497183749	0.0772709296676	-0.9931640625	0.08447265625	0.14013671875	-0.1875	0.0625	0.375
18	11	28	12	38	47	0.160341022589	0.654914035926	0.0772713112285	-0.98828125	0.08447265625	0.138671875	-0.0625	0.375	0.6875
18	11	28	12	38	47	0.160341022589	0.654914035926	0.0772713112285	-0.98681640625	0.08984375	0.1357421875	-0.25	0.3125	0.875
18	11	28	12	38	47	0.16064399654	0.654844011731	0.0773312855684	-0.99609375	0.0947265625	0.1357421875	-1.5	0.0625	1.125
18	11	28	12	38	47	0.161070000057	0.654716896784	0.0775748276138	-0.99462890625	0.08935546875	0.1328125	-2.5	-0.375	1.25
18	11	28	12	38	47	0.161317600351	0.654547841907	0.0777596000177	-0.99951171875	0.08203125	0.1396484375	-1.6875	-0.625	1.25
18	11	28	12	38	47	0.161317553475	0.65442558016	0.0776375058723	-0.9912109375	0.07861328125	0.14111328125	0.5	-0.5	1.5625
18	11	28	12	38	47	0.161190290148	0.654404502449	0.0771467348531	-0.9951171875	0.0859375	0.14013671875	2.75	-0.3125	1.875
18	11	28	12	38	47	0.160953603872	0.654495826438	0.0765399390425	-1.00048828125	0.0888671875	0.130859375	3.4375	-0.3125	2.125
18	11	28	12	38	47	0.160953170043	0.654555098801	0.0760514409834	-1.001953125	0.0927734375	0.13037109375	2.3125	-0.5	2.25
18	11	28	12	38	47	0.161193175408	0.654477251002	0.0758053479198	-0.99560546875	0.0947265625	0.13623046875	0.125	-0.5625	2.25
18	11	28	12	38	47	0.161496101396	0.654407104751	0.0758653265441	-0.998046875	0.08984375	0.12841796875	-1.3125	-0.75	1.8125
18	11	28	12	38	47	0.161863354872	0.654228243166	0.0759878871856	-0.9970703125	0.08935546875	0.13525390625	-2.0625	-0.9375	1.9375
18	11	28	12	38	47	0.162232136402	0.654116555988	0.0760501286518	-0.98974609375	0.08837890625	0.13330078125	-1.8125	-0.6875	1.875
18	11	28	12	38	47	0.1624168993	0.654062191996	0.0760509043698	-0.98583984375	0.08642578125	0.13232421875	-0.6875	-0.4375	1.625
18	11	28	12	38	47	0.162661081935	0.654001310669	0.0760509223606	-0.97802734375	0.08740234375	0.1318359375	-0.6875	-0.3125	1.9375
18	11	28	12	38	47	0.162848151727	0.654017221049	0.0759306974321	-0.98095703125	0.09130859375	0.1318359375	-0.125	0.0625	1.625
18	11	28	12	38	47	0.16284165098	0.654052148389	0.075927666349	-0.994140625	0.1025390625	0.125	0.0625	0.5	0.5625
18	11	28	12	38	47	0.16308287375	0.654101481278	0.0762925120461	-1.00048828125	0.1025390625	0.1240234375	-2.5625	0.4375	-0.0625
18	11	28	12	38	47	0.163334799308	0.65407164028	0.0768454829332	-0.99365234375	0.0908203125	0.12939453125	-3.3125	0.1875	-0.1875
18	11	28	12	38	47	0.163632996646	0.654043712068	0.0773304762215	-0.97802734375	0.09375	0.12890625	-3.0625	0.3125	-0.25
18	11	28	12	38	47	0.163695087128	0.654047932015	0.0776971834131	-0.98583984375	0.08935546875	0.134765625	-1.8125	0.875	-0.3125
18	11	28	12	38	47	0.163813954312	0.654218247492	0.0778787651647	-0.9873046875	0.0927734375	0.125	-1.25	1.0625	0.3125
18	11	28	12	38	48	0.164064698766	0.654366679862	0.0781260470313	-0.986328125	0.09814453125	0.1279296875	-1.8125	1.125	0.5
18	11	28	12	38	48	0.164491223507	0.65442482317	0.0784919159295	-0.9892578125	0.10400390625	0.12744140625	-3.3125	1.0625	0.375
18	11	28	12	38	48	0.165039843632	0.654483078132	0.079162972334	-0.99365234375	0.1015625	0.12451171875	-5.0625	0.75	-0.0625
18	11	28	12	38	48	0.165591718096	0.654432142067	0.0800187034369	-1.00048828125	0.0908203125	0.1240234375	-5.75	0.5625	-0.0625
18	11	28	12	38	48	0.166261332333	0.654303040606	0.0808723441048	-0.99951171875	0.0771484375	0.14013671875	-6.125	1.0625	1.125
18	11	28	12	38	48	0.166993305415	0.654362290699	0.0816655857621	-0.98876953125	0.08203125	0.13916015625	-5.9375	2.125	1.625
18	11	28	12	38	48	0.167725062686	0.654420714017	0.0824587189551	-0.9970703125	0.0771484375	0.1435546875	-5.8125	2.625	1.8125
18	11	28	12	38	48	0.168638664473	0.654413232167	0.0834343301971	-1.00244140625	0.078125	0.1318359375	-7.75	1.9375	2.0
18	11	28	12	38	48	0.169681408253	0.654311041895	0.0845965582152	-0.99755859375	0.08056640625	0.134765625	-8.75	1.4375	1.625
18	11	28	12	38	48	0.170472309431	0.654240130609	0.0857549569461	-1.0029296875	0.0791015625	0.12890625	-7.875	1.0	0.625
18	11	28	12	38	48	0.170960962323	0.654058433508	0.0866706770792	-1.001953125	0.07666015625	0.13134765625	-5.5	0.125	-0.25
18	11	28	12	38	48	0.170833677187	0.6538553711	0.0870952687912	-0.9951171875	0.07666015625	0.134765625	-1.4375	-0.5	-1.125
18	11	28	12	38	48	0.170164137358	0.653679308142	0.0870962066031	-0.99169921875	0.06787109375	0.138671875	2.8125	-1.0625	-1.25
18	11	28	12	38	48	0.169194332332	0.65370537492	0.0864893105753	-0.9814453125	0.07861328125	0.13330078125	6.25	-0.875	-1.0625
18	11	28	12	38	48	0.168330285187	0.653790433255	0.0858130460378	-0.97314453125	0.08447265625	0.1259765625	6.5	-0.75	-0.6875
18	11	28	12	38	48	0.167421784004	0.653939844629	0.0851452383104	-0.98681640625	0.091796875	0.12451171875	6.375	-0.5625	-1.4375
18	11	28	12	38	48	0.166806250328	0.654041631362	0.0847153587467	-0.9853515625	0.1025390625	0.12109375	4.0625	-0.5625	-1.75
18	11	28	12	38	48	0.166317423481	0.654100487137	0.0847150766209	-0.9921875	0.09423828125	0.11767578125	1.875	-0.75	-2.0
18	11	28	12	38	48	0.165834322226	0.654120880124	0.084778753615	-0.982421875	0.0888671875	0.1201171875	1.4375	-0.8125	-2.0
18	11	28	12	38	48	0.165344606624	0.654115226721	0.0847780208935	-0.97265625	0.087890625	0.12548828125	2.0625	0.0	-2.0625
18	11	28	12	38	48	0.164608333695	0.654344065831	0.0845929367822	-0.97998046875	0.08642578125	0.12548828125	3.5625	0.75	-1.9375
18	11	28	12	38	48	0.164007984407	0.654628073229	0.084231863968	-0.986328125	0.10107421875	0.12353515625	3.8125	1.125	-1.8125
18	11	28	12	38	48	0.163636041805	0.654910379923	0.0840458148326	-0.99169921875	0.10498046875	0.1201171875	2.1875	1.125	-1.8125
18	11	28	12	38	48	0.163391052718	0.654968018944	0.0841064141371	-0.990234375	0.10009765625	0.1318359375	0.8125	0.75	-1.8125
18	11	28	12	38	48	0.163152577799	0.654990764069	0.0841703721602	-0.99560546875	0.09814453125	0.13037109375	0.3125	0.375	-1.8125
18	11	28	12	38	48	0.162901111609	0.65502237909	0.0841665915734	-1.00048828125	0.09326171875	0.130859375	1.1875	0.25	-1.3125
18	11	28	12	38	48	0.162473957486	0.655022731685	0.0839224987017	-0.998046875	0.0849609375	0.140625	2.75	0.375	-0.6875
18	11	28	12	38	48	0.162111097967	0.655097294608	0.0833749095719	-1.00048828125	0.0947265625	0.13916015625	3.6875	0.3125	0.5625
18	11	28	12	38	48	0.161927327594	0.655094612538	0.0827031771162	-0.9951171875	0.09423828125	0.14306640625	3.5	0.0625	1.25
18	11	28	12	38	48	0.161933073705	0.655056821336	0.0822178101322	-0.99169921875	0.095703125	0.1416015625	2.25	-0.1875	1.4375
18	11	28	12	38	48	0.162108213704	0.654963569751	0.0818475581993	-0.990234375	0.1005859375	0.13623046875	0.6875	-0.625	1.25
18	11	28	12	38	48	0.162232835659	0.654729732171	0.0817267746227	-0.99365234375	0.0888671875	0.14013671875	-0.125	-1.125	1.0
18	11	28	12	38	48	0.162292314812	0.654601382611	0.0816039206108	-0.9912109375	0.0888671875	0.130859375	0.3125	-1.375	0.6875
18	11	28	12	38	48	0.162167058839	0.654405421478	0.0813581819465	-0.982421875	0.0859375	0.13623046875	1.5	-1.3125	0.4375
18	11	28	12	38	48	0.161806437341	0.654305925424	0.0809947726714	-0.98583984375	0.08251953125	0.13427734375	3.0625	-1.0	0.375
18	11	28	12	38	48	0.161561347789	0.654363131715	0.0805060134998	-0.9814453125	0.0908203125	0.1240234375	2.8125	-0.8125	0.6875
18	11	28	12	38	48	0.161374077777	0.654468319215	0.0801987663385	-0.9833984375	0.0869140625	0.1181640625	2.125	-0.5625	0.875
18	11	28	12	38	48	0.1612004589	0.65456786113	0.0798982963651	-0.99755859375	0.0947265625	0.12451171875	1.75	-0.125	0.375
18	11	28	12	38	48	0.161194018497	0.654602744559	0.0798951042077	-0.99853515625	0.09521484375	0.123046875	-0.25	0.25	0.4375
18	11	28	12	38	48	0.161318563109	0.654673820624	0.0800794380625	-1.00244140625	0.0859375	0.125	-1.0625	0.3125	0.5625
18	11	28	12	38	48	0.161561197923	0.65472873824	0.0803228320616	-0.9912109375	0.08544921875	0.12548828125	-1.8125	0.625	0.8125
18	11	28	12	38	48	0.161802993998	0.654841313696	0.0806878755435	-0.99462890625	0.080078125	0.1298828125	-2.5	1.3125	0.9375
18	11	28	12	38	48	0.162412648867	0.654899557439	0.0812368416543	-0.994140625	0.0830078125	0.1337890625	-4.5625	1.8125	1.3125
18	11	28	12	38	48	0.163032694755	0.654999568482	0.0820962090773	-0.99853515625	0.0732421875	0.13232421875	-5.875	2.25	1.125
18	11	28	12	38	48	0.163875511289	0.655074809188	0.0830058455693	-0.99462890625	0.078125	0.12841796875	-6.9375	2.0	1.5625
18	11	28	12	38	48	0.164738470191	0.655108558932	0.0839256748841	-0.99755859375	0.0771484375	0.12353515625	-7.1875	1.5	1.4375
18	11	28	12	38	48	0.165349831747	0.655112493223	0.0847806999988	-0.99951171875	0.0712890625	0.12109375	-5.5625	0.875	1.125
18	11	28	12	38	48	0.165595218201	0.65511738922	0.0852696350266	-0.99560546875	0.0703125	0.1259765625	-3.0	0.625	0.75
18	11	28	12	38	48	0.165527593489	0.655091320396	0.0853272771745	-0.9970703125	0.064453125	0.13330078125	0.5	0.375	0.6875
18	11	28	12	38	48	0.165102318631	0.655160180477	0.0850231163969	-0.99072265625	0.07861328125	0.1318359375	3.1875	0.25	0.375
18	11	28	12	38	49	0.164620080566	0.655306334802	0.0845989735502	-0.99755859375	0.0859375	0.12646484375	3.6875	0.1875	0.0625
18	11	28	12	38	49	0.1642467206	0.655338921991	0.0842901230576	-0.99267578125	0.0830078125	0.12744140625	2.6875	-0.375	0.0625
18	11	28	12	38	49	0.164062966944	0.655275302496	0.0841066846907	-0.99462890625	0.087890625	0.12744140625	1.6875	-0.6875	-0.0625
18	11	28	12	38	49	0.163818964462	0.655214822466	0.0839846852085	-0.99951171875	0.083984375	0.1259765625	1.3125	-0.875	-0.0625
18	11	28	12	38	49	0.16363512254	0.65521187634	0.0838622373629	-1.00048828125	0.083984375	0.125	1.4375	-0.8125	0.0625
18	11	28	12	38	49	0.163386229762	0.65519281901	0.0836156648388	-0.9970703125	0.0810546875	0.12158203125	1.875	-1.0	0.625
18	11	28	12	38	49	0.162968047451	0.655229209507	0.0832540886603	-1.0	0.07666015625	0.12353515625	3.375	-0.75	0.6875
18	11	28	12	38	49	0.162658121512	0.655271141673	0.082641312018	-0.99072265625	0.0810546875	0.12841796875	3.5625	-0.5625	1.5
18	11	28	12	38	49	0.162229240051	0.65538659882	0.0820911692506	-1.0	0.076171875	0.126953125	4.375	-0.3125	1.3125
18	11	28	12	38	49	0.161926399224	0.655518103154	0.0815430340609	-1.0068359375	0.095703125	0.125	3.4375	-0.0625	0.625
18	11	28	12	38	49	0.161743223714	0.655578855061	0.0814209284658	-1.00439453125	0.0869140625	0.12451171875	1.1875	-0.25	0.3125
18	11	28	12	38	49	0.161742419629	0.655575595938	0.0814815585679	-0.99462890625	0.08251953125	0.123046875	-0.125	-0.75	0.0
18	11	28	12	38	49	0.161742419629	0.655575595938	0.0814815585679	-0.99072265625	0.08349609375	0.12841796875	0.375	-0.6875	0.0
18	11	28	12	38	49	0.161503925146	0.655476436941	0.0814233696694	-0.99169921875	0.07861328125	0.130859375	1.25	-0.625	-0.0625
18	11	28	12	38	49	0.161200297948	0.655421733952	0.0813020813582	-0.99462890625	0.0771484375	0.1279296875	1.875	-0.75	0.25
18	11	28	12	38	49	0.160952052956	0.655405060541	0.0809948328681	-0.9921875	0.08203125	0.12744140625	2.125	-0.75	0.5
18	11	28	12	38	49	0.160826760798	0.655330903489	0.0808711415779	-0.9951171875	0.0859375	0.1240234375	1.0625	-1.125	0.5625
18	11	28	12	38	49	0.160827601071	0.655212257113	0.0806884586775	-0.99169921875	0.08642578125	0.12353515625	0.6875	-1.625	0.6875
18	11	28	12	38	49	0.160642857418	0.655083506334	0.0805045322701	-0.99658203125	0.0810546875	0.12255859375	1.25	-1.5625	0.5625
18	11	28	12	38	49	0.160466074506	0.65498723679	0.0802635557152	-0.99755859375	0.08154296875	0.12646484375	2.0625	-1.5625	0.8125
18	11	28	12	38	49	0.160272388321	0.654944020972	0.0797699967767	-0.99462890625	0.087890625	0.12646484375	2.6875	-1.375	1.25
18	11	28	12	38	49	0.160034329327	0.654907838933	0.0791626716772	-0.99365234375	0.08740234375	0.12890625	3.4375	-1.3125	1.5
18	11	28	12	38	49	0.159908743073	0.654893440143	0.0785505924943	-0.99267578125	0.0888671875	0.1259765625	3.0625	-1.375	1.75
18	11	28	12	38	49	0.159852286058	0.654729084591	0.0781255922697	-0.9970703125	0.0869140625	0.1298828125	1.8125	-1.75	1.8125
18	11	28	12	38	49	0.159848118578	0.654589947212	0.0777573513052	-0.9951171875	0.083984375	0.13427734375	1.5625	-1.5625	1.875
18	11	28	12	38	49	0.159791615941	0.654486439165	0.077393341869	-1.0009765625	0.08349609375	0.12939453125	2.125	-1.5625	1.75
18	11	28	12	38	49	0.1596643105	0.65440395152	0.0768415011159	-0.9970703125	0.08642578125	0.134765625	2.625	-1.25	2.0
18	11	28	12	38	49	0.159426679516	0.654430649987	0.0762342736275	-0.9931640625	0.083984375	0.12841796875	3.5625	-1.0	2.25
18	11	28	12	38	49	0.159302311797	0.654482256473	0.0755617862085	-0.99072265625	0.08935546875	0.1279296875	3.5	-0.75	2.375
18	11	28	12	38	49	0.159301750988	0.65447995243	0.0750122038177	-0.9853515625	0.08642578125	0.134765625	2.4375	-0.5625	2.8125
18	11	28	12	38	49	0.159241716009	0.654545098689	0.0745243906657	-0.99267578125	0.0888671875	0.1328125	2.4375	-0.25	2.25
18	11	28	12	38	49	0.15930632457	0.654620816482	0.0741598407483	-0.99853515625	0.10400390625	0.1357421875	1.25	0.3125	1.1875
18	11	28	12	38	49	0.15930632457	0.654620816482	0.0741598407483	-1.00146484375	0.099609375	0.134765625	-0.375	0.375	0.75
18	11	28	12	38	49	0.159246114688	0.654624216185	0.0742212631124	-0.9990234375	0.09423828125	0.13134765625	-0.8125	-0.0625	0.125
18	11	28	12	38	49	0.159246114688	0.654624216185	0.0742212631124	-0.998046875	0.087890625	0.13427734375	-0.125	0.1875	0.5625
18	11	28	12	38	49	0.159246114688	0.654624216185	0.0742212631124	-0.9970703125	0.0966796875	0.13330078125	0.6875	0.3125	0.5625
18	11	28	12	38	49	0.159299959407	0.654655695249	0.074156877655	-1.0029296875	0.095703125	0.13720703125	0.0625	0.5	1.0625
18	11	28	12	38	49	0.159664728029	0.654649798486	0.0740951757749	-1.00146484375	0.0986328125	0.13818359375	-1.125	0.25	1.8125
18	11	28	12	38	49	0.16016054023	0.654619586115	0.074159701364	-0.9990234375	0.099609375	0.13330078125	-2.0625	0.0	2.0625
18	11	28	12	38	49	0.160708611054	0.654553416233	0.0742201561115	-1.00146484375	0.10595703125	0.13037109375	-2.5	-0.4375	1.875
18	11	28	12	38	49	0.161069520644	0.654409776561	0.0743397787588	-1.00927734375	0.10302734375	0.13330078125	-2.1875	-0.9375	0.8125
18	11	28	12	38	49	0.161256222137	0.654180238027	0.0745855804132	-1.00390625	0.08837890625	0.13232421875	-1.625	-1.6875	0.6875
18	11	28	12	38	49	0.161383392707	0.653895720902	0.0747710499491	-0.990234375	0.0849609375	0.13427734375	-1.4375	-1.8125	0.6875
18	11	28	12	38	49	0.161378767204	0.653693871693	0.0749520144201	-0.982421875	0.080078125	0.1318359375	-0.5625	-1.375	0.5
18	11	28	12	38	49	0.161319320047	0.653700309383	0.0749527525604	-0.982421875	0.08740234375	0.13427734375	-0.75	-0.875	0.3125
18	11	28	12	38	49	0.16150039788	0.653631050983	0.075256988128	-0.98291015625	0.0927734375	0.12939453125	-2.0625	-0.5625	-0.125
18	11	28	12	38	49	0.161678462753	0.653549633505	0.0758039451637	-0.98779296875	0.09619140625	0.12255859375	-2.875	-0.625	-0.9375
18	11	28	12	38	49	0.161744043176	0.653445934431	0.0763553954766	-0.98388671875	0.0986328125	0.12548828125	-2.8125	-0.6875	-1.875
18	11	28	12	38	49	0.161623234508	0.653328966076	0.0769663514781	-0.98681640625	0.08984375	0.11962890625	-2.4375	-0.8125	-2.5625
18	11	28	12	38	49	0.161383466059	0.653224604297	0.077578814433	-0.98583984375	0.08251953125	0.12548828125	-1.6875	-0.875	-2.3125
18	11	28	12	38	50	0.160949057386	0.653256640575	0.0779415799322	-0.99462890625	0.0791015625	0.12451171875	0.1875	-0.4375	-2.0
18	11	28	12	38	50	0.160644595882	0.653320575351	0.0780029610705	-0.99072265625	0.08056640625	0.1240234375	1.1875	-0.0625	-0.625
18	11	28	12	38	50	0.160219403141	0.653512056928	0.0777598169913	-0.994140625	0.0830078125	0.123046875	2.625	0.125	0.1875
18	11	28	12	38	50	0.159913864094	0.653693696355	0.0774544631815	-1.0	0.083984375	0.13037109375	2.5	0.4375	0.5625
18	11	28	12	38	50	0.159731320435	0.65375703981	0.0772716284567	-1.0009765625	0.08251953125	0.1337890625	1.75	0.125	0.8125
18	11	28	12	38	50	0.159486935341	0.653695016266	0.0771494398282	-0.9951171875	0.0791015625	0.13671875	1.75	-0.4375	0.625
18	11	28	12	38	50	0.159125051608	0.653651775095	0.0769073897301	-0.99169921875	0.07568359375	0.13671875	2.4375	-0.75	0.625
18	11	28	12	38	50	0.158815479551	0.653572696016	0.0766611231039	-0.9892578125	0.07861328125	0.14208984375	2.375	-0.6875	0.4375
18	11	28	12	38	50	0.158570979042	0.653449153819	0.0764778432407	-0.990234375	0.08056640625	0.140625	1.875	-0.8125	0.3125
18	11	28	12	38	50	0.158332770751	0.653290534061	0.0762975957746	-0.98828125	0.08349609375	0.14111328125	1.625	-1.0	0.3125
18	11	28	12	38	50	0.158141423547	0.653195490083	0.0761105191677	-0.986328125	0.08544921875	0.1337890625	1.5	-1.125	0.375
18	11	28	12	38	50	0.158082503396	0.653082156887	0.0759284302026	-0.9833984375	0.08837890625	0.12646484375	0.8125	-1.5625	0.625
18	11	28	12	38	50	0.158083813157	0.652965495426	0.0756849144073	-0.98486328125	0.09130859375	0.1298828125	1.0625	-1.6875	0.9375
18	11	28	12	38	50	0.157962777027	0.652969779226	0.0752581545883	-0.9873046875	0.0888671875	0.12548828125	2.3125	-1.5625	1.1875
18	11	28	12	38	50	0.157710640409	0.652936699341	0.0746440066642	-0.9892578125	0.08544921875	0.12841796875	3.5	-1.625	1.875
18	11	28	12	38	50	0.157411085895	0.653021018997	0.0736700971987	-0.9892578125	0.08740234375	0.11962890625	5.1875	-1.8125	3.0
18	11	28	12	38	50	0.157048334382	0.653157491729	0.0724509805328	-0.98583984375	0.09619140625	0.125	6.625	-1.5625	3.1875
18	11	28	12	38	50	0.156614638296	0.653374786813	0.0711052430301	-0.98828125	0.10009765625	0.12060546875	7.375	-1.4375	3.1875
18	11	28	12	38	50	0.156187685955	0.653620136339	0.0697626123667	-0.99072265625	0.1005859375	0.119140625	7.5	-1.3125	3.25
18	11	28	12	38	50	0.155641159426	0.653814941086	0.0683600386498	-0.994140625	0.09765625	0.12353515625	8.0625	-1.1875	3.4375
18	11	28	12	38	50	0.154911409944	0.654131434347	0.0668353009807	-1.00341796875	0.09765625	0.1279296875	9.375	-0.5625	3.3125
18	11	28	12	38	50	0.15417719115	0.654612183327	0.0652475919792	-1.00390625	0.10791015625	0.1220703125	9.9375	0.4375	2.9375
18	11	28	12	38	50	0.153630560823	0.654989888039	0.0639669557977	-1.01025390625	0.10986328125	0.12890625	7.5625	0.3125	2.9375
18	11	28	12	38	50	0.153626793427	0.655156933113	0.0631719233997	-0.99560546875	0.1064453125	0.13623046875	3.5625	0.4375	3.1875
18	11	28	12	38	50	0.153930010062	0.655331688359	0.0628659438399	-0.99658203125	0.1005859375	0.134765625	0.0625	0.9375	3.125
18	11	28	12	38	50	0.154353611139	0.655377254412	0.0629865269653	-1.0087890625	0.0927734375	0.13720703125	-2.0	0.875	2.75
18	11	28	12	38	50	0.155090770261	0.655336324399	0.0634767418622	-1.00927734375	0.09619140625	0.14111328125	-4.5	0.8125	2.4375
18	11	28	12	38	50	0.155583064032	0.655231146484	0.0638445998344	-1.0048828125	0.09326171875	0.14013671875	-3.5625	0.3125	1.875
18	11	28	12	38	50	0.155942969602	0.655143575618	0.0642082207519	-0.99169921875	0.10009765625	0.13818359375	-2.6875	0.125	1.0
18	11	28	12	38	50	0.156131645221	0.655044885265	0.0644546588557	-0.98779296875	0.09912109375	0.1376953125	-1.8125	-0.125	0.375
18	11	28	12	38	50	0.156124627053	0.655015440785	0.0644517615979	-0.98828125	0.1005859375	0.1376953125	-0.375	-0.5	-0.3125
18	11	28	12	38	50	0.156064465812	0.655019103285	0.0645131561845	-0.9921875	0.1025390625	0.13818359375	0.5625	-0.625	-0.375
18	11	28	12	38	50	0.155886878254	0.654981241402	0.0643323295534	-0.99169921875	0.1064453125	0.130859375	1.3125	-0.875	-0.125
18	11	28	12	38	50	0.155820763752	0.654898862144	0.0642081643034	-0.99365234375	0.109375	0.125	0.5	-1.375	0.125
18	11	28	12	38	50	0.156069429764	0.654734756776	0.0643320997149	-0.99169921875	0.11181640625	0.12158203125	-1.4375	-2.125	0.3125
18	11	28	12	38	50	0.156250559379	0.654421288148	0.0643923203689	-0.990234375	0.103515625	0.1279296875	-1.1875	-2.6875	0.5625
18	11	28	12	38	50	0.156129965985	0.654122300808	0.0641487858682	-0.98681640625	0.0947265625	0.13330078125	1.3125	-2.625	1.125
18	11	28	12	38	50	0.155764315468	0.654002601974	0.0634165845498	-0.98388671875	0.0947265625	0.13330078125	4.8125	-2.1875	1.875
18	11	28	12	38	50	0.155154009508	0.654063873285	0.0621348472382	-0.9853515625	0.1005859375	0.12939453125	7.625	-2.0	2.75
18	11	28	12	38	50	0.154538362533	0.654163574103	0.0607289378833	-0.98486328125	0.10498046875	0.12548828125	8.4375	-2.0	3.0
18	11	28	12	38	50	0.153926631816	0.65415766844	0.0594466849282	-0.9921875	0.10546875	0.1328125	7.6875	-2.1875	2.75
18	11	28	12	38	50	0.153385591261	0.654131866908	0.0583512237346	-0.9912109375	0.103515625	0.12890625	6.75	-2.4375	2.1875
18	11	28	12	38	50	0.152709397172	0.65398928485	0.0573728350685	-0.99169921875	0.10205078125	0.13720703125	6.75	-2.5625	1.5
18	11	28	12	38	50	0.151854924544	0.653928320565	0.0563962822664	-0.998046875	0.09716796875	0.13427734375	7.625	-2.25	0.875
18	11	28	12	38	50	0.150821755808	0.653886471053	0.0553603126337	-0.99365234375	0.09375	0.14111328125	8.5625	-2.0	0.8125
18	11	28	12	38	50	0.14965710984	0.653864852249	0.0541988228131	-1.00048828125	0.09814453125	0.14892578125	9.3125	-1.6875	0.4375
18	11	28	12	38	50	0.148742544457	0.653808016507	0.0531615741577	-0.98583984375	0.1025390625	0.14306640625	7.875	-1.75	0.625
18	11	28	12	38	50	0.147826256588	0.6537436145	0.0523068133346	-0.9912109375	0.10693359375	0.1416015625	7.1875	-1.6875	-0.3125
18	11	28	12	38	50	0.146909125796	0.653736454673	0.051634865153	-1.001953125	0.109375	0.14013671875	6.3125	-1.4375	-1.125
18	11	28	12	38	50	0.146234745952	0.65366199046	0.0512065742293	-0.998046875	0.11572265625	0.1357421875	4.6875	-1.8125	-1.4375
18	11	28	12	38	50	0.145447064786	0.653565744746	0.0507203150807	-0.98681640625	0.107421875	0.13330078125	4.875	-2.25	-1.375
18	11	28	12	38	51	0.144711620138	0.653368997712	0.0502309841305	-0.97607421875	0.107421875	0.13720703125	4.75	-2.375	-1.1875
18	11	28	12	38	51	0.143982588511	0.653201213332	0.0497438786082	-0.9755859375	0.10498046875	0.14453125	4.875	-2.0625	-1.1875
18	11	28	12	38	51	0.143187470279	0.653071582261	0.0493160596698	-0.98095703125	0.1015625	0.13623046875	4.875	-1.8125	-1.125
18	11	28	12	38	51	0.142574024473	0.653057389494	0.0487656873089	-0.98388671875	0.107421875	0.13330078125	4.625	-1.75	-0.6875
18	11	28	12	38	51	0.141906713435	0.653076057529	0.0482788001407	-0.98388671875	0.10791015625	0.1298828125	4.6875	-1.625	-0.75
18	11	28	12	38	51	0.14105458813	0.653148051743	0.0477302846895	-0.99169921875	0.107421875	0.13134765625	5.375	-1.3125	-1.0
18	11	28	12	38	51	0.140256934991	0.653250641955	0.0471185177604	-0.9951171875	0.10693359375	0.134765625	5.875	-0.9375	-0.875
18	11	28	12	38	51	0.139400129767	0.653361816617	0.0463853321465	-0.994140625	0.107421875	0.13818359375	6.25	-0.5	-0.5
18	11	28	12	38	51	0.138555751757	0.653470430974	0.0455341809739	-0.98876953125	0.1044921875	0.1474609375	7.0	-0.0625	0.0625
18	11	28	12	38	51	0.137693818286	0.653618395403	0.0446772495504	-0.9873046875	0.1064453125	0.15087890625	7.375	0.3125	0.0625
18	11	28	12	38	51	0.136903694818	0.653756342039	0.0437627949997	-0.98046875	0.11376953125	0.14453125	6.9375	0.3125	0.0
18	11	28	12	38	51	0.136171807936	0.65388103022	0.0430915716732	-0.98583984375	0.11328125	0.1474609375	5.75	0.0625	-0.5625
18	11	28	12	38	51	0.135557430974	0.653861665026	0.0425409857671	-0.9873046875	0.11767578125	0.15087890625	4.4375	-0.1875	-1.0625
18	11	28	12	38	51	0.134887416428	0.653807241981	0.0421752057701	-0.98876953125	0.11328125	0.15087890625	4.1875	-0.5	-1.4375
18	11	28	12	38	51	0.134277240204	0.653747054467	0.0418090497908	-0.986328125	0.11474609375	0.1513671875	4.125	-0.5	-1.75
18	11	28	12	38	51	0.133607382029	0.653693495447	0.0413822773028	-0.986328125	0.11328125	0.1435546875	4.125	-0.8125	-1.25
18	11	28	12	38	51	0.133057332096	0.653628885056	0.0409548026774	-0.98828125	0.11376953125	0.146484375	3.8125	-1.125	-1.125
18	11	28	12	38	51	0.13281132767	0.653497649521	0.0407100898693	-0.98291015625	0.11767578125	0.14453125	1.9375	-1.1875	-0.6875
18	11	28	12	38	51	0.132564652156	0.65336307612	0.0405872438692	-0.99072265625	0.11474609375	0.14208984375	1.1875	-1.4375	-0.875
18	11	28	12	38	51	0.132383620053	0.653251215041	0.0405268435754	-1.00048828125	0.1171875	0.1416015625	0.9375	-1.3125	-0.9375
18	11	28	12	38	51	0.132141950384	0.653141344601	0.0405886360302	-0.99755859375	0.10693359375	0.13671875	0.5625	-1.375	-0.875
18	11	28	12	38	51	0.131895569616	0.653008190338	0.0404048436306	-0.9970703125	0.107421875	0.14208984375	1.625	-1.625	-0.375
18	11	28	12	38	51	0.13170989243	0.652934397229	0.0402209541759	-0.990234375	0.1044921875	0.13720703125	1.4375	-1.4375	0.1875
18	11	28	12	38	51	0.131475771388	0.65286204771	0.0399798654871	-0.98388671875	0.10595703125	0.14013671875	1.8125	-1.1875	0.4375
18	11	28	12	38	51	0.131225489145	0.652831549717	0.0396728222995	-0.9873046875	0.1015625	0.14013671875	2.3125	-1.1875	0.75
18	11	28	12	38	51	0.131039989402	0.652697553173	0.0393058934209	-0.990234375	0.10302734375	0.14501953125	2.3125	-1.25	1.0625
18	11	28	12	38	51	0.13092146193	0.652654168957	0.0388797068761	-0.982421875	0.10546875	0.138671875	2.3125	-1.3125	1.3125
18	11	28	12	38	51	0.130736652797	0.65258463665	0.0385129915569	-0.98291015625	0.1025390625	0.140625	2.375	-1.4375	1.125
18	11	28	12	38	51	0.130557023558	0.652479935408	0.0381477979074	-0.98583984375	0.103515625	0.14306640625	2.3125	-1.4375	1.125
18	11	28	12	38	51	0.130312168622	0.652415349134	0.0377813734787	-0.98779296875	0.1015625	0.14111328125	2.3125	-1.3125	1.125
18	11	28	12	38	51	0.130067585522	0.65235211359	0.0373539945282	-0.98486328125	0.10009765625	0.1455078125	2.9375	-1.125	1.125
18	11	28	12	38	51	0.12969808144	0.652335573847	0.0368647723245	-0.98193359375	0.1005859375	0.14111328125	3.375	-0.9375	1.1875
18	11	28	12	38	51	0.129393872558	0.652340429198	0.0364988376367	-0.984375	0.1015625	0.14013671875	3.0625	-0.75	0.8125
18	11	28	12	38	51	0.129090081627	0.652408455087	0.0361940512552	-0.98779296875	0.10498046875	0.1396484375	2.4375	-0.5	0.4375
18	11	28	12	38	51	0.128725387117	0.652477187425	0.0360724057782	-0.99609375	0.0986328125	0.13818359375	1.9375	-0.6875	0.0625
18	11	28	12	38	51	0.128299449197	0.652422841327	0.0358896651417	-0.9970703125	0.099609375	0.14697265625	2.375	-0.75	-0.1875
18	11	28	12	38	51	0.127810082135	0.652539440353	0.0356452187042	-0.98974609375	0.10107421875	0.1357421875	3.25	-0.4375	-0.3125
18	11	28	12	38	51	0.127260459533	0.652598960826	0.0352789187577	-0.994140625	0.10205078125	0.14013671875	3.5	-0.4375	-0.3125
18	11	28	12	38	51	0.126770297454	0.65265035661	0.0350342564944	-0.99267578125	0.1044921875	0.1435546875	3.0625	-0.5625	-0.375
18	11	28	12	38	51	0.126399054277	0.652563345402	0.0347276976743	-0.9794921875	0.09619140625	0.1484375	2.75	-0.75	0.375
18	11	28	12	38	51	0.125793089168	0.652463912281	0.0343016575025	-0.98681640625	0.09423828125	0.15185546875	4.25	-0.8125	0.3125
18	11	28	12	38	51	0.125244313956	0.652527758532	0.0336914528772	-0.99560546875	0.10693359375	0.14892578125	4.75	-0.625	0.375
18	11	28	12	38	51	0.124759534562	0.652485041326	0.0331430661777	-0.9921875	0.10546875	0.14599609375	4.3125	-0.9375	0.4375
18	11	28	12	38	51	0.124209862088	0.652483255882	0.0325326076132	-0.9921875	0.1044921875	0.14208984375	4.5625	-1.3125	0.25
18	11	28	12	38	51	0.123720450757	0.65247736487	0.0318609152911	-0.984375	0.10986328125	0.140625	4.8125	-1.3125	0.5625
18	11	28	12	38	51	0.123170146573	0.652472183781	0.0313723762828	-0.99072265625	0.1015625	0.14111328125	4.25	-1.1875	0.3125
18	11	28	12	38	51	0.122680130951	0.652462985007	0.0308226199653	-0.98779296875	0.1015625	0.14306640625	4.125	-1.125	0.8125
18	11	28	12	38	51	0.12219586025	0.652484388646	0.0302132621497	-0.9873046875	0.1005859375	0.1416015625	4.5	-0.9375	1.0
18	11	28	12	38	51	0.121826192298	0.652465929691	0.0296020557437	-0.98583984375	0.10693359375	0.14306640625	4.1875	-0.9375	1.3125
18	11	28	12	38	52	0.121582076543	0.652466063375	0.029052745198	-0.9892578125	0.10986328125	0.1376953125	3.0625	-1.25	1.25
18	11	28	12	38	52	0.121342325399	0.652428629875	0.0286265345132	-0.9912109375	0.1015625	0.14111328125	2.8125	-1.5	1.3125
18	11	28	12	38	52	0.120972312862	0.652408199891	0.0280763188278	-0.98681640625	0.1015625	0.13916015625	3.8125	-1.4375	1.3125
18	11	28	12	38	52	0.120421930377	0.652341404899	0.0272826167655	-0.98779296875	0.10009765625	0.1474609375	5.6875	-1.375	1.5
18	11	28	12	38	52	0.119747319098	0.65232382595	0.0261832823103	-0.98681640625	0.10400390625	0.146484375	7.125	-1.5625	2.125
18	11	28	12	38	52	0.119263593007	0.652287624598	0.0249635668065	-0.982421875	0.10888671875	0.14111328125	7.375	-1.9375	3.0
18	11	28	12	38	52	0.118900488388	0.652243644207	0.0235603637155	-0.984375	0.12451171875	0.1435546875	6.9375	-2.0	3.1875
18	11	28	12	38	52	0.118591876073	0.652163765231	0.0221558677378	-1.0	0.11083984375	0.150390625	7.25	-2.0	4.625
18	11	28	12	38	52	0.118228448756	0.652057056302	0.0203863200229	-0.99462890625	0.1064453125	0.15576171875	9.3125	-1.8125	6.375
18	11	28	12	38	52	0.11792294955	0.652116352482	0.0179447966707	-0.99658203125	0.1279296875	0.14892578125	11.625	-1.75	7.5
18	11	28	12	38	52	0.11798372826	0.652236999581	0.0156253670122	-0.9921875	0.146484375	0.1328125	9.4375	-2.1875	7.9375
18	11	28	12	38	52	0.118406498291	0.652090220487	0.0139768495406	-0.98779296875	0.14794921875	0.1416015625	5.0625	-2.5625	6.9375
18	11	28	12	38	52	0.118897602109	0.65186159678	0.0129395747675	-0.98193359375	0.13134765625	0.14208984375	2.625	-2.875	6.0625
18	11	28	12	38	52	0.119081471887	0.651560590668	0.0119630796975	-0.978515625	0.12646484375	0.15234375	3.4375	-2.8125	5.0
18	11	28	12	38	52	0.118774612732	0.651368277016	0.0108032407264	-0.98681640625	0.1328125	0.15283203125	5.8125	-2.1875	3.4375
18	11	28	12	38	52	0.11840924944	0.65137294331	0.00988778268518	-0.99072265625	0.134765625	0.14794921875	5.3125	-1.6875	2.125
18	11	28	12	38	52	0.118102138838	0.65124021778	0.00933830865233	-0.9912109375	0.12744140625	0.14501953125	3.5	-1.75	1.375
18	11	28	12	38	52	0.117920299223	0.651125130495	0.0092163380863	-0.98974609375	0.12841796875	0.1455078125	1.0625	-1.875	0.5
18	11	28	12	38	52	0.117797592434	0.650938509484	0.00939939338589	-0.98583984375	0.12060546875	0.14404296875	-0.4375	-1.75	-0.1875
18	11	28	12	38	52	0.117554213237	0.650759616579	0.00982670214493	-0.98388671875	0.1103515625	0.1494140625	-0.5625	-1.6875	-0.6875
18	11	28	12	38	52	0.117064929481	0.650570950645	0.0100097228545	-0.98291015625	0.10888671875	0.15625	1.3125	-1.25	-1.125
18	11	28	12	38	52	0.11633193956	0.650567756436	0.00988760451662	-0.9833984375	0.115234375	0.1484375	3.4375	-0.9375	-1.375
18	11	28	12	38	52	0.115474002971	0.650609340206	0.00964317783795	-0.9833984375	0.12451171875	0.14794921875	4.25	-0.875	-2.0625
18	11	28	12	38	52	0.114565593224	0.650649559814	0.00939962778717	-0.986328125	0.13037109375	0.14404296875	4.25	-0.9375	-2.75
18	11	28	12	38	52	0.113646489316	0.650629203068	0.00921622979955	-0.9775390625	0.12890625	0.14892578125	4.25	-1.0625	-3.3125
18	11	28	12	38	52	0.112611923314	0.650646668038	0.00909440464706	-0.9833984375	0.1298828125	0.14599609375	4.375	-1.0	-3.5
18	11	28	12	38	52	0.111633203677	0.650695234771	0.0087890548548	-0.98388671875	0.13330078125	0.14892578125	4.875	-0.8125	-3.25
18	11	28	12	38	52	0.110655138457	0.65080846187	0.0084227297888	-0.98193359375	0.12939453125	0.14501953125	5.1875	-0.4375	-2.75
18	11	28	12	38	52	0.109802661891	0.650942406372	0.00799563574634	-0.98486328125	0.12841796875	0.14794921875	4.9375	-0.3125	-2.25
18	11	28	12	38	52	0.109069855302	0.651001162088	0.0077514670528	-0.98974609375	0.12890625	0.1474609375	4.0	-0.1875	-1.875
18	11	28	12	38	52	0.108517938765	0.651046598881	0.00750714649502	-0.98974609375	0.1279296875	0.1533203125	3.1875	-0.375	-1.4375
18	11	28	12	38	52	0.107970346947	0.651056919662	0.00720209210838	-0.9912109375	0.125	0.1513671875	3.0625	-0.5	-0.9375
18	11	28	12	38	52	0.107483025673	0.651062711446	0.00689698006876	-0.98681640625	0.1220703125	0.15478515625	3.5	-0.5	-0.5
18	11	28	12	38	52	0.106870209099	0.651047698722	0.00640855051709	-0.98681640625	0.12158203125	0.1533203125	4.25	-0.5	-0.125
18	11	28	12	38	52	0.106322612022	0.65105815295	0.00585934027216	-0.9873046875	0.12255859375	0.15234375	4.5625	-0.5625	0.0
18	11	28	12	38	52	0.105955266498	0.650990133909	0.0054320384322	-0.98291015625	0.123046875	0.154296875	3.25	-0.8125	0.375
18	11	28	12	38	52	0.105592705721	0.650951564456	0.00506600842474	-0.9814453125	0.12255859375	0.15234375	3.0	-1.0	0.1875
18	11	28	12	38	52	0.105104570418	0.650891486025	0.00463876152831	-0.990234375	0.126953125	0.15380859375	3.4375	-0.875	-0.375
18	11	28	12	38	52	0.104737685759	0.650887343202	0.00439458821367	-0.9951171875	0.13134765625	0.14892578125	2.375	-0.75	-0.8125
18	11	28	12	38	52	0.104310360294	0.65088688249	0.00427251329466	-0.994140625	0.12841796875	0.14892578125	2.0625	-0.9375	-1.125
18	11	28	12	38	52	0.104007281639	0.65077795589	0.00408948818652	-0.984375	0.12939453125	0.1533203125	1.8125	-0.875	-0.9375
18	11	28	12	38	52	0.103700596	0.650768542996	0.00415046529016	-0.9892578125	0.1162109375	0.1484375	1.125	-0.8125	-0.6875
18	11	28	12	38	52	0.103635457662	0.650742785392	0.00415030101357	-0.97998046875	0.1162109375	0.1533203125	0.4375	-0.8125	-0.0625
18	11	28	12	38	52	0.103635431218	0.650742619342	0.00421133377739	-0.978515625	0.1162109375	0.158203125	0.6875	-0.625	0.4375
18	11	28	12	38	52	0.103514109138	0.650686272126	0.00402826132261	-0.9814453125	0.12109375	0.14990234375	1.0	-0.75	0.625
18	11	28	12	38	52	0.103513492363	0.650621361195	0.00396720342192	-0.98974609375	0.1279296875	0.1494140625	0.3125	-1.0625	0.3125
18	11	28	12	38	52	0.103516934417	0.650520923949	0.00402837126859	-0.99267578125	0.12548828125	0.14599609375	-0.1875	-1.5	-0.0625
18	11	28	12	38	52	0.103333207432	0.650272883629	0.00402834712967	-0.9873046875	0.12158203125	0.15673828125	0.5625	-1.625	-0.375
18	11	28	12	38	52	0.102904551018	0.650141920193	0.00384518784944	-0.9892578125	0.115234375	0.1591796875	2.25	-1.4375	-0.5
18	11	28	12	38	52	0.102480655865	0.650041086936	0.00347909314135	-0.98681640625	0.12158203125	0.15087890625	3.125	-1.3125	0.0
18	11	28	12	38	53	0.102113029511	0.649971100577	0.00317386583059	-0.9931640625	0.12353515625	0.15283203125	2.625	-1.375	0.0
18	11	28	12	38	53	0.101929974459	0.649788328201	0.0029297238168	-0.990234375	0.12255859375	0.158203125	1.625	-1.5625	0.375
18	11	28	12	38	53	0.101867656997	0.649597048182	0.00286865181477	-0.9912109375	0.12353515625	0.15576171875	0.4375	-1.75	0.1875
18	11	28	12	38	53	0.101804668155	0.649340446342	0.00286859676455	-0.986328125	0.11962890625	0.15673828125	0.25	-1.9375	0.25
18	11	28	12	38	53	0.10150007376	0.649099990642	0.00280757870893	-0.984375	0.1103515625	0.15576171875	1.375	-2.0	0.0
18	11	28	12	38	53	0.100950536238	0.648976452128	0.0024413672609	-0.9853515625	0.10986328125	0.15771484375	3.5	-1.6875	-0.125
18	11	28	12	38	53	0.100280782265	0.648925914209	0.00195312540018	-0.9892578125	0.11279296875	0.15380859375	4.8125	-1.4375	-0.375
18	11	28	12	38	53	0.0995505138169	0.64887891624	0.00140383925064	-0.98828125	0.1181640625	0.15234375	5.0625	-1.3125	-0.4375
18	11	28	12	38	53	0.098937081052	0.648858796214	0.000976553545238	-0.98046875	0.11767578125	0.1494140625	4.125	-1.25	-0.375
18	11	28	12	38	53	0.0983879611881	0.64879902446	0.000671381869149	-0.97705078125	0.1103515625	0.15380859375	3.625	-1.1875	-0.3125
18	11	28	12	38	53	0.097598254617	0.648884956118	0.000122074114593	-0.9892578125	0.1259765625	0.15234375	5.0	-0.6875	-1.25
18	11	28	12	38	53	0.0969859603775	0.648994157768	-0.000122071693364	-0.986328125	0.11865234375	0.1484375	3.625	-0.4375	-1.375
18	11	28	12	38	53	0.0963119353927	0.648976431579	-0.000427239257129	-0.990234375	0.11669921875	0.1572265625	3.625	-0.6875	-1.375
18	11	28	12	38	53	0.0956422997019	0.648988240415	-0.000732423482082	-0.97412109375	0.1181640625	0.15625	4.0	-0.5	-1.25
18	11	28	12	38	53	0.094847843817	0.649042452478	-0.00115965832209	-0.9765625	0.109375	0.1591796875	4.8125	-0.0625	-0.8125
18	11	28	12	38	53	0.0940576320611	0.649125838397	-0.00177006575586	-0.9765625	0.107421875	0.15625	6.0625	0.0	-0.1875
18	11	28	12	38	53	0.093078846468	0.649354654147	-0.00286865953049	-0.97314453125	0.11572265625	0.14990234375	8.25	0.25	0.375
18	11	28	12	38	53	0.0921609633468	0.649643240969	-0.00408926128757	-0.98095703125	0.12890625	0.140625	8.75	0.0	0.5
18	11	28	12	38	53	0.0913065823334	0.649826993385	-0.00506580637278	-0.9931640625	0.1318359375	0.140625	7.25	-0.75	-0.25
18	11	28	12	38	53	0.0905767701311	0.649967671918	-0.00592044926059	-0.99169921875	0.1298828125	0.14404296875	6.5	-0.375	-0.3125
18	11	28	12	38	53	0.0897216512772	0.65008524337	-0.00665282992463	-1.001953125	0.11767578125	0.15869140625	6.3125	-0.0625	-0.25
18	11	28	12	38	53	0.0886851283441	0.650276226688	-0.00769052042075	-0.9951171875	0.11376953125	0.15771484375	8.75	0.5	0.625
18	11	28	12	38	53	0.087644622519	0.650498876607	-0.00909404509425	-0.99365234375	0.125	0.15966796875	10.0	0.9375	0.875
18	11	28	12	38	53	0.0867931864144	0.650704754124	-0.0103761193322	-0.98779296875	0.126953125	0.158203125	8.75	0.8125	1.125
18	11	28	12	38	53	0.086304261844	0.650760989944	-0.0112915759838	-0.98193359375	0.13330078125	0.15966796875	5.875	0.25	0.875
18	11	28	12	38	53	0.08593924931	0.650648009691	-0.0117189885423	-0.9833984375	0.12744140625	0.16845703125	3.4375	-0.3125	0.3125
18	11	28	12	38	53	0.0855737166595	0.65047011301	-0.0120853037793	-0.98291015625	0.125	0.16796875	2.625	-0.625	-0.0625
18	11	28	12	38	53	0.0851441103709	0.650330104661	-0.0125122169362	-0.98193359375	0.12841796875	0.16259765625	3.6875	-0.875	-0.4375
18	11	28	12	38	53	0.0844725089777	0.650267420989	-0.0130615006656	-0.98046875	0.1259765625	0.15771484375	4.8125	-0.8125	-0.625
18	11	28	12	38	53	0.083800846369	0.650204236248	-0.0136107711146	-0.98193359375	0.12451171875	0.15625	4.9375	-0.8125	-0.5
18	11	28	12	38	53	0.0832547894791	0.65022967179	-0.014099601444	-0.98046875	0.126953125	0.1494140625	4.125	-0.75	-0.4375
18	11	28	12	38	53	0.0830682211705	0.650141581123	-0.0144041882412	-0.9697265625	0.1279296875	0.1533203125	2.0	-0.9375	0.0625
18	11	28	12	38	53	0.0827037735992	0.650094385686	-0.014587602871	-0.98583984375	0.12353515625	0.14892578125	2.0	-0.875	-0.375
18	11	28	12	38	53	0.0823972525162	0.650144839854	-0.0147094354492	-0.984375	0.125	0.14453125	1.6875	-0.8125	-0.4375
18	11	28	12	38	53	0.082154013054	0.650090930935	-0.0148927037037	-0.98486328125	0.12158203125	0.14990234375	1.75	-0.6875	-0.0625
18	11	28	12	38	53	0.0817898027333	0.650106857397	-0.0152592915547	-0.974609375	0.11962890625	0.14794921875	2.75	-0.6875	0.375
18	11	28	12	38	53	0.0814833973217	0.650219199751	-0.0156863169376	-0.96826171875	0.123046875	0.1455078125	3.1875	0.0625	0.6875
18	11	28	12	38	53	0.0811167020381	0.650398477741	-0.0162355475863	-0.97705078125	0.12255859375	0.14599609375	3.625	0.5	0.875
18	11	28	12	38	53	0.0809351768719	0.650533269307	-0.0167241617367	-0.9794921875	0.1298828125	0.1494140625	3.0	0.5	0.8125
18	11	28	12	38	53	0.0807470298055	0.650675801026	-0.0169672519168	-0.98583984375	0.12890625	0.14794921875	1.6875	0.5	0.625
18	11	28	12	38	53	0.0807470298055	0.650675801026	-0.0169672519168	-0.9853515625	0.12646484375	0.15283203125	0.5625	0.125	0.1875
18	11	28	12	38	53	0.0807470298055	0.650675801026	-0.0169672519168	-0.9873046875	0.1259765625	0.15380859375	0.3125	-0.25	0.0
18	11	28	12	38	53	0.0807503200218	0.650641278482	-0.0169069075178	-0.990234375	0.11962890625	0.15966796875	0.3125	-0.125	0.1875
18	11	28	12	38	53	0.0805677228168	0.650584361745	-0.0170290868681	-0.9892578125	0.1171875	0.16064453125	1.125	-0.25	0.625
18	11	28	12	38	53	0.0803816733138	0.650560558733	-0.0173336334253	-0.986328125	0.1220703125	0.15576171875	2.125	-0.3125	1.0625
18	11	28	12	38	53	0.0802594522469	0.650498282925	-0.0176387693531	-0.99169921875	0.12353515625	0.15576171875	2.0	-0.5	1.0
18	11	28	12	38	53	0.080140915788	0.650465909789	-0.0179447290493	-0.99169921875	0.125	0.14697265625	1.5	-1.0	1.0625
18	11	28	12	38	53	0.0800785581558	0.650272072098	-0.0180665039742	-0.9892578125	0.1171875	0.15673828125	1.0	-1.4375	0.9375
18	11	28	12	38	53	0.079955887291	0.650145123224	-0.0183105085399	-0.98974609375	0.12451171875	0.1484375	1.3125	-1.625	1.0
18	11	28	12	38	53	0.0797729866631	0.65008575436	-0.0186157313942	-0.99267578125	0.12255859375	0.14404296875	1.875	-1.4375	0.875
18	11	28	12	38	54	0.0796514185019	0.650089853229	-0.0187989554778	-0.98974609375	0.1220703125	0.142578125	1.5	-1.125	0.8125
18	11	28	12	38	54	0.0796512351242	0.650088356558	-0.0189209830563	-0.9873046875	0.12646484375	0.14501953125	0.375	-1.0	1.0625
18	11	28	12	38	54	0.0796512351242	0.650088356558	-0.0189209830563	-0.9892578125	0.12158203125	0.14111328125	-0.3125	-0.8125	0.875
18	11	28	12	38	54	0.0798935823044	0.650012720811	-0.0187374558957	-0.97900390625	0.12060546875	0.1474609375	-1.625	-0.875	1.125
18	11	28	12	38	54	0.0798366186194	0.650045862612	-0.0187384112509	-0.9853515625	0.1181640625	0.14794921875	-0.5	-0.8125	0.8125
18	11	28	12	38	54	0.0798367097831	0.650046604886	-0.018677395408	-0.9931640625	0.12158203125	0.15478515625	0.5	-0.5625	0.375
18	11	28	12	38	54	0.0798330285332	0.650016631406	-0.0186765341981	-0.9931640625	0.123046875	0.15869140625	-0.25	-0.4375	0.0625
18	11	28	12	38	54	0.0797723826561	0.650019797465	-0.0186766251666	-0.9892578125	0.1201171875	0.158203125	-0.1875	-0.875	-0.0625
18	11	28	12	38	54	0.079772473442	0.650020537228	-0.0186156116295	-0.97998046875	0.1220703125	0.1591796875	-0.5625	-1.0	-0.0625
18	11	28	12	38	54	0.0796504224024	0.649898618958	-0.0184325115445	-0.98486328125	0.11279296875	0.15185546875	-0.3125	-1.0625	0.0625
18	11	28	12	38	54	0.079527672727	0.649709958694	-0.0183713196399	-0.98583984375	0.11767578125	0.162109375	0.3125	-1.3125	0.1875
18	11	28	12	38	54	0.0794083145686	0.649549026625	-0.0184940194576	-0.98583984375	0.1220703125	0.15380859375	0.875	-1.375	0.25
18	11	28	12	38	54	0.0792826566546	0.649458621602	-0.0186152504077	-0.98876953125	0.12939453125	0.146484375	0.875	-1.6875	0.1875
18	11	28	12	38	54	0.0791628545186	0.649233063619	-0.0186768184138	-0.9873046875	0.1279296875	0.15087890625	0.5	-2.0	-0.25
18	11	28	12	38	54	0.0789192938989	0.649115770004	-0.0186159200612	-0.9853515625	0.11767578125	0.1494140625	0.625	-1.875	-0.125
18	11	28	12	38	54	0.0786147950731	0.648999313674	-0.0187381537946	-0.98779296875	0.115234375	0.15087890625	1.5625	-1.5625	0.125
18	11	28	12	38	54	0.0783105230679	0.648945815477	-0.0190435566619	-0.98486328125	0.1162109375	0.14794921875	2.4375	-1.3125	0.8125
18	11	28	12	38	54	0.078124373111	0.648920574154	-0.0194090239448	-0.98486328125	0.12060546875	0.14599609375	2.375	-1.0625	1.125
18	11	28	12	38	54	0.0780663363695	0.648884458127	-0.0197149543764	-0.98388671875	0.1220703125	0.14990234375	1.5	-1.125	1.3125
18	11	28	12	38	54	0.0780013668308	0.64879071159	-0.0198360283412	-0.9853515625	0.11865234375	0.15380859375	0.75	-1.25	1.1875
18	11	28	12	38	54	0.0779400008972	0.648726914281	-0.0199580111929	-0.982421875	0.11767578125	0.1494140625	0.9375	-1.125	0.9375
18	11	28	12	38	54	0.0776965444815	0.648671543401	-0.0201412880431	-0.98193359375	0.1171875	0.15185546875	1.5	-1.0625	0.5
18	11	28	12	38	54	0.0774531719674	0.648616909769	-0.020263556417	-0.982421875	0.11962890625	0.1533203125	1.5625	-0.875	0.25
18	11	28	12	38	54	0.0772098842548	0.64856302774	-0.0203248153809	-0.98046875	0.11376953125	0.15478515625	1.5	-0.8125	0.25
18	11	28	12	38	54	0.0768415884204	0.648484413794	-0.0204463321055	-0.98095703125	0.11181640625	0.15771484375	1.6875	-0.75	0.0625
18	11	28	12	38	54	0.0768416841694	0.648485221843	-0.0203853236796	-0.97900390625	0.115234375	0.15576171875	0.5625	-0.6875	0.125
18	11	28	12	38	54	0.0765372903042	0.648369724802	-0.0203855302724	-0.9853515625	0.11279296875	0.1630859375	1.3125	-0.8125	-0.1875
18	11	28	12	38	54	0.0759872705243	0.648363674522	-0.0206294758532	-0.99267578125	0.12109375	0.1572265625	3.0	-0.75	-0.9375
18	11	28	12	38	54	0.0753800311134	0.6483903405	-0.0208744701545	-0.99658203125	0.12353515625	0.1552734375	3.25	-0.5625	-1.3125
18	11	28	12	38	54	0.0747662943046	0.648422131177	-0.0211176635342	-0.9853515625	0.11962890625	0.15478515625	3.4375	-0.5625	-1.125
18	11	28	12	38	54	0.0742796541326	0.648375321159	-0.0214843371033	-0.9775390625	0.1318359375	0.162109375	3.4375	-0.4375	-0.9375
18	11	28	12	38	54	0.0738513354325	0.64842693193	-0.0217891956607	-0.9814453125	0.1240234375	0.15380859375	2.8125	-0.125	-0.3125
18	11	28	12	38	54	0.073668734605	0.648431347509	-0.0220945169238	-0.97705078125	0.12841796875	0.1552734375	2.125	-0.125	0.1875
18	11	28	12	38	54	0.0734258036556	0.648503045586	-0.0224610937201	-0.9833984375	0.1240234375	0.154296875	2.4375	-0.0625	0.625
18	11	28	12	38	54	0.0731826455349	0.648572803548	-0.0229496870068	-0.982421875	0.1298828125	0.15185546875	2.6875	-0.3125	0.8125
18	11	28	12	38	54	0.0729965208017	0.648546011738	-0.0233149422627	-0.984375	0.13037109375	0.15380859375	2.5	-0.75	0.5625
18	11	28	12	38	54	0.0727529483154	0.648551030872	-0.0237423631667	-0.98681640625	0.12548828125	0.1533203125	2.5625	-0.75	0.6875
18	11	28	12	38	54	0.0723903094535	0.648460917061	-0.0241707947248	-0.986328125	0.1240234375	0.1591796875	3.25	-0.8125	0.8125
18	11	28	12	38	54	0.0720187337772	0.648473768121	-0.0247793270454	-0.98974609375	0.12255859375	0.1572265625	4.1875	-0.5	1.125
18	11	28	12	38	54	0.0717166600507	0.648440677769	-0.0255128203414	-0.986328125	0.13037109375	0.162109375	4.125	-0.3125	1.25
18	11	28	12	38	54	0.0715340678746	0.648506374716	-0.0260012908827	-0.9873046875	0.1298828125	0.1484375	2.8125	-0.375	1.25
18	11	28	12	38	54	0.0714696984524	0.648476128145	-0.0261831773152	-0.98828125	0.1259765625	0.15625	1.0	-0.6875	0.9375
18	11	28	12	38	54	0.0714696984524	0.648476128145	-0.0261831773152	-0.98876953125	0.1240234375	0.158203125	-0.0625	-0.9375	0.625
18	11	28	12	38	54	0.0713507171108	0.648382093985	-0.0261232736727	-0.98828125	0.1201171875	0.15625	0.25	-1.0625	0.375
18	11	28	12	38	54	0.0711038218465	0.648295961934	-0.0262443290935	-0.9892578125	0.11572265625	0.1591796875	1.4375	-0.75	0.4375
18	11	28	12	38	54	0.0707386457662	0.648244311202	-0.0264278115762	-0.98779296875	0.11279296875	0.15966796875	2.3125	-0.5	0.375
18	11	28	12	38	54	0.0704317486172	0.648289457376	-0.0266712947536	-0.986328125	0.119140625	0.15234375	2.4375	-0.5625	0.375
18	11	28	12	38	54	0.0701302809773	0.648201552636	-0.0267337363517	-0.9853515625	0.1103515625	0.15771484375	1.375	-0.8125	0.375
18	11	28	12	38	54	0.0698228955801	0.648120042103	-0.0267328918392	-0.97509765625	0.11083984375	0.15673828125	1.3125	-0.875	0.25
18	11	28	12	38	54	0.0693973806105	0.648136134303	-0.0269166621365	-0.9833984375	0.1142578125	0.15234375	2.5	-0.875	-0.3125
18	11	28	12	38	55	0.0689078948648	0.648124832214	-0.0270992961204	-0.9892578125	0.1240234375	0.1591796875	2.5	-0.4375	-0.875
18	11	28	12	38	55	0.0684216864056	0.648144413864	-0.0272221874549	-0.9912109375	0.1181640625	0.1494140625	2.4375	-0.625	-1.0625
18	11	28	12	38	55	0.067932401714	0.648134927045	-0.0272828244081	-0.982421875	0.11865234375	0.15380859375	2.0625	-0.875	-1.0625
18	11	28	12	38	55	0.0675677530817	0.64814992771	-0.0273444926654	-0.98095703125	0.1201171875	0.14990234375	1.8125	-0.625	-0.8125
18	11	28	12	38	55	0.0671999690119	0.648134850988	-0.0274048919949	-0.9794921875	0.1181640625	0.1513671875	1.5625	-0.8125	-0.625
18	11	28	12	38	55	0.0668928413537	0.648115951036	-0.0275261600826	-0.98291015625	0.1201171875	0.1533203125	1.75	-0.625	-0.25
18	11	28	12	38	55	0.0665911011685	0.648088278834	-0.0278327608917	-0.9853515625	0.12158203125	0.1552734375	2.4375	-0.75	-0.0625
18	11	28	12	38	55	0.0662227472238	0.648067400942	-0.0281980730114	-0.984375	0.126953125	0.15625	2.8125	-0.875	-0.125
18	11	28	12	38	55	0.0658570038827	0.648010945526	-0.0285644836118	-0.986328125	0.12744140625	0.15234375	2.9375	-1.0625	-0.125
18	11	28	12	38	55	0.065430137579	0.6478926403	-0.0288698274952	-0.98681640625	0.1201171875	0.16064453125	2.875	-1.1875	0.0
18	11	28	12	38	55	0.0650030144688	0.647771823998	-0.0292971332817	-0.98779296875	0.119140625	0.15966796875	3.4375	-1.125	0.3125
18	11	28	12	38	55	0.0645731942959	0.647685007437	-0.0297842332858	-0.97900390625	0.1201171875	0.162109375	3.8125	-0.875	0.625
18	11	28	12	38	55	0.0642101055212	0.647655351412	-0.0302739661013	-0.9814453125	0.12255859375	0.1552734375	3.4375	-0.75	0.6875
18	11	28	12	38	55	0.0639661282781	0.647657048815	-0.0307013001182	-0.9833984375	0.12744140625	0.15478515625	2.625	-0.8125	0.5625
18	11	28	12	38	55	0.0636583277536	0.647569374368	-0.0309441727431	-0.984375	0.12451171875	0.15966796875	2.125	-0.8125	0.0
18	11	28	12	38	55	0.06341383368	0.647443645503	-0.0311881318676	-0.98486328125	0.12841796875	0.1611328125	2.0625	-1.0	-0.1875
18	11	28	12	38	55	0.0630483024667	0.647389491059	-0.0313715657966	-0.98486328125	0.1181640625	0.1591796875	2.0	-0.9375	-0.25
18	11	28	12	38	55	0.0627435471672	0.647332744412	-0.0315548773205	-0.9853515625	0.123046875	0.15869140625	2.0	-0.75	-0.3125
18	11	28	12	38	55	0.0624387794598	0.647275910235	-0.0317381870177	-0.982421875	0.12353515625	0.16015625	1.9375	-0.6875	-0.125
18	11	28	12	38	55	0.0621923420002	0.647251998933	-0.0319201127244	-0.9853515625	0.12353515625	0.15771484375	1.875	-0.5625	-0.125
18	11	28	12	38	55	0.0621952233151	0.647281985532	-0.0319215915543	-0.982421875	0.1279296875	0.15576171875	0.8125	-0.5625	0.0625
18	11	28	12	38	55	0.0620121565217	0.647221365902	-0.032043683242	-0.982421875	0.1220703125	0.1591796875	1.125	-0.625	0.0
18	11	28	12	38	55	0.061704921381	0.647199788649	-0.0322257156174	-0.99267578125	0.1279296875	0.15966796875	1.8125	-0.3125	-0.4375
18	11	28	12	38	55	0.0617079016885	0.647231047978	-0.0321662355983	-0.9921875	0.1220703125	0.15234375	0.9375	-0.1875	-0.6875
18	11	28	12	38	55	0.0617079016885	0.647231047978	-0.0321662355983	-0.98828125	0.12548828125	0.15771484375	0.5625	-0.1875	-0.875
18	11	28	12	38	55	0.0616446619237	0.647268950199	-0.032165085974	-0.98095703125	0.12451171875	0.15771484375	-0.1875	0.0	-0.875
18	11	28	12	38	55	0.0616470972637	0.647233484539	-0.0321663566911	-0.97998046875	0.1240234375	0.16162109375	-0.875	0.25	-0.9375
18	11	28	12	38	55	0.0616455034492	0.647277786217	-0.0317382790035	-0.97900390625	0.11572265625	0.15869140625	-1.75	0.3125	-0.8125
18	11	28	12	38	55	0.0617071374335	0.647284067738	-0.0313113367986	-0.98095703125	0.11572265625	0.1640625	-1.875	0.5	-0.625
18	11	28	12	38	55	0.0618271214909	0.647323248304	-0.0308830439036	-0.9814453125	0.11865234375	0.1611328125	-2.125	0.3125	-0.4375
18	11	28	12	38	55	0.0618887324552	0.647329286411	-0.0304560922043	-0.9931640625	0.1142578125	0.15966796875	-2.1875	0.125	-0.625
18	11	28	12	38	55	0.0619503330354	0.647335204112	-0.0300291269492	-0.99267578125	0.11474609375	0.15869140625	-1.9375	-0.0625	-0.4375
18	11	28	12	38	55	0.0618897861957	0.647279272787	-0.0296631519636	-0.9912109375	0.10791015625	0.166015625	-1.3125	-0.25	-0.4375
18	11	28	12	38	55	0.0618290961728	0.647282887376	-0.0296022819781	-0.9833984375	0.1044921875	0.158203125	0.0	-0.125	0.0
18	11	28	12	38	55	0.0616469954075	0.647354488407	-0.0296638017505	-0.9814453125	0.11083984375	0.15380859375	1.0	0.0625	0.25
18	11	28	12	38	55	0.0616446711092	0.647391115302	-0.029601648998	-0.97802734375	0.109375	0.1552734375	0.875	0.1875	0.375
18	11	28	12	38	55	0.0615838683728	0.647393549881	-0.0296017603179	-0.98486328125	0.115234375	0.154296875	0.0625	0.0625	0.1875
18	11	28	12	38	55	0.0615839795238	0.647394718344	-0.0295407790778	-0.9833984375	0.11669921875	0.150390625	-0.5625	0.0	0.125
18	11	28	12	38	55	0.0615868328359	0.647424713469	-0.0295421477627	-0.98779296875	0.11572265625	0.1552734375	-0.6875	-0.125	-0.0625
18	11	28	12	38	55	0.061523706001	0.647463763153	-0.0294801091255	-0.986328125	0.1064453125	0.1513671875	0.0625	0.0625	-0.25
18	11	28	12	38	55	0.0612788944157	0.647639789487	-0.0294797868554	-0.98828125	0.11083984375	0.15087890625	1.0	0.5	-0.125
18	11	28	12	38	55	0.0610362747319	0.647777983729	-0.0296025932449	-0.98681640625	0.11181640625	0.15625	1.5	0.8125	0.0
18	11	28	12	38	55	0.0608522622856	0.647951470836	-0.0296021536695	-0.99072265625	0.1181640625	0.154296875	1.0	0.875	-0.1875
18	11	28	12	38	55	0.0608522622856	0.647951470836	-0.0296021536695	-0.978515625	0.11767578125	0.16064453125	-0.6875	0.8125	0.0
18	11	28	12	38	55	0.0607914525923	0.647953876225	-0.0296022635615	-0.98486328125	0.115234375	0.16162109375	-0.875	0.8125	-0.25
18	11	28	12	38	55	0.0607900050538	0.648060515724	-0.0292963879777	-0.98681640625	0.11669921875	0.15771484375	-1.0625	0.8125	-0.6875
18	11	28	12	38	55	0.0607910630693	0.648132830053	-0.0289306866414	-0.9931640625	0.11474609375	0.15771484375	-1.4375	0.4375	-0.8125
18	11	28	12	38	55	0.0607914906392	0.648137388652	-0.0286867475908	-0.984375	0.115234375	0.15966796875	-1.125	-0.0625	-0.5625
18	11	28	12	38	55	0.0607914906392	0.648137388652	-0.0286867475908	-0.97705078125	0.1142578125	0.1591796875	-0.75	-0.0625	-0.4375
18	11	28	12	38	55	0.0607307864534	0.648140925979	-0.0286258681876	-0.9794921875	0.11181640625	0.158203125	-0.3125	-0.25	-0.3125
18	11	28	12	38	56	0.0607307864534	0.648140925979	-0.0286258681876	-0.984375	0.10791015625	0.15673828125	-0.0625	-0.5625	0.125
18	11	28	12	38	56	0.0606700811548	0.648144458534	-0.0285649879079	-0.98974609375	0.10791015625	0.1513671875	0.8125	-0.4375	-0.0625
18	11	28	12	38	56	0.0604247399714	0.648253700238	-0.0286254576228	-0.98828125	0.1064453125	0.1435546875	1.4375	-0.625	0.125
18	11	28	12	38	56	0.0601813803638	0.648262110389	-0.0286868648793	-0.99072265625	0.11376953125	0.150390625	1.0625	-0.6875	-0.125
18	11	28	12	38	56	0.0601813803638	0.648262110389	-0.0286868648793	-0.9921875	0.10791015625	0.146484375	0.125	-0.6875	0.0625
18	11	28	12	38	56	0.0601182915554	0.648301008022	-0.0286248515122	-0.98681640625	0.10400390625	0.15234375	0.5	-0.5	0.4375
18	11	28	12	38	56	0.0599361468777	0.648372391326	-0.0286863432103	-0.98828125	0.1044921875	0.15283203125	1.1875	-0.0625	0.625
18	11	28	12	38	56	0.0597533824643	0.648376079589	-0.0288696117524	-0.9912109375	0.10595703125	0.1611328125	1.625	0.1875	0.875
18	11	28	12	38	56	0.0596317249716	0.648441602966	-0.0291139537476	-0.98779296875	0.115234375	0.15283203125	1.3125	0.125	0.8125
18	11	28	12	38	56	0.0596318308255	0.648442754033	-0.0290529697778	-0.98974609375	0.1123046875	0.15625	0.5625	-0.25	0.75
18	11	28	12	38	56	0.0596318308255	0.648442754033	-0.0290529697778	-0.99267578125	0.10986328125	0.15771484375	0.5	-0.625	0.6875
18	11	28	12	38	56	0.0593879413225	0.648384481674	-0.0291751654184	-0.98681640625	0.10498046875	0.1572265625	1.3125	-0.6875	0.6875
18	11	28	12	38	56	0.0591438329321	0.648323832204	-0.0294193265978	-0.98388671875	0.1083984375	0.15869140625	2.1875	-0.5625	0.6875
18	11	28	12	38	56	0.0588387855909	0.648264254939	-0.0297245732187	-0.98486328125	0.10888671875	0.16015625	2.6875	-0.5625	0.75
18	11	28	12	38	56	0.0585947317333	0.648265255978	-0.0301518723711	-0.9912109375	0.11865234375	0.15576171875	2.5	-0.5	0.8125
18	11	28	12	38	56	0.0585947317333	0.648265255978	-0.0301518723711	-0.982421875	0.11669921875	0.15673828125	0.75	-0.75	0.9375
18	11	28	12	38	56	0.0585948394595	0.648266447812	-0.0300908915141	-0.97802734375	0.11328125	0.1552734375	0.0625	-1.0	0.9375
18	11	28	12	38	56	0.0585925210203	0.648301831539	-0.030089700899	-0.9921875	0.111328125	0.1533203125	0.75	-0.75	0.75
18	11	28	12	38	56	0.0586533450356	0.648299511933	-0.0300895932389	-0.9921875	0.1083984375	0.14794921875	-0.25	-0.8125	1.125
18	11	28	12	38	56	0.0586552707921	0.648198726131	-0.030090581166	-0.984375	0.1005859375	0.15576171875	0.1875	-1.0	1.5
18	11	28	12	38	56	0.0587152671434	0.648126218082	-0.0303341868714	-0.9736328125	0.1123046875	0.15869140625	0.6875	-0.375	1.6875
18	11	28	12	38	56	0.0586542250239	0.648126134785	-0.0304562521196	-0.98046875	0.1015625	0.15771484375	1.125	-0.1875	1.5
18	11	28	12	38	56	0.0585931818287	0.648126039416	-0.0305783167669	-0.98388671875	0.1044921875	0.14794921875	0.8125	-0.5	1.75
18	11	28	12	38	56	0.0585932478562	0.64818780441	-0.0307614551245	-0.98388671875	0.10302734375	0.150390625	0.75	-0.4375	1.6875
18	11	28	12	38	56	0.0585324860002	0.648251860071	-0.0309447032347	-0.98095703125	0.109375	0.14794921875	1.25	-0.25	1.3125
18	11	28	12	38	56	0.0584694072624	0.648351266543	-0.0311267199414	-0.98046875	0.11328125	0.1435546875	1.0625	-0.1875	0.875
18	11	28	12	38	56	0.0584113975389	0.648384823464	-0.0310672950337	-0.9833984375	0.1083984375	0.14794921875	0.625	-0.0625	0.8125
18	11	28	12	38	56	0.0582263858709	0.648424657749	-0.0311883471489	-0.9833984375	0.10400390625	0.15576171875	1.375	0.125	0.8125
18	11	28	12	38	56	0.0578612468627	0.648497624384	-0.0314940963936	-0.98486328125	0.103515625	0.15283203125	2.75	0.25	1.0
18	11	28	12	38	56	0.0576177977333	0.648627475119	-0.0319827606062	-0.98779296875	0.11474609375	0.15283203125	3.1875	0.375	1.0
18	11	28	12	38	56	0.0573718960737	0.648729663157	-0.0323479839564	-0.98291015625	0.119140625	0.15576171875	2.4375	0.375	0.75
18	11	28	12	38	56	0.0571894361669	0.64879797914	-0.0325314508826	-0.982421875	0.1162109375	0.15380859375	1.75	0.1875	0.4375
18	11	28	12	38	56	0.0568854062466	0.648872053442	-0.0326541763325	-0.982421875	0.10888671875	0.15234375	1.75	0.125	0.25
18	11	28	12	38	56	0.0565806401668	0.648876791384	-0.0329595962137	-0.9853515625	0.11669921875	0.158203125	2.4375	-0.0625	0.0
18	11	28	12	38	56	0.0561520609357	0.6489225129	-0.0332029577707	-0.98974609375	0.11474609375	0.15625	2.8125	-0.0625	-0.1875
18	11	28	12	38	56	0.0558472726166	0.648926997224	-0.03350836357	-0.98876953125	0.11865234375	0.15380859375	2.4375	-0.3125	0.0
18	11	28	12	38	56	0.055540128746	0.6489040097	-0.0336902758987	-0.99267578125	0.12109375	0.15673828125	2.0	-0.3125	-0.1875
18	11	28	12	38	56	0.055540128746	0.6489040097	-0.0336902758987	-0.98681640625	0.12060546875	0.15576171875	0.8125	-0.375	0.1875
18	11	28	12	38	56	0.0553595558374	0.648872588872	-0.0338138852634	-0.99365234375	0.11669921875	0.15869140625	1.3125	-0.375	0.125
18	11	28	12	38	56	0.055115445627	0.648811945753	-0.0339970135263	-0.99755859375	0.123046875	0.162109375	1.625	-0.1875	-0.25
18	11	28	12	38	56	0.0549302351345	0.648787110533	-0.0340567457834	-0.99658203125	0.11572265625	0.1572265625	1.0	-0.4375	-0.1875
18	11	28	12	38	56	0.054746723929	0.64866018051	-0.034178556745	-0.9892578125	0.1162109375	0.16064453125	1.125	-0.8125	0.375
18	11	28	12	38	56	0.0547488913657	0.648624825578	-0.0341799098827	-0.98046875	0.1181640625	0.1630859375	0.75	-0.375	0.8125
18	11	28	12	38	56	0.0546876952732	0.648622921505	-0.0343629156683	-0.98779296875	0.11279296875	0.15576171875	1.0625	-0.5	1.0
18	11	28	12	38	56	0.054686868356	0.648552079409	-0.0346065338815	-0.986328125	0.11865234375	0.15673828125	1.0625	-0.5625	1.3125
18	11	28	12	38	56	0.0546885693934	0.6485112163	-0.0348517557183	-0.9921875	0.11572265625	0.1513671875	1.25	-0.6875	1.375
18	11	28	12	38	56	0.0545662776567	0.64850861309	-0.0351567963426	-0.9873046875	0.11572265625	0.1513671875	1.75	-0.6875	1.25
18	11	28	12	38	56	0.0543809731968	0.648543458124	-0.0354605448118	-0.98828125	0.11474609375	0.14697265625	2.0625	-0.625	1.0625
18	11	28	12	38	56	0.0542002123657	0.648571460133	-0.0358282935345	-0.98193359375	0.10986328125	0.150390625	2.375	-0.375	1.25
18	11	28	12	38	56	0.0539536934003	0.64860395901	-0.0363149859425	-0.98046875	0.11474609375	0.15283203125	3.0	-0.0625	1.375
18	11	28	12	38	57	0.0537710032522	0.648730980213	-0.0367425016547	-0.98193359375	0.11376953125	0.1435546875	2.8125	-0.0625	1.6875
18	11	28	12	38	57	0.0537097778227	0.648789702563	-0.0371085737684	-0.978515625	0.11669921875	0.1484375	1.6875	-0.125	1.8125
18	11	28	12	38	57	0.053770750068	0.648849993158	-0.0372305987985	-0.97900390625	0.115234375	0.14794921875	0.5	-0.125	1.25
18	11	28	12	38	57	0.0537098924665	0.648852121377	-0.0372307209143	-0.9833984375	0.1123046875	0.14306640625	0.0625	-0.25	0.5625
18	11	28	12	38	57	0.0535273160738	0.648858491654	-0.0372310864368	-0.984375	0.1103515625	0.15185546875	1.0625	-0.1875	0.1875
18	11	28	12	38	57	0.0530989285224	0.648966559746	-0.0375354494727	-0.98779296875	0.1171875	0.15087890625	2.75	-0.0625	-0.0625
18	11	28	12	38	57	0.0526744733653	0.649000782495	-0.0379646841636	-0.9912109375	0.125	0.1572265625	3.375	0.125	-0.125
18	11	28	12	38	57	0.0524281908417	0.649035368348	-0.038329340918	-0.98681640625	0.12451171875	0.15380859375	2.4375	-0.0625	0.3125
18	11	28	12	38	57	0.0523081613011	0.648999625571	-0.0385139437351	-0.9892578125	0.12255859375	0.15625	1.25	-0.25	0.4375
18	11	28	12	38	57	0.0523082841675	0.649001150004	-0.0384529976961	-0.98046875	0.12109375	0.1513671875	-0.125	-0.5	0.875
18	11	28	12	38	57	0.0523082841675	0.649001150004	-0.0384529976961	-0.98583984375	0.11669921875	0.15771484375	0.75	-0.625	0.8125
18	11	28	12	38	57	0.0521832905747	0.648903795779	-0.0386949780402	-0.9873046875	0.12109375	0.15966796875	1.5625	-0.6875	0.8125
18	11	28	12	38	57	0.0520626529454	0.648799532016	-0.0390012136367	-0.984375	0.123046875	0.1533203125	1.5	-1.0625	0.9375
18	11	28	12	38	57	0.0519420021552	0.648695180852	-0.0393074610904	-0.98193359375	0.1181640625	0.14599609375	1.875	-1.4375	1.125
18	11	28	12	38	57	0.0519406812292	0.648556614268	-0.0396116358611	-0.98583984375	0.12109375	0.1533203125	1.25	-1.25	1.3125
18	11	28	12	38	57	0.0519420111533	0.648451147464	-0.0397957594265	-0.9853515625	0.119140625	0.1552734375	0.75	-1.1875	1.375
18	11	28	12	38	57	0.0519388783614	0.648351004504	-0.0399764574932	-0.98583984375	0.1123046875	0.150390625	0.875	-1.125	1.5625
18	11	28	12	38	57	0.051818335335	0.648247985387	-0.0402217703013	-0.98681640625	0.11279296875	0.15625	1.5	-0.9375	1.5625
18	11	28	12	38	57	0.0516959558899	0.648244093868	-0.0405266997767	-0.98974609375	0.11865234375	0.14990234375	1.8125	-0.875	1.25
18	11	28	12	38	57	0.051575521781	0.648142563068	-0.0407110923408	-0.98779296875	0.11865234375	0.15478515625	1.3125	-0.9375	0.8125
18	11	28	12	38	57	0.0515147756428	0.648146211553	-0.0406502850451	-0.98876953125	0.1171875	0.154296875	0.8125	-0.9375	0.6875
18	11	28	12	38	57	0.0513920758831	0.648016234739	-0.0407718606768	-0.98388671875	0.11328125	0.16015625	1.0625	-0.875	0.625
18	11	28	12	38	57	0.0511478444971	0.647954077782	-0.0409548969661	-0.97900390625	0.115234375	0.15625	1.8125	-0.875	0.8125
18	11	28	12	38	57	0.0509634097223	0.647754092674	-0.0413200339904	-0.98193359375	0.12060546875	0.16259765625	2.3125	-1.0625	0.9375
18	11	28	12	38	57	0.0507183135717	0.647619765715	-0.0417464819291	-0.97998046875	0.119140625	0.15869140625	2.75	-1.3125	1.0
18	11	28	12	38	57	0.0504140687668	0.647448476365	-0.0422965492196	-0.97607421875	0.12451171875	0.15234375	3.5625	-1.6875	0.875
18	11	28	12	38	57	0.0499252500464	0.647380351151	-0.0429674523626	-0.97998046875	0.125	0.14599609375	4.5625	-1.8125	0.8125
18	11	28	12	38	57	0.0493774746084	0.647278267271	-0.0436401660631	-0.986328125	0.12255859375	0.15185546875	5.0	-1.8125	0.5625
18	11	28	12	38	57	0.0488885877433	0.647209219014	-0.0443110046213	-0.984375	0.12646484375	0.15283203125	4.625	-1.3125	0.5
18	11	28	12	38	57	0.0483389209567	0.647143407707	-0.0449210174547	-0.99072265625	0.12451171875	0.15869140625	4.4375	-0.875	0.5
18	11	28	12	38	57	0.048035428316	0.647104969512	-0.0453498389311	-0.99267578125	0.12158203125	0.1572265625	3.3125	-0.5	0.8125
18	11	28	12	38	57	0.0478500521664	0.647135335612	-0.0457138891232	-0.9853515625	0.12451171875	0.154296875	2.1875	-0.3125	1.1875
18	11	28	12	38	57	0.0476685847997	0.647096461007	-0.0460206311639	-0.98828125	0.123046875	0.15966796875	2.0	-0.25	0.875
18	11	28	12	38	57	0.0476072859357	0.647092878833	-0.0462034813504	-0.98486328125	0.130859375	0.1611328125	1.125	0.0625	0.5625
18	11	28	12	38	57	0.0476072859357	0.647092878833	-0.0462034813504	-0.98681640625	0.1240234375	0.16552734375	0.1875	-0.0625	0.1875
18	11	28	12	38	57	0.0476074201015	0.647094702456	-0.0461425764061	-0.974609375	0.12353515625	0.16650390625	0.1875	-0.4375	-0.125
18	11	28	12	38	57	0.0475465230163	0.647096581539	-0.0461427103984	-0.97412109375	0.1201171875	0.1640625	0.8125	-0.3125	0.0
18	11	28	12	38	57	0.0473630443784	0.646969420633	-0.0462033822094	-0.978515625	0.1162109375	0.1640625	1.4375	-0.375	0.3125
18	11	28	12	38	57	0.0471187247941	0.646905912037	-0.0463863093828	-0.9775390625	0.11474609375	0.16357421875	1.6875	-0.4375	0.5625
18	11	28	12	38	57	0.0469356256621	0.646905977103	-0.0465694179196	-0.9833984375	0.1181640625	0.15185546875	1.625	-0.625	0.8125
18	11	28	12	38	57	0.0468747252332	0.646907829097	-0.0465695512407	-0.9833984375	0.11962890625	0.14990234375	0.9375	-0.875	0.6875
18	11	28	12	38	57	0.0468136911322	0.646907838736	-0.0466305867341	-0.990234375	0.12646484375	0.142578125	0.5	-1.1875	0.625
18	11	28	12	38	57	0.0466914885586	0.646905996382	-0.0468135578097	-0.98828125	0.12255859375	0.1513671875	1.125	-0.9375	0.5625
18	11	28	12	38	57	0.0463866285466	0.64697139815	-0.0471190489973	-0.98779296875	0.1162109375	0.1484375	2.5625	-0.625	0.75
18	11	28	12	38	57	0.0459577279303	0.647070161377	-0.0476056145891	-0.98681640625	0.12060546875	0.14697265625	3.9375	-0.1875	0.875
18	11	28	12	38	57	0.0455932539057	0.64715565082	-0.0482788003205	-0.9833984375	0.12646484375	0.154296875	4.25	0.125	1.125
18	11	28	12	38	57	0.0452878085787	0.647212833112	-0.0488278259609	-0.9892578125	0.13037109375	0.154296875	3.4375	0.125	1.0625
18	11	28	12	38	57	0.0450436659251	0.647273817258	-0.0491940308071	-0.99169921875	0.12841796875	0.15087890625	2.5	-0.1875	0.8125
18	11	28	12	38	57	0.0448598126781	0.647201977739	-0.0495594121015	-0.98779296875	0.12646484375	0.1640625	2.4375	-0.625	0.8125
18	11	28	12	38	57	0.0444946748206	0.647034359085	-0.0499268093323	-0.98876953125	0.12451171875	0.16162109375	2.8125	-1.0	0.5625
18	11	28	12	38	58	0.0441277632133	0.646902022542	-0.050292222528	-0.98876953125	0.1220703125	0.1640625	3.125	-1.1875	0.5
18	11	28	12	38	58	0.0436407391424	0.646737443291	-0.0506598790045	-0.9892578125	0.11865234375	0.16357421875	3.5	-1.0625	0.5625
18	11	28	12	38	58	0.0432735384844	0.646600658256	-0.0511470031734	-0.98681640625	0.12255859375	0.16357421875	3.4375	-1.0625	0.75
18	11	28	12	38	58	0.0430910407964	0.646365611946	-0.0513918645192	-0.97607421875	0.12646484375	0.16748046875	1.875	-1.3125	0.8125
18	11	28	12	38	58	0.0428459160236	0.646167682254	-0.0516348218746	-0.98291015625	0.12158203125	0.16162109375	1.9375	-1.5	0.625
18	11	28	12	38	58	0.0425406006814	0.64610444593	-0.0518177474584	-0.98779296875	0.12841796875	0.1533203125	1.875	-1.3125	-0.1875
18	11	28	12	38	58	0.0423590690921	0.646006321716	-0.0518807042194	-0.9892578125	0.12939453125	0.15673828125	1.0	-1.125	-0.5
18	11	28	12	38	58	0.0421149034992	0.645883925839	-0.0518196421317	-0.98486328125	0.12841796875	0.16015625	0.4375	-1.0625	-0.6875
18	11	28	12	38	58	0.0421149034992	0.645883925839	-0.0518196421317	-0.982421875	0.12646484375	0.16015625	0.5625	-0.875	-0.5625
18	11	28	12	38	58	0.0421149034992	0.645883925839	-0.0518196421317	-0.98291015625	0.12548828125	0.16162109375	0.75	-0.6875	-0.5
18	11	28	12	38	58	0.0421133763659	0.645921539246	-0.0517567292149	-0.97802734375	0.12548828125	0.15625	0.8125	-0.6875	-0.375
18	11	28	12	38	58	0.0418080249117	0.645796659256	-0.0518175374452	-0.978515625	0.1201171875	0.16259765625	1.25	-0.75	-0.1875
18	11	28	12	38	58	0.0416264870585	0.64575987255	-0.0520025908708	-0.9814453125	0.13232421875	0.15771484375	1.6875	-0.8125	-0.1875
18	11	28	12	38	58	0.0413819458536	0.645692633016	-0.0522462325231	-0.984375	0.13134765625	0.15576171875	1.625	-0.9375	-0.1875
18	11	28	12	38	58	0.0411985990161	0.645627822804	-0.0523679969716	-0.98779296875	0.12744140625	0.1533203125	1.125	-1.0625	0.0625
18	11	28	12	38	58	0.0411361777631	0.645667098748	-0.052305199322	-0.98486328125	0.12109375	0.15673828125	0.875	-0.8125	0.3125
18	11	28	12	38	58	0.0410155145296	0.645567108898	-0.0523680230154	-0.9853515625	0.1181640625	0.1630859375	1.0625	-0.6875	0.625
18	11	28	12	38	58	0.0408323233069	0.645565745317	-0.0525510169914	-0.9833984375	0.11865234375	0.15966796875	1.4375	-0.4375	0.8125
18	11	28	12	38	58	0.0407117988167	0.645529211823	-0.0526750860252	-0.9736328125	0.1201171875	0.15869140625	1.0625	-0.3125	0.8125
18	11	28	12	38	58	0.0407117988167	0.645529211823	-0.0526750860252	-0.98095703125	0.126953125	0.1611328125	0.5625	-0.3125	0.5625
18	11	28	12	38	58	0.0407117988167	0.645529211823	-0.0526750860252	-0.98779296875	0.12255859375	0.162109375	0.125	-0.5	0.3125
18	11	28	12	38	58	0.0406493914993	0.645568489322	-0.0526122754841	-0.98486328125	0.11865234375	0.16064453125	0.5625	-0.5	0.0625
18	11	28	12	38	58	0.040344300954	0.645508815264	-0.0526734216691	-0.9833984375	0.11865234375	0.16015625	1.5	-0.375	-0.25
18	11	28	12	38	58	0.0400393580581	0.645512577474	-0.0527957998785	-0.986328125	0.123046875	0.1611328125	1.6875	-0.25	-0.125
18	11	28	12	38	58	0.0398562856105	0.645513134176	-0.0529179167294	-0.98388671875	0.1240234375	0.16259765625	1.3125	-0.1875	-0.0625
18	11	28	12	38	58	0.039673339288	0.64551574817	-0.0529791669262	-0.984375	0.12841796875	0.1572265625	1.0	-0.3125	-0.125
18	11	28	12	38	58	0.039673339288	0.64551574817	-0.0529791669262	-0.97509765625	0.1240234375	0.15869140625	-0.3125	-0.4375	0.0
18	11	28	12	38	58	0.039673339288	0.64551574817	-0.0529791669262	-0.9755859375	0.123046875	0.16259765625	0.0	-0.5625	-0.125
18	11	28	12	38	58	0.0394276177299	0.645489915033	-0.053038080197	-0.98876953125	0.12548828125	0.162109375	1.25	-0.3125	-0.3125
18	11	28	12	38	58	0.0391231947697	0.645563231012	-0.0530390893211	-0.98583984375	0.12060546875	0.1572265625	1.0625	-0.125	-0.4375
18	11	28	12	38	58	0.0389402430635	0.645565753734	-0.0531003314502	-0.98681640625	0.1259765625	0.15625	1.125	-0.3125	-0.25
18	11	28	12	38	58	0.0389402430635	0.645565753734	-0.0531003314502	-0.978515625	0.125	0.15966796875	0.8125	-0.375	0.0
18	11	28	12	38	58	0.0388793005324	0.645567286861	-0.053100457556	-0.978515625	0.1201171875	0.1611328125	0.625	0.0	0.0
18	11	28	12	38	58	0.0388794264679	0.645569377944	-0.0530395943494	-0.9794921875	0.11962890625	0.1591796875	0.25	0.0	0.3125
18	11	28	12	38	58	0.0388794264679	0.645569377944	-0.0530395943494	-0.97998046875	0.123046875	0.16015625	0.8125	0.25	0.5625
18	11	28	12	38	58	0.0386966170191	0.645635354618	-0.0531620716461	-0.98193359375	0.1220703125	0.162109375	1.4375	0.25	0.25
18	11	28	12	38	58	0.0384528568057	0.645702812932	-0.0532846730021	-0.98974609375	0.12158203125	0.158203125	1.375	0.125	0.1875
18	11	28	12	38	58	0.0384510713489	0.645672831428	-0.0532821988691	-0.98779296875	0.125	0.1669921875	0.5625	0.25	0.0
18	11	28	12	38	58	0.0384510713489	0.645672831428	-0.0532821988691	-0.98876953125	0.1201171875	0.169921875	-0.0625	0.0625	-0.125
18	11	28	12	38	58	0.0383917656032	0.645640853021	-0.0532235605818	-0.9853515625	0.11767578125	0.166015625	0.1875	0.1875	0.1875
18	11	28	12	38	58	0.0383917656032	0.645640853021	-0.0532235605818	-0.98388671875	0.11767578125	0.1611328125	0.5	0.4375	0.5
18	11	28	12	38	58	0.0383309436086	0.645644460973	-0.0531628214698	-0.98388671875	0.12158203125	0.16259765625	0.625	0.5	0.5
18	11	28	12	38	58	0.0383309436086	0.645644460973	-0.0531628214698	-0.98193359375	0.12353515625	0.166015625	0.3125	0.3125	0.375
18	11	28	12	38	58	0.0383309436086	0.645644460973	-0.0531628214698	-0.98828125	0.1240234375	0.16357421875	0.375	0.125	0.1875
18	11	28	12	38	58	0.0383310679169	0.645646554816	-0.053101957146	-0.9853515625	0.1201171875	0.1572265625	0.5	0.0	0.0
18	11	28	12	38	58	0.0382686125061	0.645683655028	-0.0530999886449	-0.98095703125	0.1181640625	0.15478515625	0.75	0.1875	0.125
18	11	28	12	38	58	0.0382687364613	0.645685746451	-0.0530391259727	-0.98193359375	0.11865234375	0.1552734375	0.8125	0.5625	0.25
18	11	28	12	38	58	0.0382687364613	0.645685746451	-0.0530391259727	-0.98193359375	0.12353515625	0.15771484375	0.5	0.5	0.375
18	11	28	12	38	58	0.0382687364613	0.645685746451	-0.0530391259727	-0.98828125	0.1259765625	0.14892578125	0.0625	0.5625	0.3125
18	11	28	12	38	58	0.0383897759894	0.645851525469	-0.0529766702048	-0.9794921875	0.130859375	0.1513671875	-1.0625	0.5	0.375
18	11	28	12	38	59	0.0383897759894	0.645851525469	-0.0529766702048	-0.98046875	0.12841796875	0.15625	-0.1875	0.8125	0.0625
18	11	28	12	38	59	0.0383299047069	0.646115240808	-0.0529782759325	-0.9892578125	0.1337890625	0.14990234375	0.25	1.125	-0.625
18	11	28	12	38	59	0.03839009868	0.646223155522	-0.0527329813347	-0.9951171875	0.126953125	0.15869140625	-1.1875	0.6875	-0.4375
18	11	28	12	38	59	0.0383292781653	0.646226747157	-0.0526722405361	-0.98486328125	0.11767578125	0.16259765625	-1.0	0.6875	0.1875
18	11	28	12	38	59	0.038451700875	0.646354781375	-0.0526727267542	-0.97705078125	0.12353515625	0.1630859375	-0.25	1.3125	0.75
18	11	28	12	38	59	0.0386350680971	0.646481265853	-0.0526730865211	-0.9892578125	0.1259765625	0.16064453125	-0.5	1.0625	1.0625
18	11	28	12	38	59	0.0390625606816	0.646546414532	-0.0523682454138	-0.990234375	0.126953125	0.15966796875	-2.875	0.5	0.9375
18	11	28	12	38	59	0.0394290841001	0.646551529214	-0.0519414095498	-0.990234375	0.11865234375	0.16259765625	-3.0625	0.25	0.875
18	11	28	12	38	59	0.0396125307164	0.646557069152	-0.0516366733222	-0.9912109375	0.12109375	0.15771484375	-2.0625	0.0625	0.3125
18	11	28	12	38	59	0.039795850679	0.646560500371	-0.0513928010302	-0.9921875	0.1259765625	0.158203125	-1.5625	-0.125	0.125
18	11	28	12	38	59	0.0398557163554	0.646602540688	-0.0511471520764	-0.98974609375	0.12158203125	0.15478515625	-1.3125	0.0	0.0625
18	11	28	12	38	59	0.0399173034252	0.646672522615	-0.0509647528441	-0.98876953125	0.11572265625	0.15478515625	-1.0625	0.1875	0.4375
18	11	28	12	38	59	0.0399174275208	0.646674533002	-0.0509038754624	-0.98291015625	0.119140625	0.1494140625	-0.875	0.4375	0.875
18	11	28	12	38	59	0.0400993368626	0.646838313653	-0.0508413205579	-0.98291015625	0.12451171875	0.1455078125	-1.125	0.4375	0.9375
18	11	28	12	38	59	0.040466002728	0.646967766089	-0.0505977620837	-0.98486328125	0.125	0.1455078125	-2.3125	0.3125	0.6875
18	11	28	12	38	59	0.0407718290078	0.647039160647	-0.0501713225216	-0.9853515625	0.12158203125	0.154296875	-3.0625	0.25	0.375
18	11	28	12	38	59	0.0409542918822	0.647151053394	-0.049682255726	-0.98388671875	0.11279296875	0.1513671875	-2.8125	0.25	0.0
18	11	28	12	38	59	0.041014752033	0.647264055521	-0.0492543227539	-0.98583984375	0.111328125	0.14794921875	-1.875	0.5	0.0625
18	11	28	12	38	59	0.0411376702562	0.647399508023	-0.0490112006168	-0.9833984375	0.11767578125	0.15380859375	-1.375	0.8125	0.25
18	11	28	12	38	59	0.0411981507975	0.647573896239	-0.0487053693872	-0.98583984375	0.11328125	0.154296875	-1.5	0.9375	0.0
18	11	28	12	38	59	0.0413821178978	0.647709491345	-0.0484012086917	-0.986328125	0.11669921875	0.15185546875	-1.75	0.6875	0.4375
18	11	28	12	38	59	0.0416271003919	0.647783601847	-0.0479138912136	-0.9853515625	0.1142578125	0.1572265625	-2.75	0.6875	-0.0625
