18	12	13	15	00	21	-0.0531623305951	-0.624092801762	0.0433965752619	-0.982421875	0.13427734375	0.24072265625	0.5625	-2.0	-0.5
18	12	13	15	00	21	-0.052916968029	-0.623590152656	0.0435786795533	-1.001953125	0.1435546875	0.23583984375	1.3125	-3.0625	-0.875
18	12	13	15	00	21	-0.052490270648	-0.622925235155	0.0436401668759	-1.0009765625	0.130859375	0.22802734375	1.9375	-5.125	-1.375
18	12	13	15	00	21	-0.051819945511	-0.622022455481	0.0439462435429	-0.9853515625	0.12109375	0.23046875	3.375	-6.875	-0.9375
18	12	13	15	00	21	-0.0506607202804	-0.621051601027	0.0448011670913	-0.97412109375	0.10791015625	0.23095703125	7.8125	-7.5	-0.375
18	12	13	15	00	21	-0.048827241177	-0.620044928897	0.0465079472211	-0.9599609375	0.099609375	0.2314453125	14.125	-7.875	0.0625
18	12	13	15	00	21	-0.0466915992694	-0.619075675019	0.0490719553106	-0.95263671875	0.1181640625	0.22802734375	18.75	-8.0	0.5
18	12	13	15	00	21	-0.044860074706	-0.618153519214	0.0517569297288	-0.9501953125	0.1435546875	0.2275390625	18.0625	-8.0	0.875
18	12	13	15	00	21	-0.0438842994138	-0.617187810393	0.053710964512	-0.9482421875	0.16259765625	0.2265625	11.5	-7.4375	0.625
18	12	13	15	00	21	-0.0435790546449	-0.616515449536	0.054565370942	-0.94970703125	0.1650390625	0.22509765625	3.875	-5.75	0.0
18	12	13	15	00	21	-0.043824973357	-0.615991129692	0.0545675852106	-0.9580078125	0.162109375	0.23388671875	-1.4375	-3.5625	-0.6875
18	12	13	15	00	21	-0.0441293752497	-0.615797049646	0.0540783215369	-0.966796875	0.14892578125	0.23193359375	-3.6875	-1.75	-1.0625
18	12	13	15	00	21	-0.0443725172686	-0.615783117914	0.0534057119808	-0.96484375	0.1435546875	0.2236328125	-4.3125	-0.6875	-1.5
18	12	13	15	00	21	-0.0446170055472	-0.615971025968	0.0527347370627	-0.97021484375	0.13720703125	0.22412109375	-3.8125	0.375	-1.3125
18	12	13	15	00	21	-0.0446787633274	-0.616225129171	0.0522472970058	-0.97705078125	0.134765625	0.22265625	-2.3125	1.0	-1.3125
18	12	13	15	00	21	-0.0446773185366	-0.616754513405	0.0518793999401	-0.97314453125	0.14111328125	0.2119140625	-1.6875	2.0	-1.5625
18	12	13	15	00	21	-0.0448004076815	-0.61737891512	0.0514533292582	-0.97119140625	0.13671875	0.2119140625	-2.25	3.0	-1.1875
18	12	13	15	00	21	-0.0450434539131	-0.618035249761	0.0510858684624	-0.96728515625	0.13720703125	0.2138671875	-2.4375	3.8125	-0.25
18	12	13	15	00	21	-0.0454712006382	-0.618713504523	0.05078126031	-0.9658203125	0.13427734375	0.21435546875	-2.875	4.25	0.625
18	12	13	15	00	21	-0.0460806277527	-0.61949453204	0.0503530038358	-0.96728515625	0.1337890625	0.21484375	-3.8125	4.9375	1.3125
18	12	13	15	00	21	-0.0468750323053	-0.620300720467	0.0498657570227	-0.96826171875	0.1357421875	0.21728515625	-4.5	5.875	1.875
18	12	13	15	00	21	-0.0477916362645	-0.621169198294	0.0493785871494	-0.97607421875	0.13720703125	0.2197265625	-5.0	6.25	2.25
18	12	13	15	00	21	-0.0487672084757	-0.622071825763	0.0488892790852	-0.9775390625	0.13427734375	0.21728515625	-5.375	6.5	2.625
18	12	13	15	00	21	-0.049744356813	-0.622933626544	0.0484626003797	-0.97607421875	0.138671875	0.21923828125	-5.0625	6.5625	2.8125
18	12	13	15	00	21	-0.0506594204961	-0.62366019112	0.0480959317481	-0.96630859375	0.1337890625	0.228515625	-4.4375	6.75	3.0
18	12	13	15	00	21	-0.0515143119807	-0.624519478894	0.0477911211859	-0.97021484375	0.1328125	0.2265625	-3.75	7.1875	3.1875
18	12	13	15	00	21	-0.0523686219368	-0.625310643056	0.0474857667445	-0.96630859375	0.13916015625	0.2265625	-3.8125	7.3125	2.875
18	12	13	15	00	21	-0.0534057161588	-0.626098098694	0.0470580653239	-0.974609375	0.140625	0.22998046875	-5.0625	7.25	2.625
18	12	13	15	00	21	-0.0543230021427	-0.626789785397	0.0464492186861	-0.97412109375	0.13525390625	0.2314453125	-5.625	7.0625	2.375
18	12	13	15	00	21	-0.05523777554	-0.627452301162	0.0457771620497	-0.9716796875	0.13818359375	0.2265625	-5.625	6.6875	1.9375
18	12	13	15	00	21	-0.0560932131194	-0.628012045469	0.0451065119644	-0.97412109375	0.1357421875	0.23291015625	-5.4375	6.25	1.4375
18	12	13	15	00	22	-0.0568243674393	-0.628547084737	0.0443730559918	-0.9833984375	0.1376953125	0.22705078125	-5.4375	5.6875	1.0
18	12	13	15	00	22	-0.0575572525303	-0.628979307874	0.0435799345776	-0.97900390625	0.13525390625	0.2275390625	-5.5	4.9375	0.75
18	12	13	15	00	22	-0.0581041638664	-0.629319363053	0.0428457174729	-0.986328125	0.13330078125	0.22705078125	-4.875	4.125	0.4375
18	12	13	15	00	22	-0.0585331589104	-0.629521377478	0.0421756129375	-0.98876953125	0.13134765625	0.22265625	-4.125	3.0	0.125
18	12	13	15	00	22	-0.0589006466235	-0.629657067946	0.0415661558037	-0.9873046875	0.1337890625	0.216796875	-3.75	1.8125	-0.0625
18	12	13	15	00	22	-0.0593277524712	-0.62965544701	0.0410167177579	-0.984375	0.13330078125	0.21728515625	-3.75	0.875	0.0
18	12	13	15	00	22	-0.0596316156749	-0.629458395553	0.0404664904733	-0.9873046875	0.1298828125	0.22021484375	-3.3125	-0.4375	0.125
18	12	13	15	00	22	-0.0598761011304	-0.629156830226	0.0400394723155	-0.97802734375	0.12841796875	0.21826171875	-2.875	-1.4375	0.125
18	12	13	15	00	22	-0.0601801667022	-0.628717948478	0.039672523688	-0.96728515625	0.13330078125	0.21923828125	-2.9375	-2.0625	0.375
18	12	13	15	00	22	-0.0606081311981	-0.628237154504	0.0393067839794	-0.98388671875	0.13671875	0.2158203125	-3.125	-2.875	0.5625
18	12	13	15	00	22	-0.0609738673729	-0.627621900096	0.0390623374561	-0.99072265625	0.14697265625	0.2177734375	-3.1875	-3.8125	0.1875
18	12	13	15	00	22	-0.0613991396301	-0.627113478827	0.0385728193303	-0.98388671875	0.14306640625	0.2109375	-4.0625	-3.9375	-0.1875
18	12	13	15	00	22	-0.0618293482759	-0.626533326804	0.0379643184873	-0.98193359375	0.1357421875	0.2109375	-4.25	-4.375	-0.25
18	12	13	15	00	22	-0.0620122384172	-0.625859736939	0.0375979713238	-0.9775390625	0.1298828125	0.21240234375	-2.6875	-4.875	0.0
18	12	13	15	00	22	-0.0620101697594	-0.625289556284	0.0375356834666	-0.9775390625	0.12939453125	0.20361328125	-0.875	-5.1875	0.25
18	12	13	15	00	22	-0.0620101476994	-0.62467899774	0.0375967037233	-0.9716796875	0.12744140625	0.20849609375	0.1875	-5.125	0.75
18	12	13	15	00	22	-0.0620124600797	-0.624091933381	0.0379032851471	-0.97705078125	0.13623046875	0.208984375	0.6875	-5.125	1.0
18	12	13	15	00	22	-0.0621955050621	-0.62360301788	0.0381473902491	-0.97802734375	0.14501953125	0.2021484375	0.0	-4.875	1.0625
18	12	13	15	00	22	-0.0623764400952	-0.623154063965	0.0382681290995	-0.97314453125	0.1396484375	0.2001953125	-0.5625	-4.6875	1.1875
18	12	13	15	00	22	-0.0625604605596	-0.6227359796	0.0383297260795	-0.97314453125	0.13671875	0.2080078125	-0.9375	-4.0625	1.125
18	12	13	15	00	22	-0.0627455211398	-0.622450218467	0.0384529944728	-0.97265625	0.140625	0.20556640625	-0.4375	-3.1875	1.125
18	12	13	15	00	22	-0.0628648621355	-0.622240067448	0.0386344249823	-0.974609375	0.14599609375	0.21484375	-0.0625	-2.375	0.875
18	12	13	15	00	22	-0.0630490262177	-0.622128484257	0.038635076085	-0.97119140625	0.14453125	0.20947265625	-0.9375	-1.6875	0.4375
18	12	13	15	00	22	-0.0632918797964	-0.622054810882	0.0385122238684	-0.97119140625	0.13916015625	0.2119140625	-1.5	-1.375	0.4375
18	12	13	15	00	22	-0.0634167711905	-0.62208251393	0.0383918662934	-0.96728515625	0.13232421875	0.203125	-1.0625	-0.9375	0.5
18	12	13	15	00	22	-0.0633535743495	-0.622122334628	0.0383905570962	-0.9677734375	0.1318359375	0.21044921875	0.25	-0.5	0.5
18	12	13	15	00	22	-0.0632941594509	-0.622321359462	0.0385746468399	-0.9697265625	0.1357421875	0.2041015625	1.1875	-0.25	0.6875
18	12	13	15	00	22	-0.0632333757933	-0.622384877378	0.0388189449851	-0.96630859375	0.1357421875	0.20849609375	1.3125	-0.25	0.6875
18	12	13	15	00	22	-0.0631123974227	-0.622517738215	0.0390637662965	-0.97119140625	0.1337890625	0.21435546875	1.5	0.0625	0.8125
18	12	13	15	00	22	-0.0629887116018	-0.622684918374	0.0394289803244	-0.9794921875	0.140625	0.21728515625	2.1875	0.375	0.75
18	12	13	15	00	22	-0.0628070593044	-0.622882449176	0.0398571523088	-0.97998046875	0.14306640625	0.21435546875	2.375	0.8125	0.4375
18	12	13	15	00	22	-0.0626234600398	-0.62312173835	0.0401009875694	-0.978515625	0.14111328125	0.21533203125	1.8125	1.1875	0.125
18	12	13	15	00	22	-0.0624407496852	-0.623430906436	0.0402233177346	-0.9775390625	0.13330078125	0.21435546875	1.375	1.5	0.125
18	12	13	15	00	22	-0.0621942695513	-0.623712699259	0.0403438784822	-0.97607421875	0.1318359375	0.21630859375	1.5625	1.4375	0.125
18	12	13	15	00	22	-0.0619498482869	-0.623953989199	0.0405878316363	-0.97216796875	0.134765625	0.21728515625	2.0625	1.5625	0.0625
18	12	13	15	00	22	-0.0617669499557	-0.624261229394	0.0407710697336	-0.9658203125	0.14111328125	0.21923828125	1.75	2.0625	-0.0625
18	12	13	15	00	22	-0.0615837693812	-0.624504587025	0.0408320532369	-0.97900390625	0.1376953125	0.22119140625	1.0625	1.8125	-0.3125
18	12	13	15	00	22	-0.0614007343938	-0.624749420731	0.0408320987172	-0.9873046875	0.1435546875	0.2216796875	0.625	1.6875	-0.9375
18	12	13	15	00	22	-0.0611567730751	-0.624934330854	0.0406491126427	-0.98193359375	0.14013671875	0.22412109375	0.25	1.8125	-1.6875
18	12	13	15	00	22	-0.0609158412606	-0.625150346885	0.0404071011168	-0.982421875	0.13916015625	0.2216796875	0.0625	1.5	-1.9375
18	12	13	15	00	22	-0.0604251623745	-0.625247841782	0.0402224060654	-0.9736328125	0.12841796875	0.22412109375	1.1875	1.125	-2.1875
18	12	13	15	00	22	-0.0598755360148	-0.625305674283	0.0402222000344	-0.96435546875	0.12841796875	0.22314453125	2.0625	0.5625	-2.0625
18	12	13	15	00	22	-0.0594476817859	-0.625360315789	0.040160754225	-0.96728515625	0.1337890625	0.220703125	1.5	0.5625	-1.8125
18	12	13	15	00	22	-0.0591438686262	-0.625374693441	0.0400396055922	-0.97509765625	0.13818359375	0.2216796875	0.4375	0.375	-1.9375
18	12	13	15	00	22	-0.0589594623543	-0.625360922652	0.0396725160769	-0.98046875	0.1396484375	0.21826171875	-0.9375	-0.125	-2.3125
18	12	13	15	00	22	-0.0587160686859	-0.625246785466	0.0392457714813	-0.9755859375	0.13525390625	0.21826171875	-1.3125	-0.625	-2.5625
18	12	13	15	00	22	-0.0583484933247	-0.62517114762	0.0389396848757	-0.97412109375	0.130859375	0.21875	0.0625	-0.625	-2.6875
18	12	13	15	00	22	-0.057678830098	-0.625128653824	0.0389408397911	-0.9775390625	0.1328125	0.21826171875	2.25	-0.8125	-2.8125
18	12	13	15	00	22	-0.057007890369	-0.625011560362	0.0392463313782	-0.9736328125	0.1435546875	0.22021484375	3.3125	-0.8125	-2.8125
18	12	13	15	00	22	-0.0565203690672	-0.624959026867	0.039368939577	-0.97607421875	0.14599609375	0.21484375	2.25	-0.9375	-2.75
18	12	13	15	00	22	-0.0561521160548	-0.624875395836	0.0393675161471	-0.9697265625	0.14111328125	0.2177734375	0.875	-0.9375	-2.3125
18	12	13	15	00	23	-0.0559078315674	-0.62475170734	0.0393063793989	-0.97021484375	0.13818359375	0.21826171875	0.6875	-0.625	-1.9375
18	12	13	15	00	23	-0.0556013501244	-0.624798047446	0.0393664882879	-0.96923828125	0.14013671875	0.2109375	1.0	-0.4375	-1.625
18	12	13	15	00	23	-0.0554821600669	-0.624830442909	0.0394295659001	-0.97607421875	0.14501953125	0.21533203125	0.6875	-0.125	-1.4375
18	12	13	15	00	23	-0.0553603283082	-0.624833165261	0.0394907744382	-0.97314453125	0.14306640625	0.21826171875	0.3125	0.125	-1.125
18	12	13	15	00	23	-0.0553603283082	-0.624833165261	0.0394907744382	-0.97412109375	0.13232421875	0.2216796875	0.3125	0.4375	-0.625
18	12	13	15	00	23	-0.0553603283082	-0.624833165261	0.0394907744382	-0.97607421875	0.1376953125	0.220703125	0.8125	0.6875	-0.25
18	12	13	15	00	23	-0.0554210439936	-0.624829545554	0.0395515820571	-0.974609375	0.138671875	0.21728515625	0.25	0.9375	0.25
18	12	13	15	00	23	-0.0556629653653	-0.624926647342	0.0394889677537	-0.9716796875	0.13525390625	0.21923828125	-1.0625	1.125	0.5625
18	12	13	15	00	23	-0.0560903137788	-0.625049949302	0.0393059434968	-0.9697265625	0.13427734375	0.216796875	-2.3125	1.125	1.125
18	12	13	15	00	23	-0.0565198065424	-0.625135916422	0.039124401721	-0.97216796875	0.12744140625	0.22021484375	-2.4375	1.0	1.625
18	12	13	15	00	23	-0.057007184435	-0.625186927374	0.0390627387991	-0.96875	0.13037109375	0.22119140625	-1.875	0.9375	2.0
18	12	13	15	00	23	-0.0574964522554	-0.62519762256	0.039124443626	-0.96435546875	0.13232421875	0.2216796875	-1.25	0.875	2.375
18	12	13	15	00	23	-0.0579224019055	-0.625244557555	0.0393066668358	-0.98193359375	0.13671875	0.22216796875	-0.8125	0.8125	2.4375
18	12	13	15	00	23	-0.0583512277563	-0.625322519208	0.0394298045299	-0.98779296875	0.14208984375	0.216796875	-0.9375	0.6875	1.75
18	12	13	15	00	23	-0.0587140904259	-0.625347786386	0.03936651593	-0.98095703125	0.14013671875	0.22509765625	-1.625	0.875	1.25
18	12	13	15	00	23	-0.0590821020115	-0.625366959928	0.0392456524725	-0.98095703125	0.13134765625	0.22314453125	-1.9375	0.5625	1.25
18	12	13	15	00	23	-0.0593273836947	-0.625256912107	0.0391243343089	-0.9716796875	0.12744140625	0.22900390625	-1.0625	0.1875	1.25
18	12	13	15	00	23	-0.0595092934162	-0.62518327432	0.0391235457229	-0.9677734375	0.1259765625	0.22216796875	-0.75	0.25	1.375
18	12	13	15	00	23	-0.0598131101967	-0.625108035342	0.0390005891997	-0.97314453125	0.12841796875	0.22705078125	-1.4375	0.1875	1.5
18	12	13	15	00	23	-0.0602409693131	-0.624992427321	0.0388178890406	-0.9755859375	0.13232421875	0.2236328125	-2.375	-0.0625	1.3125
18	12	13	15	00	23	-0.0606106093353	-0.624844720811	0.038514898782	-0.97802734375	0.12939453125	0.22216796875	-2.5	-0.75	1.1875
18	12	13	15	00	23	-0.0608525843068	-0.624639265593	0.0383304141873	-0.97509765625	0.125	0.22607421875	-1.6875	-1.0	1.125
18	12	13	15	00	23	-0.0609748164005	-0.624396768545	0.0383305152147	-0.96923828125	0.126953125	0.220703125	-0.375	-1.3125	0.875
18	12	13	15	00	23	-0.060914472346	-0.624159713638	0.0383919870798	-0.97607421875	0.13037109375	0.22412109375	0.5	-1.5625	0.5625
18	12	13	15	00	23	-0.060915361835	-0.62398571547	0.038514622563	-0.97607421875	0.1376953125	0.21728515625	0.375	-1.625	0.3125
18	12	13	15	00	23	-0.0609130661956	-0.623718059572	0.0385131711116	-0.974609375	0.1298828125	0.220703125	-0.1875	-1.75	0.3125
18	12	13	15	00	23	-0.0609136578947	-0.623479975345	0.038513545222	-0.97509765625	0.13134765625	0.21923828125	0.125	-2.0	0.25
18	12	13	15	00	23	-0.0607927697792	-0.62330900099	0.0386974056627	-0.974609375	0.134765625	0.21630859375	0.9375	-1.875	0.25
18	12	13	15	00	23	-0.0605450619601	-0.623150284892	0.0388782303111	-0.9736328125	0.13232421875	0.2158203125	1.625	-1.6875	0.0625
18	12	13	15	00	23	-0.0603636330341	-0.623045466139	0.0391844817066	-0.9775390625	0.13916015625	0.21337890625	1.8125	-1.5	-0.25
18	12	13	15	00	23	-0.0601824750426	-0.622943549984	0.0393688604487	-0.9736328125	0.14306640625	0.21630859375	1.375	-1.4375	-0.375
18	12	13	15	00	23	-0.0601823303151	-0.622942051923	0.0394298026202	-0.97265625	0.140625	0.2236328125	0.9375	-1.0	-0.5
18	12	13	15	00	23	-0.0601823303151	-0.622942051923	0.0394298026202	-0.97802734375	0.138671875	0.2177734375	0.875	-0.5625	-0.8125
18	12	13	15	00	23	-0.0601823303151	-0.622942051923	0.0394298026202	-0.9765625	0.1376953125	0.22021484375	0.375	-0.1875	-0.875
18	12	13	15	00	23	-0.0601801867667	-0.622980898913	0.0393673635543	-0.9736328125	0.13232421875	0.21826171875	-0.25	0.0	-0.875
18	12	13	15	00	23	-0.0601801867667	-0.622980898913	0.0393673635543	-0.9775390625	0.13671875	0.21728515625	-0.5	0.125	-0.6875
18	12	13	15	00	23	-0.0601801867667	-0.622980898913	0.0393673635543	-0.97509765625	0.12841796875	0.21875	0.0	0.25	-0.375
18	12	13	15	00	23	-0.0601193728061	-0.622983186022	0.0393675080812	-0.96728515625	0.13232421875	0.21875	0.1875	0.5625	-0.3125
18	12	13	15	00	23	-0.0601193728061	-0.622983186022	0.0393675080812	-0.9638671875	0.13525390625	0.22265625	0.125	0.875	0.0
18	12	13	15	00	23	-0.0601823297546	-0.623247230349	0.039429802253	-0.984375	0.1435546875	0.20947265625	0.0625	1.0	0.0
18	12	13	15	00	23	-0.0602425656024	-0.62348308777	0.0394292779931	-0.98291015625	0.14794921875	0.2138671875	-0.375	1.125	-0.5625
18	12	13	15	00	23	-0.0602404090822	-0.623765938014	0.0391226972864	-0.98095703125	0.1396484375	0.21728515625	-1.3125	1.6875	-1.0
18	12	13	15	00	23	-0.06030307494	-0.623904890725	0.0388185786051	-0.97412109375	0.13232421875	0.22412109375	-1.3125	1.3125	-0.6875
18	12	13	15	00	23	-0.06018085541	-0.624086456964	0.0385743413987	-0.96875	0.12353515625	0.216796875	-0.5625	1.125	-0.5625
18	12	13	15	00	23	-0.0601214527205	-0.62422547916	0.038453314938	-0.9658203125	0.12353515625	0.2197265625	0.0	1.125	-0.125
18	12	13	15	00	23	-0.0600571846003	-0.62443603216	0.038451246238	-0.9697265625	0.13037109375	0.220703125	0.3125	1.5625	0.125
18	12	13	15	00	23	-0.0600590101265	-0.624638119547	0.0383913794406	-0.9716796875	0.13427734375	0.21630859375	-0.25	1.1875	-0.1875
18	12	13	15	00	23	-0.0601816235084	-0.624704783579	0.0382086169536	-0.97998046875	0.13623046875	0.2177734375	-1.1875	0.8125	-0.3125
18	12	13	15	00	23	-0.0601816235084	-0.624704783579	0.0382086169536	-0.978515625	0.12841796875	0.22119140625	-0.9375	0.4375	-0.625
18	12	13	15	00	24	-0.0601209482041	-0.624708532862	0.0381478097742	-0.97216796875	0.12646484375	0.21826171875	0.3125	0.4375	-0.9375
18	12	13	15	00	24	-0.0597536230946	-0.624758004082	0.0382081389757	-0.97705078125	0.12548828125	0.22314453125	1.625	0.3125	-1.0
18	12	13	15	00	24	-0.059449249865	-0.6247664493	0.0383307278391	-0.97412109375	0.13671875	0.22412109375	1.6875	0.1875	-1.3125
18	12	13	15	00	24	-0.0592641111126	-0.624745047733	0.0382683807082	-0.974609375	0.1396484375	0.2197265625	0.25	0.125	-1.375
18	12	13	15	00	24	-0.0591430211295	-0.624755381095	0.0380248732339	-0.97119140625	0.1328125	0.22216796875	-0.75	0.3125	-1.375
18	12	13	15	00	24	-0.0590804929371	-0.624800626236	0.0377797780248	-0.97216796875	0.1298828125	0.220703125	-0.8125	0.4375	-1.1875
18	12	13	15	00	24	-0.0590207650114	-0.62487548313	0.0375364741282	-0.978515625	0.13671875	0.2197265625	-0.8125	0.5625	-1.3125
18	12	13	15	00	24	-0.0590218540465	-0.624948049206	0.0372930225672	-0.98046875	0.13671875	0.21875	-1.1875	0.75	-1.375
18	12	13	15	00	24	-0.0590210869004	-0.625061996843	0.0368652910939	-0.97802734375	0.13525390625	0.2177734375	-1.8125	0.6875	-1.4375
18	12	13	15	00	24	-0.0590833837969	-0.625136381041	0.036438822445	-0.97607421875	0.13330078125	0.2197265625	-2.125	0.9375	-1.5
18	12	13	15	00	24	-0.0592041063044	-0.625244190703	0.0360717802329	-0.97509765625	0.1328125	0.2177734375	-2.125	1.0625	-1.3125
18	12	13	15	00	24	-0.0592059828544	-0.625386082811	0.0357067009998	-0.9794921875	0.1298828125	0.2177734375	-1.625	1.0	-1.125
18	12	13	15	00	24	-0.0592658632082	-0.625495948669	0.0353397886689	-0.97705078125	0.12744140625	0.21435546875	-1.75	0.75	-0.75
18	12	13	15	00	24	-0.0594471161962	-0.625598502064	0.0350945501158	-0.97900390625	0.1298828125	0.21435546875	-1.5625	0.5625	-0.1875
18	12	13	15	00	24	-0.059571831578	-0.625626304994	0.034974036367	-0.97216796875	0.1240234375	0.212890625	-1.0625	0.1875	0.375
18	12	13	15	00	24	-0.059571831578	-0.625626304994	0.034974036367	-0.96875	0.12646484375	0.21728515625	-0.1875	0.0625	0.875
18	12	13	15	00	24	-0.0596932151663	-0.625619075107	0.0350957042133	-0.96240234375	0.12451171875	0.21630859375	0.0	0.125	1.25
18	12	13	15	00	24	-0.0599969128886	-0.625603618625	0.0352779406405	-0.96875	0.13134765625	0.2158203125	-0.125	0.125	1.6875
18	12	13	15	00	24	-0.06030357816	-0.625619105405	0.0354008859644	-0.98193359375	0.13525390625	0.2158203125	-0.75	0.0	1.5
18	12	13	15	00	24	-0.0606685813276	-0.625606598197	0.0353391434494	-0.98291015625	0.140625	0.22021484375	-1.6875	0.5	1.125
18	12	13	15	00	24	-0.0610958889267	-0.625729323953	0.0350950410918	-0.9814453125	0.1279296875	0.216796875	-2.5625	0.875	1.0625
18	12	13	15	00	24	-0.0613402008666	-0.625792118891	0.0348509996964	-0.97607421875	0.12060546875	0.2197265625	-1.9375	0.75	1.0625
18	12	13	15	00	24	-0.0615233114444	-0.625853209872	0.0347899677811	-0.97216796875	0.1201171875	0.21142578125	-0.6875	0.6875	1.1875
18	12	13	15	00	24	-0.0616460525434	-0.625982093945	0.0347903464849	-0.9677734375	0.1181640625	0.2177734375	-0.3125	1.0	1.5
18	12	13	15	00	24	-0.0619512009032	-0.626103860951	0.0347903295713	-0.974609375	0.13037109375	0.21630859375	-0.8125	1.25	1.5625
18	12	13	15	00	24	-0.0624390000832	-0.626221056553	0.034667988316	-0.98046875	0.13720703125	0.216796875	-2.1875	0.9375	1.3125
18	12	13	15	00	24	-0.0629261503155	-0.626209798484	0.0343011605018	-0.97705078125	0.12890625	0.2197265625	-3.3125	0.6875	1.0
18	12	13	15	00	24	-0.0632338898128	-0.62623524081	0.0339363346872	-0.974609375	0.1240234375	0.21923828125	-2.9375	0.6875	0.75
18	12	13	15	00	24	-0.063355285445	-0.626167508074	0.0337528640184	-0.97705078125	0.12548828125	0.22607421875	-1.0625	0.4375	0.3125
18	12	13	15	00	24	-0.063355415848	-0.626168796902	0.0336918974452	-0.97802734375	0.12646484375	0.22509765625	0.5625	0.3125	-0.0625
18	12	13	15	00	24	-0.063355415848	-0.626168796902	0.0336918974452	-0.97607421875	0.12890625	0.21728515625	0.6875	0.0625	-0.3125
18	12	13	15	00	24	-0.063355415848	-0.626168796902	0.0336918974452	-0.97509765625	0.12841796875	0.216796875	0.0	-0.0625	-0.25
18	12	13	15	00	24	-0.063355415848	-0.626168796902	0.0336918974452	-0.9755859375	0.12744140625	0.21240234375	0.0	-0.1875	-0.375
18	12	13	15	00	24	-0.063355415848	-0.626168796902	0.0336918974452	-0.97216796875	0.1259765625	0.21337890625	0.25	-0.1875	-0.3125
18	12	13	15	00	24	-0.063355415848	-0.626168796902	0.0336918974452	-0.9765625	0.13037109375	0.21728515625	0.4375	-0.125	-0.375
18	12	13	15	00	24	-0.063355415848	-0.626168796902	0.0336918974452	-0.9794921875	0.1298828125	0.21142578125	0.3125	-0.25	-0.3125
18	12	13	15	00	24	-0.063355415848	-0.626168796902	0.0336918974452	-0.97412109375	0.13427734375	0.21630859375	0.5	-0.125	-0.5
18	12	13	15	00	24	-0.063355415848	-0.626168796902	0.0336918974452	-0.9794921875	0.13134765625	0.21728515625	0.625	0.0625	-0.5625
18	12	13	15	00	24	-0.063355415848	-0.626168796902	0.0336918974452	-0.98095703125	0.13427734375	0.21240234375	0.5	0.25	-0.6875
18	12	13	15	00	24	-0.063355415848	-0.626168796902	0.0336918974452	-0.97998046875	0.134765625	0.2119140625	-0.3125	0.25	-0.6875
18	12	13	15	00	24	-0.0634147539041	-0.626274099913	0.0335078921014	-0.97265625	0.13525390625	0.208984375	-1.125	0.3125	-0.4375
18	12	13	15	00	24	-0.0636006493632	-0.62630159608	0.0332652148781	-0.9765625	0.13037109375	0.21435546875	-1.8125	0.3125	-0.125
18	12	13	15	00	24	-0.0637819345443	-0.626405736103	0.0328980504492	-0.97705078125	0.1220703125	0.203125	-2.1875	0.1875	0.25
18	12	13	15	00	24	-0.0640869593042	-0.626465285999	0.0326538316455	-0.98095703125	0.12353515625	0.2060546875	-2.25	0.0625	1.0
18	12	13	15	00	24	-0.0644533419374	-0.626589023039	0.0324097770538	-0.96630859375	0.1201171875	0.203125	-2.0625	0.25	1.5
18	12	13	15	00	24	-0.0647578322915	-0.626643415775	0.0324094335031	-0.96875	0.11865234375	0.20654296875	-1.0625	0.4375	2.25
18	12	13	15	00	24	-0.0650016089004	-0.626761992298	0.0326533903866	-0.9853515625	0.125	0.2109375	0.5625	0.375	2.4375
18	12	13	15	00	24	-0.0651234298366	-0.626881675588	0.0330805051279	-0.98291015625	0.1337890625	0.212890625	1.1875	0.875	2.1875
18	12	13	15	00	24	-0.0654286802488	-0.627065541862	0.0332636480742	-0.9794921875	0.1357421875	0.2197265625	-0.125	1.6875	1.8125
18	12	13	15	00	24	-0.065734586567	-0.627255660305	0.0331419503304	-0.98193359375	0.130859375	0.2177734375	-1.5625	1.9375	1.25
18	12	13	15	00	24	-0.0662229920709	-0.627378926725	0.0326537334175	-0.96826171875	0.12158203125	0.2158203125	-3.625	1.5625	1.1875
18	12	13	15	00	25	-0.0663443604448	-0.62755539475	0.0321040787433	-0.97021484375	0.10546875	0.21240234375	-2.375	1.5625	0.3125
18	12	13	15	00	25	-0.0662231635272	-0.627624691751	0.0322265717441	-0.9638671875	0.11083984375	0.22412109375	1.4375	1.3125	1.375
18	12	13	15	00	25	-0.0658566826163	-0.627927294491	0.0330198936936	-0.9697265625	0.1279296875	0.21044921875	5.3125	1.9375	1.5625
18	12	13	15	00	25	-0.0656133017488	-0.628056627903	0.0336916675027	-0.962890625	0.1376953125	0.21435546875	3.75	0.9375	1.1875
18	12	13	15	00	25	-0.0656751567593	-0.628247572977	0.0339972698094	-0.96337890625	0.134765625	0.20703125	1.375	1.5625	1.125
18	12	13	15	00	25	-0.0656766003535	-0.628383457843	0.0338759416322	-0.96728515625	0.12744140625	0.2158203125	-0.4375	1.5	0.125
18	12	13	15	00	25	-0.0657972023326	-0.628552495011	0.0336920739217	-0.97607421875	0.1376953125	0.22412109375	-0.9375	2.25	-0.3125
18	12	13	15	00	25	-0.065550957586	-0.628837538183	0.0336299605492	-0.98583984375	0.1357421875	0.22119140625	0.9375	2.8125	-1.375
18	12	13	15	00	25	-0.0651862882632	-0.629218582121	0.0338138611403	-0.9873046875	0.14794921875	0.22119140625	1.875	3.3125	-1.75
18	12	13	15	00	25	-0.064820056257	-0.629706704712	0.0338138523224	-0.986328125	0.14697265625	0.2109375	1.625	3.625	-2.25
18	12	13	15	00	25	-0.0646362355253	-0.630127002421	0.0335083034026	-0.98681640625	0.146484375	0.21240234375	-0.6875	3.625	-2.75
18	12	13	15	00	25	-0.0645746046222	-0.630548431335	0.0328976482905	-0.986328125	0.14208984375	0.20654296875	-2.4375	3.25	-3.125
18	12	13	15	00	25	-0.0645758951168	-0.630866211652	0.032165875923	-0.986328125	0.13671875	0.20703125	-3.25	2.5625	-3.0
18	12	13	15	00	25	-0.0645759037773	-0.631049403737	0.0314944861523	-0.98583984375	0.130859375	0.2138671875	-2.875	1.8125	-2.4375
18	12	13	15	00	25	-0.0645737224058	-0.631028086912	0.0310661859211	-0.984375	0.134765625	0.21826171875	-1.625	0.9375	-1.6875
18	12	13	15	00	25	-0.0645761394162	-0.630929634353	0.0308232045418	-0.982421875	0.13525390625	0.21044921875	-1.4375	-0.1875	-1.25
18	12	13	15	00	25	-0.0647598985959	-0.630691830529	0.0305183311008	-0.9814453125	0.134765625	0.21337890625	-2.125	-1.125	-0.8125
18	12	13	15	00	25	-0.0649392128218	-0.630288769559	0.0303334480944	-0.97998046875	0.13330078125	0.216796875	-1.5	-2.0	-0.1875
18	12	13	15	00	25	-0.0651241504789	-0.629940353414	0.0303953392113	-0.97607421875	0.13232421875	0.20703125	-0.75	-2.3125	0.6875
18	12	13	15	00	25	-0.0654914088382	-0.629584233146	0.0304568620785	-0.97900390625	0.138671875	0.2041015625	-1.1875	-3.0	1.3125
18	12	13	15	00	25	-0.066163785209	-0.628983216401	0.0302742043023	-0.970703125	0.13525390625	0.20849609375	-3.8125	-3.8125	1.9375
18	12	13	15	00	25	-0.0671385635772	-0.62847799014	0.0297851082051	-0.9716796875	0.1298828125	0.19873046875	-6.0625	-3.875	2.4375
18	12	13	15	00	25	-0.0682372969343	-0.627929616154	0.0292968716712	-0.9814453125	0.1259765625	0.20556640625	-6.4375	-3.875	3.375
18	12	13	15	00	25	-0.0689688095896	-0.627494098576	0.0291133824551	-0.9990234375	0.1181640625	0.20556640625	-3.5625	-3.625	3.875
18	12	13	15	00	25	-0.0694559252174	-0.627056393395	0.0296011632078	-1.001953125	0.13232421875	0.21875	0.3125	-3.25	4.125
18	12	13	15	00	25	-0.0698865582605	-0.626781717709	0.0302129662349	-0.99560546875	0.1376953125	0.21435546875	1.0	-2.0625	3.8125
18	12	13	15	00	25	-0.0704366256972	-0.626544161856	0.030518468673	-0.986328125	0.138671875	0.22216796875	-0.75	-1.4375	3.5625
18	12	13	15	00	25	-0.0712288263112	-0.62647187083	0.0305179204418	-0.9658203125	0.14599609375	0.20849609375	-3.0625	-0.25	2.9375
18	12	13	15	00	25	-0.0723852627855	-0.626565858142	0.0298451884504	-0.95263671875	0.14697265625	0.2119140625	-7.375	1.375	1.875
18	12	13	15	00	25	-0.0738536266444	-0.626718213541	0.0283817656113	-0.947265625	0.14013671875	0.2197265625	-11.6875	2.9375	0.8125
18	12	13	15	00	25	-0.0754380298693	-0.626941296778	0.0266108260704	-0.9501953125	0.14697265625	0.2236328125	-13.375	4.0	-0.25
18	12	13	15	00	25	-0.0769660081217	-0.627263810838	0.0245973840389	-0.9521484375	0.14501953125	0.21435546875	-14.3125	4.3125	-1.3125
18	12	13	15	00	25	-0.0782474183575	-0.627566267981	0.0224610374068	-0.95849609375	0.13330078125	0.220703125	-13.875	4.125	-2.125
18	12	13	15	00	25	-0.0790394680851	-0.627921272324	0.0206906406802	-0.97607421875	0.12646484375	0.212890625	-10.6875	3.6875	-2.5
18	12	13	15	00	25	-0.0793448242153	-0.628227904345	0.0192258612522	-0.99658203125	0.115234375	0.208984375	-7.25	2.625	-2.625
18	12	13	15	00	25	-0.0794676110598	-0.628538754757	0.0180663693346	-1.01220703125	0.1142578125	0.203125	-5.25	1.3125	-2.0625
18	12	13	15	00	25	-0.0797122756016	-0.628603925284	0.0170899212622	-1.01513671875	0.11083984375	0.2041015625	-4.875	0.25	-1.0625
18	12	13	15	00	25	-0.0803238009861	-0.628613089936	0.0161135892556	-0.99951171875	0.10986328125	0.2041015625	-6.4375	-0.3125	0.375
18	12	13	15	00	25	-0.0812376940075	-0.628539273395	0.0151367003109	-0.98486328125	0.11376953125	0.2001953125	-7.625	-0.3125	1.6875
18	12	13	15	00	25	-0.0825190115796	-0.628475046032	0.0141600670758	-0.97119140625	0.12060546875	0.2041015625	-8.875	-0.25	2.375
18	12	13	15	00	25	-0.0842269348677	-0.628284106904	0.0130612783056	-0.95654296875	0.13525390625	0.2109375	-11.375	0.25	2.75
18	12	13	15	00	25	-0.0863040289091	-0.628237177907	0.0114746516513	-0.9560546875	0.146484375	0.21240234375	-14.8125	1.625	2.125
18	12	13	15	00	25	-0.0883790435422	-0.628357909715	0.00958253441721	-0.9619140625	0.150390625	0.21533203125	-16.3125	3.0	0.5
18	12	13	15	00	25	-0.0899664348141	-0.628605367809	0.00756841106984	-0.9677734375	0.14404296875	0.21875	-14.5	4.125	-1.25
18	12	13	15	00	25	-0.0911274659217	-0.629041971727	0.00585950216241	-0.97216796875	0.14697265625	0.2138671875	-12.0625	5.0625	-2.5625
18	12	13	15	00	25	-0.0919195270977	-0.629703692607	0.00408938135162	-0.9814453125	0.13623046875	0.20654296875	-10.5625	5.875	-3.5
18	12	13	15	00	25	-0.0925901302503	-0.63036971999	0.00225829585976	-0.9814453125	0.130859375	0.2099609375	-10.0	6.1875	-4.125
18	12	13	15	00	25	-0.0930787779855	-0.63104359711	0.000366211585517	-0.98486328125	0.1142578125	0.2021484375	-9.9375	5.9375	-4.125
18	12	13	15	00	25	-0.093509311929	-0.63161511739	-0.00152593524688	-0.986328125	0.10107421875	0.19140625	-9.375	4.625	-3.4375
18	12	13	15	00	25	-0.0939941092861	-0.632018832245	-0.0029907216591	-0.9794921875	0.0908203125	0.19677734375	-7.9375	3.4375	-1.5
18	12	13	15	00	26	-0.0946659507108	-0.632204975798	-0.00408937375733	-0.97705078125	0.095703125	0.1982421875	-6.75	2.3125	0.3125
18	12	13	15	00	26	-0.0955834108711	-0.632339806274	-0.00482189620614	-0.9853515625	0.1064453125	0.19580078125	-6.4375	1.125	2.0
18	12	13	15	00	26	-0.0966806293319	-0.632330378711	-0.00543218182484	-0.99609375	0.11181640625	0.2001953125	-6.8125	0.1875	3.0
18	12	13	15	00	26	-0.0979007081043	-0.63214316324	-0.00604250006379	-0.9931640625	0.1142578125	0.205078125	-7.0625	-0.3125	3.4375
18	12	13	15	00	26	-0.0990594397405	-0.631893025036	-0.00646968614448	-0.9833984375	0.1044921875	0.20556640625	-6.125	-0.9375	4.0625
18	12	13	15	00	26	-0.0999765425584	-0.63165887603	-0.00653082420864	-0.97412109375	0.10205078125	0.2021484375	-3.5	-1.5	4.625
18	12	13	15	00	26	-0.100708648416	-0.631473743338	-0.00628666108291	-0.96337890625	0.10400390625	0.2001953125	-1.5625	-1.375	5.0
18	12	13	15	00	26	-0.101682342636	-0.631272791048	-0.00598131427272	-0.9609375	0.11572265625	0.2041015625	-2.3125	-0.75	5.25
18	12	13	15	00	26	-0.102903715339	-0.631216028489	-0.00610342321107	-0.9697265625	0.1279296875	0.2060546875	-5.0	0.3125	4.5625
18	12	13	15	00	26	-0.104370994157	-0.63116985414	-0.00671392360076	-0.98291015625	0.1328125	0.2099609375	-8.375	1.125	3.5
18	12	13	15	00	26	-0.105960107442	-0.631243911964	-0.00787376374428	-0.98974609375	0.13623046875	0.20703125	-11.0625	1.875	2.1875
18	12	13	15	00	26	-0.107418779159	-0.63132946115	-0.00927707638194	-0.9853515625	0.12451171875	0.2060546875	-11.375	2.3125	1.25
18	12	13	15	00	26	-0.108459876297	-0.631472076631	-0.0105591213278	-0.98193359375	0.11572265625	0.20751953125	-9.375	2.5625	0.6875
18	12	13	15	00	26	-0.109130774611	-0.631713376521	-0.0115966706801	-0.98486328125	0.11083984375	0.203125	-6.875	2.6875	0.0
18	12	13	15	00	26	-0.109680145546	-0.63189679846	-0.012512203582	-0.98095703125	0.11181640625	0.20556640625	-5.4375	2.375	-0.25
18	12	13	15	00	26	-0.110107975215	-0.632022219152	-0.0133667663925	-0.97802734375	0.10302734375	0.19921875	-5.375	1.6875	-0.0625
18	12	13	15	00	26	-0.110595179063	-0.632077082991	-0.0141600891516	-0.98193359375	0.10205078125	0.205078125	-4.8125	1.3125	0.625
18	12	13	15	00	26	-0.110962112065	-0.632142241286	-0.0147094989041	-0.98974609375	0.0986328125	0.203125	-3.6875	1.0	1.0625
18	12	13	15	00	26	-0.111448949988	-0.63213404985	-0.0150755151408	-0.9873046875	0.109375	0.2109375	-2.9375	0.6875	1.4375
18	12	13	15	00	26	-0.111940157124	-0.632089567706	-0.0153810902918	-0.98876953125	0.10986328125	0.208984375	-3.1875	0.4375	1.625
18	12	13	15	00	26	-0.112550631898	-0.631968135941	-0.0158693949531	-0.984375	0.11279296875	0.2109375	-4.3125	0.3125	1.4375
18	12	13	15	00	26	-0.113277061827	-0.631873610505	-0.016417850017	-0.97509765625	0.119140625	0.20703125	-5.0	0.3125	1.125
18	12	13	15	00	26	-0.113891626171	-0.63171400368	-0.0169677771037	-0.9775390625	0.115234375	0.2099609375	-4.9375	0.3125	0.8125
18	12	13	15	00	26	-0.11450149565	-0.631589273445	-0.0176390896816	-0.97802734375	0.11328125	0.21533203125	-4.875	0.3125	0.25
18	12	13	15	00	26	-0.114990809255	-0.631472883518	-0.0183106384163	-0.97705078125	0.1201171875	0.20751953125	-4.9375	0.25	-0.25
18	12	13	15	00	26	-0.115419827712	-0.631360495955	-0.018982319629	-0.97509765625	0.1181640625	0.205078125	-4.5625	0.1875	-0.75
18	12	13	15	00	26	-0.115662711649	-0.631231537665	-0.0196535056206	-0.978515625	0.1103515625	0.20947265625	-3.8125	0.0	-1.0625
18	12	13	15	00	26	-0.115845599824	-0.631108273016	-0.0202027890105	-0.97314453125	0.1123046875	0.2099609375	-3.1875	-0.0625	-1.125
18	12	13	15	00	26	-0.116028592993	-0.630985583565	-0.0206910536689	-0.9716796875	0.11181640625	0.2080078125	-2.75	0.0	-1.0
18	12	13	15	00	26	-0.11620819094	-0.630966532529	-0.0211176649502	-0.97998046875	0.1171875	0.2001953125	-2.625	-0.1875	-0.9375
18	12	13	15	00	26	-0.116452747015	-0.630907780867	-0.0214229110075	-0.990234375	0.12548828125	0.19970703125	-2.4375	-0.4375	-0.9375
18	12	13	15	00	26	-0.11663758419	-0.630917167857	-0.02191150849	-0.986328125	0.119140625	0.201171875	-2.8125	0.0	-1.0625
18	12	13	15	00	26	-0.11682255419	-0.630927242769	-0.0223391091084	-0.98681640625	0.11474609375	0.19970703125	-2.8125	0.0625	-0.8125
18	12	13	15	00	26	-0.116941185334	-0.630847646982	-0.0226436220037	-0.97509765625	0.109375	0.20263671875	-1.8125	-0.375	-0.375
18	12	13	15	00	26	-0.116941185334	-0.630847646982	-0.0226436220037	-0.9716796875	0.1083984375	0.19580078125	-0.0625	-0.4375	0.25
18	12	13	15	00	26	-0.116941987979	-0.630851976907	-0.0223386052194	-0.97705078125	0.11474609375	0.19873046875	1.125	-0.625	1.0
18	12	13	15	00	26	-0.117063019858	-0.630846388559	-0.0220942717355	-0.97802734375	0.11328125	0.19482421875	0.875	-0.8125	1.4375
18	12	13	15	00	26	-0.117309101401	-0.630795818409	-0.0217894636838	-0.9833984375	0.1171875	0.19580078125	0.1875	-1.375	1.9375
18	12	13	15	00	26	-0.117677974509	-0.630565951582	-0.0215458117228	-0.98291015625	0.115234375	0.20361328125	-0.3125	-1.8125	2.375
18	12	13	15	00	26	-0.117857653423	-0.630425531953	-0.0211179430783	-0.98046875	0.1103515625	0.1962890625	0.8125	-1.875	2.8125
18	12	13	15	00	26	-0.117982240871	-0.63025588165	-0.0204469998405	-0.9794921875	0.1142578125	0.20458984375	2.5	-1.9375	3.1875
18	12	13	15	00	26	-0.118098114307	-0.630161772723	-0.0195914701253	-0.982421875	0.12255859375	0.205078125	3.4375	-1.5	3.1875
18	12	13	15	00	26	-0.118224821732	-0.63012548248	-0.0187987842507	-0.97998046875	0.123046875	0.20361328125	2.8125	-1.25	3.25
18	12	13	15	00	26	-0.118406698104	-0.630118943929	-0.0181882453788	-0.97705078125	0.11572265625	0.19970703125	1.8125	-0.875	3.3125
18	12	13	15	00	26	-0.118588267228	-0.630110793031	-0.0176997413773	-0.97607421875	0.1142578125	0.20361328125	1.625	-0.3125	3.0625
18	12	13	15	00	26	-0.118711611526	-0.630239640422	-0.0172116578151	-0.9755859375	0.11767578125	0.20361328125	1.9375	0.25	2.8125
18	12	13	15	00	26	-0.11877574105	-0.630439172304	-0.0167238196545	-0.98486328125	0.1220703125	0.20166015625	1.6875	0.6875	2.375
18	12	13	15	00	26	-0.118898668272	-0.63056578127	-0.0164187586063	-0.9873046875	0.1240234375	0.21044921875	1.3125	1.0	1.875
18	12	13	15	00	26	-0.118896656894	-0.63073821989	-0.0161133046304	-0.982421875	0.123046875	0.20849609375	1.3125	1.1875	1.3125
18	12	13	15	00	26	-0.118778742311	-0.630882364095	-0.0158697189111	-0.986328125	0.12109375	0.2138671875	1.8125	1.3125	0.8125
18	12	13	15	00	27	-0.118470154939	-0.631047363171	-0.0156251208987	-0.982421875	0.1171875	0.212890625	2.5	1.375	0.1875
18	12	13	15	00	27	-0.118101491225	-0.63121737584	-0.01531962496	-0.98388671875	0.12255859375	0.2109375	2.75	1.3125	-0.1875
18	12	13	15	00	27	-0.11767251592	-0.631391170742	-0.0150752652657	-0.97998046875	0.11962890625	0.20947265625	2.6875	1.125	-0.375
18	12	13	15	00	27	-0.117252452876	-0.631490826368	-0.0148930757427	-0.98486328125	0.11962890625	0.2109375	2.6875	0.875	-0.9375
18	12	13	15	00	27	-0.116701080997	-0.631540839474	-0.0146486712548	-0.986328125	0.1181640625	0.2109375	3.0625	0.1875	-1.0625
18	12	13	15	00	27	-0.116087149259	-0.631460381829	-0.0146482207267	-0.98388671875	0.1103515625	0.2109375	2.6875	-0.375	-1.5625
18	12	13	15	00	27	-0.115355916741	-0.631222693614	-0.0142821611203	-0.97119140625	0.10986328125	0.21923828125	4.1875	-1.3125	-1.4375
18	12	13	15	00	27	-0.114439846414	-0.631036571775	-0.013671746985	-0.98388671875	0.11083984375	0.2197265625	6.25	-1.3125	-1.1875
18	12	13	15	00	27	-0.113403493522	-0.630860338557	-0.0128174023894	-0.98828125	0.12744140625	0.2236328125	7.4375	-1.25	-1.625
18	12	13	15	00	27	-0.112550346777	-0.630867887359	-0.0120851240032	-0.9833984375	0.1396484375	0.2158203125	6.3125	-0.4375	-2.25
18	12	13	15	00	27	-0.111941884052	-0.63081754181	-0.0117801437416	-0.97900390625	0.1357421875	0.212890625	3.25	-0.1875	-2.625
18	12	13	15	00	27	-0.111514561389	-0.630817182242	-0.0119022109857	-0.9736328125	0.12744140625	0.2080078125	0.9375	0.125	-2.875
18	12	13	15	00	27	-0.111207452063	-0.630806266229	-0.0122682205624	-0.97021484375	0.123046875	0.2080078125	-0.3125	0.3125	-2.875
18	12	13	15	00	27	-0.110835860823	-0.630836705651	-0.0125727903797	-0.96826171875	0.12109375	0.2109375	0.0625	0.8125	-2.8125
18	12	13	15	00	27	-0.110409340977	-0.630901800816	-0.0127559714008	-0.97802734375	0.12353515625	0.21240234375	0.5	0.9375	-2.6875
18	12	13	15	00	27	-0.110103466702	-0.630958779804	-0.0128779553626	-0.98046875	0.1298828125	0.208984375	0.625	0.625	-2.6875
18	12	13	15	00	27	-0.109741425772	-0.630982680551	-0.0130615490073	-0.986328125	0.1259765625	0.21044921875	0.375	0.375	-2.5
18	12	13	15	00	27	-0.109439734234	-0.631002773288	-0.0131840393722	-0.97998046875	0.12109375	0.20361328125	0.6875	0.0	-2.25
18	12	13	15	00	27	-0.109012625998	-0.63100365485	-0.0130619831822	-0.97802734375	0.12646484375	0.203125	1.8125	-0.375	-1.8125
18	12	13	15	00	27	-0.108646067429	-0.631001710717	-0.0127567573554	-0.9765625	0.12939453125	0.20458984375	2.1875	-0.4375	-1.5625
18	12	13	15	00	27	-0.108399053324	-0.630923994488	-0.0125733136175	-0.97705078125	0.125	0.20361328125	1.6875	-0.8125	-1.0
18	12	13	15	00	27	-0.108277836258	-0.630867934363	-0.0123292688411	-0.97509765625	0.12353515625	0.2001953125	1.375	-1.0625	-0.3125
18	12	13	15	00	27	-0.108091375218	-0.630787330818	-0.0119626818423	-0.9736328125	0.11865234375	0.20361328125	1.9375	-0.875	0.5
18	12	13	15	00	27	-0.107971348676	-0.630799258659	-0.0114746260888	-0.97900390625	0.12060546875	0.20556640625	2.6875	-0.625	1.0
18	12	13	15	00	27	-0.107911688292	-0.63080729553	-0.0109254480793	-0.98291015625	0.1279296875	0.20458984375	2.6875	-0.3125	1.1875
18	12	13	15	00	27	-0.108028740496	-0.630839017947	-0.0104366749293	-0.97998046875	0.13330078125	0.20654296875	1.5625	0.0	1.4375
18	12	13	15	00	27	-0.108216018574	-0.63092441286	-0.0101319002162	-0.984375	0.12744140625	0.20703125	0.375	0.5625	1.5625
18	12	13	15	00	27	-0.108519557587	-0.631036954947	-0.0100096779777	-0.97802734375	0.1279296875	0.20751953125	-0.5625	1.0625	1.5625
18	12	13	15	00	27	-0.1088883539	-0.631174028969	-0.0100099159415	-0.978515625	0.1220703125	0.20947265625	-1.125	1.4375	1.6875
18	12	13	15	00	27	-0.109373481656	-0.631338891879	-0.0100706609783	-0.97705078125	0.1240234375	0.20703125	-1.9375	1.625	1.75
18	12	13	15	00	27	-0.109861800941	-0.631400183741	-0.010192733754	-0.974609375	0.12158203125	0.2099609375	-2.375	1.4375	1.9375
18	12	13	15	00	27	-0.110350090616	-0.631461303934	-0.0103148038242	-0.97412109375	0.1181640625	0.20751953125	-2.125	1.125	1.875
18	12	13	15	00	27	-0.110598189017	-0.631605993351	-0.0103762097864	-0.9775390625	0.11083984375	0.2001953125	-1.0625	0.9375	1.875
18	12	13	15	00	27	-0.110840465186	-0.631656373462	-0.0101929282412	-0.98095703125	0.1240234375	0.2119140625	0.0625	0.875	1.8125
18	12	13	15	00	27	-0.1110232894	-0.631776838143	-0.0100708316388	-0.97802734375	0.12109375	0.2021484375	0.0625	0.625	1.625
18	12	13	15	00	27	-0.11120511906	-0.631830621572	-0.0100096814082	-0.98095703125	0.1201171875	0.19970703125	-0.5	0.1875	1.5625
18	12	13	15	00	27	-0.111390316244	-0.631781459422	-0.00994883372484	-0.98583984375	0.12158203125	0.20751953125	-0.5	0.0625	1.25
18	12	13	15	00	27	-0.111390316244	-0.631781459422	-0.00994883372484	-0.98974609375	0.1259765625	0.20703125	-0.5	0.25	0.875
18	12	13	15	00	27	-0.111390248397	-0.631781074606	-0.0100098634176	-0.9892578125	0.1181640625	0.20654296875	-0.625	0.75	0.5
18	12	13	15	00	27	-0.111390248397	-0.631781074606	-0.0100098634176	-0.98828125	0.1201171875	0.2001953125	-0.3125	0.375	0.4375
18	12	13	15	00	27	-0.111390248397	-0.631781074606	-0.0100098634176	-0.97265625	0.1171875	0.20361328125	0.125	0.5625	0.1875
18	12	13	15	00	27	-0.111329901122	-0.631784981641	-0.0100709614502	-0.97119140625	0.11572265625	0.20458984375	0.375	0.8125	0.125
18	12	13	15	00	27	-0.111267096061	-0.631958043126	-0.0101318365037	-0.97265625	0.1220703125	0.197265625	0.0625	1.125	-0.25
18	12	13	15	00	27	-0.11126871908	-0.632089333405	-0.0103150924436	-0.97802734375	0.12548828125	0.20654296875	-0.9375	1.1875	-0.875
18	12	13	15	00	27	-0.111269132981	-0.632152720948	-0.010742384753	-0.98388671875	0.123046875	0.2060546875	-1.6875	1.125	-1.25
18	12	13	15	00	27	-0.111205940348	-0.632323568608	-0.0111083870161	-0.98681640625	0.12353515625	0.203125	-1.125	1.1875	-1.5625
18	12	13	15	00	27	-0.110840562015	-0.632450387444	-0.0113526126293	-0.9892578125	0.11767578125	0.19970703125	0.4375	1.0625	-1.875
18	12	13	15	00	27	-0.110294585057	-0.632591632283	-0.0113529567353	-0.98388671875	0.119140625	0.20849609375	2.0	1.125	-1.9375
18	12	13	15	00	27	-0.109860735254	-0.632797835061	-0.0112912422344	-0.982421875	0.12158203125	0.1982421875	1.875	1.0	-1.6875
18	12	13	15	00	27	-0.109555819776	-0.632921365503	-0.0113523022163	-0.98095703125	0.12109375	0.20166015625	1.0	0.875	-1.5
18	12	13	15	00	28	-0.109311118851	-0.633040158972	-0.0114743106331	-0.97998046875	0.11962890625	0.1953125	0.375	0.625	-1.4375
18	12	13	15	00	28	-0.109070702077	-0.633122771484	-0.0115357373769	-0.9794921875	0.12109375	0.19873046875	0.5	0.4375	-1.3125
18	12	13	15	00	28	-0.108825325013	-0.633176624612	-0.0114745715661	-0.978515625	0.12353515625	0.19970703125	1.125	0.3125	-1.1875
18	12	13	15	00	28	-0.108518900065	-0.6331693303	-0.0112913366209	-0.984375	0.126953125	0.20361328125	1.75	0.125	-1.1875
18	12	13	15	00	28	-0.108092779313	-0.633236920028	-0.0110473139783	-0.98779296875	0.12548828125	0.203125	2.625	0.0	-1.25
18	12	13	15	00	28	-0.107604687241	-0.633176985501	-0.0106811232372	-0.9892578125	0.1240234375	0.20703125	3.25	-0.1875	-1.125
18	12	13	15	00	28	-0.107052146502	-0.633157906392	-0.0102535693343	-0.98828125	0.1181640625	0.20361328125	4.0625	-0.8125	-0.875
18	12	13	15	00	28	-0.106447662274	-0.633070615311	-0.00964376756838	-0.98779296875	0.11474609375	0.20263671875	5.125	-1.1875	-0.125
18	12	13	15	00	28	-0.105898601818	-0.632950144586	-0.00885031542574	-0.98388671875	0.11865234375	0.2021484375	5.25	-1.625	0.625
18	12	13	15	00	28	-0.105590863385	-0.632812758137	-0.00805664391146	-0.98486328125	0.12109375	0.1962890625	4.375	-2.125	1.3125
18	12	13	15	00	28	-0.105467188447	-0.632558993671	-0.00744617881395	-0.986328125	0.12158203125	0.197265625	3.0	-2.5	1.75
18	12	13	15	00	28	-0.105528554684	-0.632255811434	-0.00689689223786	-0.98291015625	0.11962890625	0.197265625	2.0	-3.125	2.125
18	12	13	15	00	28	-0.105528683822	-0.631890378029	-0.00628655548508	-0.97314453125	0.115234375	0.19970703125	2.5	-3.3125	2.5
18	12	13	15	00	28	-0.10546762239	-0.63146297526	-0.00549310533282	-0.96875	0.12060546875	0.2021484375	3.625	-3.375	2.6875
18	12	13	15	00	28	-0.105343872038	-0.631208762814	-0.00457751471776	-0.9697265625	0.12744140625	0.19677734375	4.125	-3.0625	2.625
18	12	13	15	00	28	-0.105285270748	-0.630979205213	-0.00378416625297	-0.97998046875	0.13330078125	0.20166015625	3.375	-2.5625	1.8125
18	12	13	15	00	28	-0.105348095272	-0.630806816129	-0.00329594272578	-0.97998046875	0.142578125	0.20556640625	1.5	-1.5	0.9375
18	12	13	15	00	28	-0.105348095272	-0.630806816129	-0.00329594272578	-0.97900390625	0.13818359375	0.20263671875	-0.625	-0.5	0.125
18	12	13	15	00	28	-0.105408365315	-0.630802232501	-0.00354006090808	-0.97216796875	0.11962890625	0.205078125	-1.0625	-0.1875	-0.25
18	12	13	15	00	28	-0.105348007361	-0.630806289729	-0.00354008367724	-0.97119140625	0.11767578125	0.19775390625	-0.25	0.25	-0.5
18	12	13	15	00	28	-0.105163761875	-0.630921535983	-0.00354004537941	-0.97216796875	0.11962890625	0.19970703125	1.0	0.5625	-0.3125
18	12	13	15	00	28	-0.104919218624	-0.631041187524	-0.00335692671572	-0.98828125	0.1318359375	0.205078125	1.5	0.5625	-0.5
18	12	13	15	00	28	-0.104618308587	-0.631127952618	-0.00323498853856	-0.9970703125	0.12353515625	0.205078125	1.5625	0.125	-0.625
18	12	13	15	00	28	-0.10418595797	-0.631097132638	-0.00311276148593	-0.98681640625	0.111328125	0.2099609375	2.4375	-0.375	-0.125
18	12	13	15	00	28	-0.103577497661	-0.631108618627	-0.00250246164059	-0.9814453125	0.109375	0.21533203125	5.0625	0.0	0.4375
18	12	13	15	00	28	-0.102844249392	-0.631164618968	-0.00158691423394	-0.98486328125	0.119140625	0.2138671875	7.25	0.1875	0.75
18	12	13	15	00	28	-0.10217213124	-0.6312821705	-0.000610347259499	-0.982421875	0.130859375	0.21484375	6.625	0.375	0.625
18	12	13	15	00	28	-0.102051352648	-0.631290155768	-6.10354979955e-05	-0.97900390625	0.1435546875	0.20947265625	2.875	0.3125	0.3125
18	12	13	15	00	28	-0.102051352839	-0.631290156943	0.0	-0.97265625	0.1416015625	0.2080078125	-1.0	0.1875	-0.375
18	12	13	15	00	28	-0.102231682044	-0.631211973553	-0.000366203040158	-0.96533203125	0.134765625	0.20947265625	-2.375	0.0	-1.1875
18	12	13	15	00	28	-0.102113087714	-0.631050337044	-0.000671395077617	-0.9697265625	0.13037109375	0.21240234375	-0.9375	-0.25	-1.875
18	12	13	15	00	28	-0.101562962157	-0.630923281143	-0.000732425207866	-0.9775390625	0.12353515625	0.216796875	1.75	-0.6875	-2.375
18	12	13	15	00	28	-0.100766442528	-0.630782061494	-0.000427235068259	-0.97412109375	0.123046875	0.2138671875	4.25	-0.9375	-2.5
18	12	13	15	00	28	-0.0998537369558	-0.63067766746	0.0	-0.9765625	0.125	0.20703125	5.125	-1.25	-2.375
18	12	13	15	00	28	-0.099178808721	-0.630594124126	0.000366198678354	-0.9775390625	0.1337890625	0.20703125	3.8125	-1.1875	-2.5
18	12	13	15	00	28	-0.0987549133474	-0.630554394186	0.000366211050732	-0.9794921875	0.1318359375	0.19970703125	1.5	-0.8125	-2.3125
18	12	13	15	00	28	-0.0985735945252	-0.630565823554	0.000122072562879	-0.97802734375	0.13134765625	0.20166015625	-0.8125	-0.5625	-2.0
18	12	13	15	00	28	-0.0985689618933	-0.630536189053	-0.000183100238811	-0.97607421875	0.12890625	0.201171875	-1.4375	-0.3125	-1.5625
18	12	13	15	00	28	-0.0985131449007	-0.630569578668	-0.000366219869519	-0.98291015625	0.126953125	0.20166015625	-0.6875	-0.0625	-1.25
18	12	13	15	00	28	-0.0982033516601	-0.630662046429	-0.000305168898882	-0.98291015625	0.1240234375	0.19873046875	1.375	0.0	-0.8125
18	12	13	15	00	28	-0.0978377279239	-0.630787846596	0.000183102422815	-0.97607421875	0.12646484375	0.1982421875	3.375	-0.0625	-0.375
18	12	13	15	00	28	-0.097351146207	-0.630920876704	0.000732422416605	-0.97216796875	0.1201171875	0.19775390625	4.3125	-0.0625	0.1875
18	12	13	15	00	28	-0.0969249321135	-0.631049668213	0.00146486043497	-0.97412109375	0.12646484375	0.1962890625	4.75	0.0	0.8125
18	12	13	15	00	28	-0.0966212031066	-0.631303287259	0.0021973236335	-0.9853515625	0.130859375	0.19091796875	4.125	0.25	0.875
18	12	13	15	00	28	-0.0964980591594	-0.631479392829	0.00268558798419	-0.984375	0.14013671875	0.2041015625	2.3125	1.0	0.5625
18	12	13	15	00	28	-0.0965580153836	-0.631777507734	0.00280762876589	-0.9794921875	0.1318359375	0.2041015625	0.375	1.8125	0.4375
18	12	13	15	00	28	-0.096677660944	-0.63200579487	0.00274652445864	-0.97705078125	0.125	0.203125	-0.4375	1.9375	0.4375
18	12	13	15	00	28	-0.0966817071599	-0.632337428142	0.00268560297666	-0.9677734375	0.1220703125	0.197265625	0.0	2.3125	0.3125
18	12	13	15	00	28	-0.0966819700942	-0.632705367422	0.00274664687768	-0.9697265625	0.123046875	0.19580078125	0.5	2.4375	0.4375
18	12	13	15	00	28	-0.0966209309772	-0.633010533901	0.00286871999743	-0.97119140625	0.12841796875	0.20263671875	0.75	2.5	-0.0625
18	12	13	15	00	29	-0.0964949022354	-0.63328975686	0.00292963650051	-0.98046875	0.13671875	0.2001953125	0.8125	1.9375	-0.5
18	12	13	15	00	29	-0.0963718069531	-0.633466107895	0.00299063872115	-0.984375	0.13134765625	0.20068359375	0.8125	1.1875	-0.75
18	12	13	15	00	29	-0.096006026331	-0.633590946816	0.00311271922624	-0.9814453125	0.12109375	0.19970703125	1.75	0.8125	-0.875
18	12	13	15	00	29	-0.0955184337707	-0.633656472465	0.00341791200713	-0.98193359375	0.1240234375	0.20263671875	3.25	0.375	-0.8125
18	12	13	15	00	29	-0.0950307806694	-0.63372164142	0.00378414155524	-0.98388671875	0.12451171875	0.19873046875	3.5	0.0625	-0.625
18	12	13	15	00	29	-0.0947246194043	-0.633776061788	0.0039672037766	-0.98974609375	0.1259765625	0.197265625	1.9375	-0.125	-0.375
18	12	13	15	00	29	-0.0947245962919	-0.633775907149	0.00402823669798	-0.984375	0.1298828125	0.19677734375	0.0	-0.25	0.0
18	12	13	15	00	29	-0.0947850820148	-0.633772241881	0.00402821340179	-0.9794921875	0.1279296875	0.20361328125	-0.75	-0.3125	0.0625
18	12	13	15	00	29	-0.094788748467	-0.633735721399	0.0040283692201	-0.97705078125	0.1279296875	0.205078125	0.125	-0.25	0.0625
18	12	13	15	00	29	-0.094788748467	-0.633735721399	0.0040283692201	-0.9775390625	0.13134765625	0.20458984375	0.9375	0.0	0.0
18	12	13	15	00	29	-0.094788748467	-0.633735721399	0.0040283692201	-0.97998046875	0.1396484375	0.20361328125	0.9375	0.25	-0.25
18	12	13	15	00	29	-0.0948492119399	-0.633731896765	0.00408938043756	-0.97998046875	0.13916015625	0.19677734375	0.0	0.375	-0.4375
18	12	13	15	00	29	-0.0949702293991	-0.633724866228	0.00396726536693	-0.97998046875	0.13623046875	0.2021484375	-1.25	0.5	-0.5
18	12	13	15	00	29	-0.0952167090102	-0.633740442085	0.00372321746771	-0.97998046875	0.13427734375	0.2041015625	-1.75	0.5	-0.25
18	12	13	15	00	29	-0.095457935869	-0.633660032092	0.00347896569344	-0.98388671875	0.126953125	0.2060546875	-2.1875	0.3125	0.1875
18	12	13	15	00	29	-0.0957640961198	-0.633605533346	0.00323486111813	-0.98486328125	0.1220703125	0.19970703125	-2.125	-0.0625	0.625
18	12	13	15	00	29	-0.0960694248723	-0.633484473158	0.00311279585037	-0.98388671875	0.125	0.20263671875	-1.8125	-0.6875	1.1875
18	12	13	15	00	29	-0.0964343825655	-0.633293135126	0.00311275538661	-0.98828125	0.1201171875	0.19970703125	-1.1875	-1.375	2.0625
18	12	13	15	00	29	-0.0968037937267	-0.633130991379	0.00329596775614	-0.98291015625	0.1240234375	0.19189453125	-0.6875	-1.75	2.625
18	12	13	15	00	29	-0.0972916798411	-0.632762136081	0.0036011349502	-0.98193359375	0.12744140625	0.20458984375	-0.4375	-2.5	3.25
18	12	13	15	00	29	-0.0977794631752	-0.632392645417	0.00402836739673	-0.98779296875	0.12939453125	0.19921875	-0.125	-3.0625	3.5625
18	12	13	15	00	29	-0.0982059148747	-0.631960250226	0.00445558221619	-0.9951171875	0.13330078125	0.19873046875	-0.0625	-3.625	3.4375
18	12	13	15	00	29	-0.0986353276947	-0.631424792699	0.00476086358922	-0.986328125	0.1298828125	0.20556640625	-0.5	-3.9375	3.0625
18	12	13	15	00	29	-0.0989995685286	-0.630862848527	0.00512698135413	-0.9765625	0.12548828125	0.20458984375	-0.125	-4.3125	3.25
18	12	13	15	00	29	-0.0991815072583	-0.630245073199	0.00561519918016	-0.96826171875	0.11669921875	0.2099609375	1.5	-4.5	3.4375
18	12	13	15	00	29	-0.0992440046079	-0.629766075981	0.00640874568501	-0.96875	0.1240234375	0.20556640625	2.9375	-4.125	3.625
18	12	13	15	00	29	-0.0993668379658	-0.629282616356	0.00720226466828	-0.970703125	0.1318359375	0.208984375	2.9375	-3.875	3.4375
18	12	13	15	00	29	-0.0996113961152	-0.628857974372	0.00787369491352	-0.97314453125	0.14306640625	0.205078125	1.5625	-3.4375	3.0
18	12	13	15	00	29	-0.0999779096597	-0.628493611579	0.00817890103443	-0.9775390625	0.14013671875	0.20703125	-0.125	-3.125	2.375
18	12	13	15	00	29	-0.10015937441	-0.628178111777	0.00836187342726	-0.978515625	0.1337890625	0.20751953125	-0.25	-2.5625	1.625
18	12	13	15	00	29	-0.100036566126	-0.628051412711	0.00860595230245	-0.97705078125	0.126953125	0.205078125	1.5	-1.875	1.1875
18	12	13	15	00	29	-0.099668055633	-0.627975887574	0.00903298973282	-0.97607421875	0.1220703125	0.20654296875	3.4375	-1.3125	1.0
18	12	13	15	00	29	-0.0992415371954	-0.628102496481	0.00964339660325	-0.978515625	0.12890625	0.20361328125	4.3125	-0.5	1.0625
18	12	13	15	00	29	-0.0990011134939	-0.628248126506	0.0100710133949	-0.9736328125	0.1357421875	0.2001953125	2.6875	0.125	0.9375
18	12	13	15	00	29	-0.0990011134939	-0.628248126506	0.0100710133949	-0.97021484375	0.13525390625	0.20751953125	0.875	0.6875	0.8125
18	12	13	15	00	29	-0.0989961747641	-0.628521952972	0.0100094775964	-0.97119140625	0.1328125	0.2041015625	0.125	1.4375	0.4375
18	12	13	15	00	29	-0.0988749504922	-0.628832478346	0.0100095628893	-0.970703125	0.13427734375	0.208984375	0.5625	2.0625	-0.0625
18	12	13	15	00	29	-0.0986328270137	-0.629150483204	0.0100097670979	-0.9765625	0.13818359375	0.21240234375	1.1875	2.5	-0.6875
18	12	13	15	00	29	-0.0982667900899	-0.629578844582	0.0100708201024	-0.978515625	0.14013671875	0.2119140625	1.5625	2.875	-1.5
18	12	13	15	00	29	-0.0978357806626	-0.629981864004	0.0100093998931	-0.97705078125	0.13818359375	0.21044921875	1.75	3.125	-2.0625
18	12	13	15	00	29	-0.0972279730836	-0.63042544506	0.00994862499223	-0.98095703125	0.13525390625	0.208984375	2.0625	3.25	-2.3125
18	12	13	15	00	29	-0.0966164087825	-0.630905759687	0.00982643197346	-0.98388671875	0.130859375	0.2099609375	2.1875	3.3125	-2.5
18	12	13	15	00	29	-0.0960084905198	-0.631348903965	0.00970460902266	-0.98388671875	0.1298828125	0.205078125	2.0625	3.1875	-2.5625
18	12	13	15	00	29	-0.0955205814073	-0.631717583109	0.00964361141364	-0.98583984375	0.13427734375	0.2138671875	1.75	2.9375	-2.25
18	12	13	15	00	29	-0.0950318326279	-0.632019670432	0.00958252904469	-0.98486328125	0.13427734375	0.21044921875	1.6875	2.625	-2.0
18	12	13	15	00	29	-0.094542265555	-0.632255215548	0.00952136438127	-0.98583984375	0.12646484375	0.21484375	1.8125	2.125	-1.6875
18	12	13	15	00	29	-0.0942990726103	-0.632505688971	0.00946042476026	-0.9765625	0.12890625	0.2138671875	0.9375	2.4375	-1.0625
18	12	13	15	00	29	-0.0940541908706	-0.632622769872	0.00952138466957	-0.97998046875	0.13623046875	0.21484375	1.25	1.875	-1.0
18	12	13	15	00	29	-0.0936883093937	-0.632747038101	0.00958245249173	-0.9853515625	0.14208984375	0.21142578125	1.75	1.1875	-1.625
18	12	13	15	00	29	-0.0934463051101	-0.632761492538	0.00958267139274	-0.990234375	0.14697265625	0.2138671875	0.75	0.75	-1.875
18	12	13	15	00	30	-0.0932605239716	-0.632743358648	0.00946032802068	-0.98193359375	0.1484375	0.21435546875	-0.125	0.875	-2.625
18	12	13	15	00	30	-0.0930793249832	-0.632756303017	0.00909430781803	-0.9775390625	0.1416015625	0.2138671875	-0.9375	0.75	-2.625
18	12	13	15	00	30	-0.0928324658387	-0.632676752718	0.0087278386686	-0.96875	0.1328125	0.21240234375	-0.8125	0.5625	-2.875
18	12	13	15	00	30	-0.0926505046616	-0.63262350515	0.00830070397495	-0.9658203125	0.13427734375	0.2099609375	-1.125	0.375	-2.6875
18	12	13	15	00	30	-0.0925931179507	-0.63252635552	0.00787377206041	-0.9658203125	0.13623046875	0.20703125	-1.8125	0.125	-2.3125
18	12	13	15	00	30	-0.0927137163722	-0.63245525283	0.0073853585787	-0.97802734375	0.14111328125	0.20458984375	-2.875	0.125	-2.1875
18	12	13	15	00	30	-0.0929590064014	-0.632340975915	0.00671404511106	-0.9873046875	0.138671875	0.20556640625	-4.0	-0.375	-2.0
18	12	13	15	00	30	-0.093204218634	-0.632226127447	0.00610374712731	-0.98974609375	0.13525390625	0.19970703125	-3.8125	-0.75	-1.5625
18	12	13	15	00	30	-0.0931984529164	-0.632064949838	0.00579820106553	-0.98583984375	0.1279296875	0.203125	-1.375	-1.1875	-1.125
18	12	13	15	00	30	-0.0930189328647	-0.631906175819	0.00585946033793	-0.98828125	0.125	0.20263671875	0.9375	-1.5	-0.4375
18	12	13	15	00	30	-0.0929559449315	-0.631709803047	0.00610347635795	-0.98681640625	0.1337890625	0.20166015625	0.9375	-1.5	-0.125
18	12	13	15	00	30	-0.0930825653841	-0.631496538665	0.00610377477928	-0.98681640625	0.13525390625	0.203125	-0.6875	-1.875	0.25
18	12	13	15	00	30	-0.0934468666418	-0.631239382632	0.00604261253921	-0.97412109375	0.1318359375	0.20263671875	-1.8125	-1.8125	0.8125
18	12	13	15	00	30	-0.0938119614491	-0.6310487114	0.00592046861455	-0.97509765625	0.12744140625	0.201171875	-2.0625	-1.4375	1.125
18	12	13	15	00	30	-0.0941769954213	-0.630857695836	0.00585935940405	-0.9716796875	0.12939453125	0.20166015625	-1.5	-1.375	1.125
18	12	13	15	00	30	-0.0945427741193	-0.630732748708	0.00585933267621	-0.97119140625	0.13720703125	0.1962890625	-1.8125	-1.1875	1.125
18	12	13	15	00	30	-0.0951550056803	-0.630623167857	0.00573737686591	-0.96923828125	0.14208984375	0.19970703125	-2.9375	-1.125	1.0
18	12	13	15	00	30	-0.0957023426222	-0.63048800975	0.00543208449833	-0.97412109375	0.138671875	0.2041015625	-3.75	-0.6875	0.5625
18	12	13	15	00	30	-0.0961900293546	-0.630423104825	0.005004811172	-0.97607421875	0.13427734375	0.201171875	-3.6875	-0.4375	0.5
18	12	13	15	00	30	-0.0965604278664	-0.63032840618	0.0046388069013	-0.97509765625	0.12646484375	0.20263671875	-3.0	-0.5	0.4375
18	12	13	15	00	30	-0.0969232962742	-0.630306599889	0.00445554195719	-0.98193359375	0.12744140625	0.19677734375	-2.3125	-0.5	0.875
18	12	13	15	00	30	-0.0971651856139	-0.630292004921	0.00433337197147	-0.98046875	0.1240234375	0.20068359375	-1.5	-0.5625	1.3125
18	12	13	15	00	30	-0.0975316609088	-0.630232747525	0.00433338418306	-0.97802734375	0.12841796875	0.20361328125	-1.375	-0.5	1.6875
18	12	13	15	00	30	-0.0978981247767	-0.630173402943	0.00433339579747	-0.9794921875	0.12109375	0.201171875	-1.0625	-0.75	2.1875
18	12	13	15	00	30	-0.0983295638744	-0.63013930319	0.00451669008486	-0.97607421875	0.12744140625	0.20361328125	-1.0	-0.375	2.5625
18	12	13	15	00	30	-0.0988177437005	-0.630138595407	0.00451668501163	-0.9697265625	0.125	0.2001953125	-1.75	-0.1875	2.75
18	12	13	15	00	30	-0.0994267371541	-0.630129916746	0.00457765824835	-0.974609375	0.13037109375	0.20751953125	-1.875	0.0625	2.875
18	12	13	15	00	30	-0.0999110391584	-0.63016583953	0.00451644282084	-0.9833984375	0.13037109375	0.20166015625	-1.875	0.1875	2.375
18	12	13	15	00	30	-0.100400850481	-0.630297618792	0.00445547847117	-0.98291015625	0.14111328125	0.2041015625	-2.375	0.875	1.625
18	12	13	15	00	30	-0.100709481124	-0.630441351836	0.00421148739246	-0.98486328125	0.1259765625	0.2080078125	-2.0	1.1875	1.0625
18	12	13	15	00	30	-0.100891684764	-0.630496735398	0.00396730762835	-0.97607421875	0.1220703125	0.2109375	-1.375	1.25	0.75
18	12	13	15	00	30	-0.100829147536	-0.630670448844	0.00384517935519	-0.97216796875	0.1181640625	0.2080078125	0.0	1.1875	0.5625
18	12	13	15	00	30	-0.10070997393	-0.630810654892	0.00396736260938	-0.9736328125	0.12109375	0.2080078125	1.375	1.125	0.5625
18	12	13	15	00	30	-0.100521749895	-0.630961657809	0.00415026046924	-0.97509765625	0.12548828125	0.20751953125	1.4375	1.125	0.4375
18	12	13	15	00	30	-0.10052177517	-0.630961816459	0.00408922825525	-0.97802734375	0.130859375	0.2060546875	0.75	0.75	0.0625
18	12	13	15	00	30	-0.10052177517	-0.630961816459	0.00408922825525	-0.98291015625	0.12890625	0.20703125	0.375	0.125	-0.0625
18	12	13	15	00	30	-0.100283936883	-0.630940386829	0.00415052203776	-0.978515625	0.12451171875	0.20849609375	1.1875	-0.0625	-0.375
18	12	13	15	00	30	-0.0998514643861	-0.630907449486	0.00439444097543	-0.9794921875	0.12890625	0.20947265625	2.5625	-0.375	-0.6875
18	12	13	15	00	30	-0.0993074248563	-0.630940903958	0.00476089682778	-0.98681640625	0.13232421875	0.2060546875	3.6875	-0.4375	-0.875
18	12	13	15	00	30	-0.0989361884054	-0.630969966524	0.00506582580978	-0.9814453125	0.13623046875	0.19921875	2.75	-0.5625	-1.0
18	12	13	15	00	30	-0.0985726847284	-0.63092621798	0.00512700032024	-0.97705078125	0.13037109375	0.2021484375	1.4375	-0.9375	-1.3125
18	12	13	15	00	30	-0.0982037013854	-0.630786360359	0.00518788975622	-0.97265625	0.130859375	0.2080078125	1.5625	-1.0	-1.375
18	12	13	15	00	30	-0.097778770714	-0.630679174649	0.00543215392855	-0.9765625	0.13427734375	0.20556640625	2.5625	-0.9375	-1.4375
18	12	13	15	00	30	-0.097289487262	-0.630611657711	0.00585934176735	-0.978515625	0.14013671875	0.21044921875	3.4375	-0.9375	-1.25
18	12	13	15	00	30	-0.0968009579791	-0.630610023859	0.00634760380191	-0.978515625	0.14501953125	0.203125	3.6875	-0.875	-1.3125
18	12	13	15	00	30	-0.0963729717264	-0.630605157617	0.00665272572399	-0.9833984375	0.14111328125	0.20361328125	2.8125	-0.5625	-1.3125
18	12	13	15	00	30	-0.0959441479027	-0.630533709913	0.00695778171814	-0.9775390625	0.134765625	0.2138671875	2.625	-0.375	-1.3125
18	12	13	15	00	30	-0.0955774570099	-0.630591497973	0.00720187734812	-0.97802734375	0.13671875	0.20556640625	2.3125	0.0625	-1.0625
18	12	13	15	00	30	-0.0953975657606	-0.630734769399	0.00732418930983	-0.97998046875	0.14013671875	0.19970703125	1.0	0.375	-0.6875
18	12	13	15	00	31	-0.095458044683	-0.630731095751	0.00732414665087	-0.978515625	0.14013671875	0.205078125	-0.4375	0.625	-0.5
18	12	13	15	00	31	-0.0957008900424	-0.630783608793	0.00714094651464	-0.978515625	0.14111328125	0.20654296875	-1.75	0.75	-0.1875
18	12	13	15	00	31	-0.0958877939891	-0.630869661789	0.00689708511825	-0.97900390625	0.1318359375	0.203125	-1.6875	0.5625	0.125
18	12	13	15	00	31	-0.0958877939891	-0.630869661789	0.00689708511825	-0.98779296875	0.12939453125	0.20703125	-0.6875	0.375	0.5625
18	12	13	15	00	31	-0.0958877939891	-0.630869661789	0.00689708511825	-0.9755859375	0.12841796875	0.2060546875	0.625	0.0625	0.5625
18	12	13	15	00	31	-0.0958867736021	-0.630801912908	0.007202189233	-0.9755859375	0.13720703125	0.21142578125	1.0625	-0.0625	0.75
18	12	13	15	00	31	-0.0958830818702	-0.630838659586	0.00720191194187	-0.9853515625	0.1376953125	0.19970703125	0.75	-0.3125	0.75
18	12	13	15	00	31	-0.0958867736021	-0.630801912908	0.007202189233	-0.99169921875	0.14013671875	0.2119140625	0.1875	-0.3125	0.4375
18	12	13	15	00	31	-0.0960682755383	-0.630791377185	0.00707999997614	-0.98095703125	0.13671875	0.21142578125	-1.1875	0.125	0.0625
18	12	13	15	00	31	-0.096191446205	-0.630615496314	0.00683594033944	-0.97705078125	0.119140625	0.22119140625	-1.125	0.0625	0.375
18	12	13	15	00	31	-0.096130975237	-0.630619197555	0.0068359804613	-0.978515625	0.1220703125	0.21826171875	0.3125	0.625	0.4375
18	12	13	15	00	31	-0.09619136522	-0.630614965389	0.00695800484459	-0.97705078125	0.134765625	0.2158203125	0.3125	1.0	0.4375
18	12	13	15	00	31	-0.0964992208861	-0.630693516392	0.00671405078904	-0.98095703125	0.1396484375	0.20947265625	-1.9375	0.875	0.125
18	12	13	15	00	31	-0.0969870103586	-0.630629195107	0.00616468725376	-0.9775390625	0.13818359375	0.21875	-4.375	0.75	-0.25
18	12	13	15	00	31	-0.0975958461901	-0.630558278292	0.00524905739359	-0.97900390625	0.13427734375	0.21142578125	-6.3125	0.625	-0.8125
18	12	13	15	00	31	-0.0981432872623	-0.630424138142	0.0042724067838	-0.9794921875	0.12548828125	0.212890625	-6.3125	0.125	-1.0
18	12	13	15	00	31	-0.0983874739055	-0.630241349595	0.00347896154628	-0.97705078125	0.11962890625	0.21484375	-4.3125	-0.125	-1.125
18	12	13	15	00	31	-0.0984509998636	-0.630135227894	0.0030517978879	-0.9833984375	0.123046875	0.20654296875	-2.0625	-0.75	-0.875
18	12	13	15	00	31	-0.0984531539639	-0.629965903324	0.00286875278134	-0.97998046875	0.12939453125	0.2080078125	-1.0	-1.1875	-0.875
18	12	13	15	00	31	-0.0985111451352	-0.629763318157	0.00256348704813	-0.97998046875	0.12646484375	0.20751953125	-1.625	-1.4375	-0.625
18	12	13	15	00	31	-0.0986938009631	-0.629516303731	0.00219726458545	-0.9755859375	0.12451171875	0.20556640625	-2.5	-1.75	-0.5
18	12	13	15	00	31	-0.0988159794445	-0.629272852423	0.00189209102086	-0.97607421875	0.12744140625	0.2041015625	-2.125	-2.0	-0.625
18	12	13	15	00	31	-0.0988776901923	-0.629033009334	0.0016479615032	-0.974609375	0.1240234375	0.20703125	-1.1875	-1.8125	-0.6875
18	12	13	15	00	31	-0.0988184893732	-0.628800542015	0.00152591861293	-0.978515625	0.1279296875	0.20751953125	-0.5625	-1.8125	-0.6875
18	12	13	15	00	31	-0.0988129867757	-0.628704494612	0.0014648002981	-0.9775390625	0.13232421875	0.19970703125	-0.5	-1.5	-0.9375
18	12	13	15	00	31	-0.098755510072	-0.628605066892	0.00122071087852	-0.9755859375	0.12646484375	0.20458984375	-1.0625	-1.0	-1.125
18	12	13	15	00	31	-0.0987555365606	-0.628605235499	0.000976568964753	-0.9755859375	0.130859375	0.20703125	-1.125	-0.4375	-1.1875
18	12	13	15	00	31	-0.098751768214	-0.628642282203	0.000732398775382	-0.97509765625	0.12890625	0.20361328125	-1.4375	0.0625	-1.125
18	12	13	15	00	31	-0.0988177357855	-0.628734710517	0.000427253953365	-0.98046875	0.12548828125	0.20263671875	-1.375	0.3125	-1.0625
18	12	13	15	00	31	-0.0986939309321	-0.62884574545	0.000183105623251	-0.9775390625	0.12255859375	0.208984375	-0.6875	0.5625	-1.0625
18	12	13	15	00	31	-0.0986939309321	-0.62884574545	0.000183105623251	-0.984375	0.12451171875	0.208984375	0.6875	0.6875	-0.875
18	12	13	15	00	31	-0.0982678956512	-0.628975568128	0.000366215760191	-0.98486328125	0.11572265625	0.20703125	2.4375	0.4375	-0.75
18	12	13	15	00	31	-0.0977171561096	-0.629149559761	0.000732420907754	-0.97412109375	0.11474609375	0.2041015625	3.75	0.4375	-0.3125
18	12	13	15	00	31	-0.0974111009238	-0.62920491192	0.00115965596338	-0.96337890625	0.1220703125	0.208984375	3.1875	0.3125	0.25
18	12	13	15	00	31	-0.0972918329774	-0.62934510027	0.00146487076001	-0.9716796875	0.13037109375	0.20361328125	1.75	0.4375	0.25
18	12	13	15	00	31	-0.0972918240973	-0.629345042828	0.0015259069024	-0.97265625	0.13427734375	0.21240234375	-0.3125	0.75	-0.4375
18	12	13	15	00	31	-0.0974749198527	-0.629467030959	0.00122072535821	-0.97021484375	0.1318359375	0.21044921875	-2.0625	1.4375	-0.8125
18	12	13	15	00	31	-0.0977184728103	-0.629585288593	0.000671394878772	-0.9697265625	0.1220703125	0.21337890625	-2.9375	1.5	-0.875
18	12	13	15	00	31	-0.0977147368971	-0.629622252237	0.000244134258331	-0.9697265625	0.1162109375	0.21142578125	-1.9375	0.8125	-0.875
18	12	13	15	00	31	-0.0977147368971	-0.629622252237	0.000244134258331	-0.96826171875	0.11181640625	0.205078125	-0.375	0.375	-0.6875
18	12	13	15	00	31	-0.0977147368971	-0.629622252237	0.000244134258331	-0.974609375	0.11962890625	0.20849609375	0.8125	-0.125	-0.1875
18	12	13	15	00	31	-0.09753712181	-0.629596627954	0.000427258981646	-0.98486328125	0.119140625	0.20361328125	1.4375	-0.8125	0.375
18	12	13	15	00	31	-0.0974145135996	-0.629471101975	0.00067140328922	-0.986328125	0.11767578125	0.205078125	1.4375	-1.625	0.625
18	12	13	15	00	31	-0.0972902070509	-0.629212512226	0.000976564186208	-0.9892578125	0.11474609375	0.2119140625	1.75	-2.125	1.125
18	12	13	15	00	31	-0.0969844821154	-0.628964813215	0.00146483799293	-0.982421875	0.107421875	0.208984375	3.5625	-2.3125	1.5
18	12	13	15	00	31	-0.0966190052595	-0.628786476427	0.00238037978845	-0.9833984375	0.12060546875	0.2080078125	5.1875	-2.25	1.875
18	12	13	15	00	31	-0.0963751832784	-0.628666490036	0.00335695698563	-0.9765625	0.13427734375	0.20703125	5.0	-1.75	1.75
18	12	13	15	00	31	-0.0963770043329	-0.628495258781	0.00390635103059	-0.9765625	0.1337890625	0.21533203125	2.375	-1.5	1.4375
