19	03	08	12	03	35	-0.0733614378965	0.515727246443	-0.435896330663	-0.6298828125	0.65478515625	0.07421875	-88.3125	11.5	46.625
19	03	08	12	03	35	-0.0579199387404	0.51377243869	-0.429547448741	-0.63525390625	0.6376953125	0.0283203125	-90.9375	5.5	43.25
19	03	08	12	03	35	-0.0437598969596	0.511691737949	-0.422463049867	-0.64599609375	0.59912109375	0.0078125	-91.75	-0.5	39.1875
19	03	08	12	03	35	-0.0307006577464	0.509337950087	-0.414611467339	-0.64990234375	0.55859375	-0.00439453125	-92.8125	-6.5	36.4375
19	03	08	12	03	35	-0.0184932897641	0.506581864826	-0.406058933335	-0.6455078125	0.537109375	-0.0107421875	-94.9375	-12.25	32.875
19	03	08	12	03	35	-0.0075682288527	0.50371445743	-0.396660639627	-0.65087890625	0.51025390625	-0.02685546875	-96.0	-17.9375	27.4375
19	03	08	12	03	35	0.0015868839343	0.500661881272	-0.386345204004	-0.68408203125	0.49853515625	-0.04541015625	-97.0625	-26.1875	19.5
19	03	08	12	03	35	0.00982662980905	0.495420833292	-0.37353400268	-0.7177734375	0.49609375	-0.0224609375	-103.875	-35.5625	12.125
19	03	08	12	03	35	0.0181274307028	0.489135453373	-0.358764436602	-0.72900390625	0.453125	-0.0068359375	-115.3125	-43.3125	9.625
19	03	08	12	03	35	0.0262443620394	0.482285927523	-0.343007708514	-0.767578125	0.3330078125	0.02392578125	-119.0625	-46.5625	9.0
19	03	08	12	03	35	0.0325923220165	0.476067624959	-0.329219072953	-0.8134765625	0.201171875	0.06884765625	-100.75	-43.375	7.5625
19	03	08	12	03	35	0.0344224343185	0.474407060209	-0.317797190597	-0.92724609375	0.1767578125	0.05908203125	-71.0	-36.0	6.1875
19	03	08	12	03	35	0.0341178633862	0.474232197693	-0.308769715332	-1.03173828125	0.21875	0.0478515625	-51.875	-32.5	1.0625
19	03	08	12	03	35	0.0330806637881	0.47423756021	-0.299068731664	-1.076171875	0.25244140625	0.0908203125	-53.0625	-32.875	-5.4375
19	03	08	12	03	35	0.0327133818071	0.47397784163	-0.287523771816	-1.0791015625	0.23876953125	0.1357421875	-62.625	-32.875	-7.5625
19	03	08	12	03	35	0.030578699059	0.473634141114	-0.275757609478	-1.11962890625	0.232421875	0.16845703125	-58.5625	-36.5625	-16.125
19	03	08	12	03	35	0.0256953659167	0.473136523958	-0.263728446855	-1.1611328125	0.13818359375	0.2119140625	-48.5625	-41.625	-25.1875
19	03	08	12	03	35	0.0189822477096	0.472725107753	-0.25323905385	-1.1591796875	-0.0224609375	0.26513671875	-29.125	-40.1875	-23.0625
19	03	08	12	03	35	0.0112305817737	0.471806506037	-0.249086979448	-1.03857421875	-0.12646484375	0.3310546875	11.6875	-33.5	-9.0625
19	03	08	12	03	35	0.0022582447455	0.47130178175	-0.254266151615	-0.9541015625	-0.02880859375	0.34375	62.1875	-22.0	1.8125
19	03	08	12	03	35	-0.00756829764426	0.472225152207	-0.264341105623	-1.03125	0.14892578125	0.32763671875	86.3125	-12.25	1.5
19	03	08	12	03	35	-0.0159304123041	0.472907412002	-0.273197415607	-1.046875	0.2705078125	0.33251953125	72.8125	-11.125	-0.1875
19	03	08	12	03	35	-0.0220324036132	0.47238449852	-0.277937856106	-0.96142578125	0.31201171875	0.37255859375	44.25	-14.0	-3.4375
19	03	08	12	03	35	-0.0269773528395	0.472042639956	-0.279600120719	-0.9384765625	0.3564453125	0.3876953125	24.4375	-12.5	-9.8125
19	03	08	12	03	35	-0.0313102362427	0.472705223586	-0.277336673463	-1.00439453125	0.3046875	0.4130859375	4.1875	-9.1875	-14.5625
19	03	08	12	03	35	-0.0348516123132	0.474311522392	-0.274235191109	-0.99365234375	0.275390625	0.39990234375	-1.25	-3.625	-13.9375
19	03	08	12	03	35	-0.0371690946865	0.475935304376	-0.271230635118	-0.951171875	0.34375	0.3857421875	-6.75	-1.125	-13.5625
19	03	08	12	03	35	-0.0373529881083	0.478325764387	-0.266719866068	-0.9736328125	0.4716796875	0.34033203125	-25.25	2.25	-15.9375
19	03	08	12	03	35	-0.0345441922168	0.481726694642	-0.257067380949	-0.9765625	0.5439453125	0.28759765625	-64.0625	4.1875	-22.25
19	03	08	12	03	35	-0.028808199624	0.484490441982	-0.238461093074	-0.994140625	0.42529296875	0.32373046875	-112.5625	4.125	-26.8125
19	03	08	12	03	35	-0.0217892247596	0.486931190847	-0.218746726998	-1.08251953125	0.22607421875	0.32958984375	-120.5625	3.0625	-20.375
19	03	08	12	03	35	-0.0173947926008	0.490899357504	-0.20232890341	-1.169921875	0.166015625	0.39208984375	-90.5625	5.0625	-11.875
19	03	08	12	03	35	-0.014160358606	0.490729668932	-0.19641393963	-1.26904296875	0.2138671875	0.685546875	-30.75	-0.8125	15.4375
19	03	08	12	03	35	-0.0167236439643	0.491516441038	-0.20031751639	-0.9833984375	0.15576171875	0.5673828125	35.8125	8.5	10.4375
19	03	08	12	03	35	-0.0239867204365	0.492002426052	-0.218199810586	-1.009765625	0.5380859375	0.51513671875	111.8125	9.5	12.1875
19	03	08	12	03	35	-0.0314325739184	0.492118142726	-0.23473724134	-0.94677734375	0.77294921875	0.4580078125	104.125	7.0625	4.8125
19	03	08	12	03	35	-0.0307619035956	0.490420427362	-0.246705583994	-0.8818359375	0.75830078125	0.48095703125	50.9375	5.5	17.875
19	03	08	12	03	35	-0.0308223128205	0.489922188138	-0.254635027895	-0.9404296875	0.66650390625	0.4150390625	34.3125	3.5	9.1875
19	03	08	12	03	35	-0.0297841407556	0.487593238722	-0.255484453285	-0.82861328125	0.57568359375	0.47412109375	-2.9375	-8.1875	0.1875
19	03	08	12	03	35	-0.0314317320058	0.48575758259	-0.251392823557	-0.822265625	0.3017578125	0.4755859375	-13.3125	-13.625	-11.25
19	03	08	12	03	35	-0.0349121638693	0.485108179079	-0.249206931955	-0.99560546875	0.2275390625	0.46923828125	3.9375	-12.0	-8.25
19	03	08	12	03	36	-0.0385728236408	0.485334008848	-0.249563727638	-1.0576171875	0.2197265625	0.41796875	17.25	-8.8125	-1.25
19	03	08	12	03	36	-0.0419901059997	0.486670211107	-0.250536896989	-1.0859375	0.15087890625	0.37060546875	21.5	-3.8125	3.9375
19	03	08	12	03	36	-0.0463253137665	0.487911143938	-0.252927668311	-1.0302734375	0.142578125	0.3515625	31.0	-2.9375	2.6875
19	03	08	12	03	36	-0.0511461610338	0.489062277284	-0.25682941006	-0.951171875	0.193359375	0.3173828125	37.9375	-1.875	-0.6875
19	03	08	12	03	36	-0.0562133712627	0.48999016775	-0.26062008175	-0.92529296875	0.275390625	0.3017578125	35.5625	-3.25	-7.1875
19	03	08	12	03	36	-0.0599956665735	0.490890281028	-0.263968726277	-0.89794921875	0.34912109375	0.28125	27.0	-2.1875	-7.5625
19	03	08	12	03	36	-0.062621031985	0.49144692938	-0.266291971297	-0.89501953125	0.43017578125	0.267578125	15.75	-4.6875	-9.0625
19	03	08	12	03	36	-0.0650008867189	0.491443323813	-0.267449657843	-0.8818359375	0.357421875	0.32958984375	12.625	-5.3125	-6.25
19	03	08	12	03	36	-0.0691509811463	0.491869158921	-0.26976817005	-0.8603515625	0.3134765625	0.3330078125	25.1875	-2.25	-10.25
19	03	08	12	03	36	-0.0747046138677	0.491805374629	-0.27416105024	-0.927734375	0.37451171875	0.36279296875	39.3125	-4.1875	-12.25
19	03	08	12	03	36	-0.0806888471901	0.491884583589	-0.276795704998	-0.92236328125	0.2939453125	0.34130859375	33.1875	-6.8125	-14.9375
19	03	08	12	03	36	-0.083190695454	0.491026518656	-0.278136463084	-0.8759765625	0.408203125	0.28125	10.6875	-12.3125	-8.125
19	03	08	12	03	36	-0.0803811178714	0.490526229562	-0.274467643939	-0.87158203125	0.396484375	0.3134765625	-29.8125	-8.6875	3.5625
19	03	08	12	03	36	-0.0756223181503	0.490660061025	-0.266417609948	-1.0595703125	0.1435546875	0.392578125	-49.8125	-8.4375	19.6875
19	03	08	12	03	36	-0.0751931990507	0.487718225336	-0.262687929151	-0.81494140625	0.25537109375	0.38720703125	-19.1875	-22.1875	2.6875
19	03	08	12	03	36	-0.0747639521208	0.483005646599	-0.26329117506	-0.66845703125	0.53955078125	0.3046875	-7.375	-29.25	-2.625
19	03	08	12	03	36	-0.0711658826958	0.48027815689	-0.265498790503	-0.77685546875	0.4375	0.24267578125	-5.9375	-17.5625	22.125
19	03	08	12	03	36	-0.0725081974946	0.478322174887	-0.267145101375	-0.79248046875	0.232421875	0.2900390625	12.9375	-17.1875	8.625
19	03	08	12	03	36	-0.077331757447	0.47644175109	-0.26983717417	-0.876953125	0.23486328125	0.4052734375	31.1875	-15.4375	-3.5625
19	03	08	12	03	36	-0.0811129864072	0.473006504632	-0.277761626139	-0.71240234375	0.400390625	0.48681640625	53.0	-7.375	4.1875
19	03	08	12	03	36	-0.0851410820307	0.468855764989	-0.288503150365	-0.6787109375	0.58935546875	0.5712890625	66.5	-1.75	0.6875
19	03	08	12	03	36	-0.086362431795	0.466479198735	-0.295402240204	-0.8046875	0.63525390625	0.6123046875	39.25	6.75	2.25
19	03	08	12	03	36	-0.0862413651534	0.466118404584	-0.298701515259	-0.80859375	0.533203125	0.58984375	20.0	15.0	2.25
19	03	08	12	03	36	-0.0856905488295	0.467391896678	-0.298940390432	-0.78173828125	0.54150390625	0.56201171875	1.9375	20.625	-8.0
19	03	08	12	03	36	-0.0828233101242	0.469840708428	-0.296198617563	-0.75927734375	0.54248046875	0.52734375	-20.875	25.4375	-7.6875
19	03	08	12	03	36	-0.0787339495684	0.472647833688	-0.29162078375	-0.70654296875	0.51318359375	0.52294921875	-33.9375	28.375	-7.4375
19	03	08	12	03	36	-0.0736055907977	0.476483289683	-0.286549128354	-0.67529296875	0.517578125	0.48974609375	-39.625	34.875	-6.75
19	03	08	12	03	36	-0.0677491732284	0.481568447542	-0.279846810137	-0.708984375	0.5087890625	0.4921875	-49.5625	40.9375	-9.25
19	03	08	12	03	36	-0.0604233859326	0.48723221202	-0.271478000634	-0.73388671875	0.56005859375	0.5029296875	-63.3125	45.4375	-10.375
19	03	08	12	03	36	-0.0518794926096	0.493221387974	-0.259519532442	-0.72802734375	0.498046875	0.5302734375	-83.4375	47.125	-12.1875
19	03	08	12	03	36	-0.0427841464335	0.499128030718	-0.246512364401	-0.6650390625	0.4560546875	0.5556640625	-88.6875	50.5	-12.875
19	03	08	12	03	36	-0.0334455025389	0.505954773809	-0.233325102566	-0.59228515625	0.421875	0.56005859375	-88.75	59.5625	-13.6875
19	03	08	12	03	36	-0.0222161109172	0.514815647216	-0.219353578672	-0.6669921875	0.41357421875	0.50732421875	-97.75	71.25	-8.6875
19	03	08	12	03	36	-0.00787339350502	0.524892900335	-0.202938243443	-0.69873046875	0.37158203125	0.5048828125	-118.625	72.5625	5.0625
19	03	08	12	03	36	0.00769016547062	0.534405467149	-0.185357401066	-0.6376953125	0.32275390625	0.5126953125	-127.75	72.125	8.0625
19	03	08	12	03	36	0.022155347025	0.54283651912	-0.168942150318	-0.6337890625	0.3193359375	0.52392578125	-118.3125	66.625	7.625
19	03	08	12	03	36	0.0350339308681	0.551265616029	-0.154845091659	-0.64990234375	0.37646484375	0.49853515625	-102.0625	67.875	6.125
19	03	08	12	03	36	0.0498059965146	0.557814953611	-0.145267489834	-0.71826171875	0.49169921875	0.46728515625	-89.5625	69.125	17.6875
19	03	08	12	03	36	0.0667710286995	0.564196882357	-0.140255780577	-0.7314453125	0.58984375	0.42822265625	-76.5	70.4375	37.5625
19	03	08	12	03	36	0.086058461229	0.570610322007	-0.136411816203	-0.65771484375	0.67626953125	0.3515625	-80.5625	72.3125	46.375
19	03	08	12	03	36	0.106870104995	0.577501389756	-0.131771877033	-0.66552734375	0.79345703125	0.27294921875	-91.625	74.875	44.3125
19	03	08	12	03	36	0.127014133186	0.584594602429	-0.120727513427	-0.767578125	0.77294921875	0.2197265625	-110.75	74.75	46.8125
19	03	08	12	03	36	0.147950895939	0.591010117732	-0.109315204054	-0.7607421875	0.7490234375	0.125	-115.5625	72.875	50.1875
19	03	08	12	03	36	0.167477997484	0.596670883164	-0.0994248024421	-0.7177734375	0.6923828125	0.1123046875	-104.1875	67.8125	50.5
19	03	08	12	03	36	0.186827548424	0.601375966882	-0.0934442916164	-0.7470703125	0.68017578125	0.13134765625	-93.5	56.8125	47.0
19	03	08	12	03	36	0.203009020379	0.605425878877	-0.0888698537801	-0.93408203125	0.69091796875	0.06689453125	-78.3125	42.0625	42.6875
19	03	08	12	03	36	0.221562920357	0.60328592419	-0.0813618106987	-1.15087890625	0.7587890625	0.06298828125	-101.375	13.75	55.625
19	03	08	12	03	36	0.242612628042	0.59820034401	-0.0760491407648	-1.19189453125	0.62255859375	0.193359375	-103.375	-2.0625	77.25
19	03	08	12	03	36	0.264343419772	0.59222447519	-0.0776978003625	-1.28369140625	0.66162109375	0.265625	-75.625	-11.875	106.375
19	03	08	12	03	36	0.288699601052	0.585639042727	-0.0876474898755	-1.189453125	0.787109375	0.310546875	-48.9375	-18.0	148.25
19	03	08	12	03	36	0.314090489257	0.577460186331	-0.102418157982	-0.97998046875	0.79443359375	0.37646484375	-33.25	-27.8125	170.375
19	03	08	12	03	37	0.340996195064	0.570483521614	-0.12298323484	-0.69873046875	0.97705078125	0.35546875	-9.875	-18.8125	198.5625
19	03	08	12	03	37	0.372738615241	0.561030514376	-0.145506608602	-0.51953125	1.091796875	0.3935546875	-20.4375	-19.3125	230.9375
19	03	08	12	03	37	0.407287959524	0.546814450679	-0.164001610556	-0.435546875	1.0166015625	0.36474609375	-56.6875	-30.6875	233.625
19	03	08	12	03	37	0.441962064118	0.526191818086	-0.176760411226	-0.36376953125	0.95361328125	0.34423828125	-99.25	-55.1875	215.3125
19	03	08	12	03	37	0.474662536179	0.500602047285	-0.183712772778	-0.333984375	0.87548828125	0.35546875	-132.8125	-73.8125	186.5
19	03	08	12	03	37	0.504657023769	0.471940990298	-0.183905613524	-0.33251953125	0.7421875	0.275390625	-165.125	-81.4375	152.1875
19	03	08	12	03	37	0.531682639491	0.44257040741	-0.177492034857	-0.33642578125	0.65234375	0.298828125	-187.0625	-73.8125	118.875
19	03	08	12	03	37	0.554513737883	0.415046055872	-0.167056037489	-0.3837890625	0.60205078125	0.390625	-187.0625	-61.3125	88.3125
19	03	08	12	03	37	0.574822903365	0.388423546084	-0.152647279817	-0.41943359375	0.5556640625	0.38134765625	-194.875	-49.25	67.375
19	03	08	12	03	37	0.591685975689	0.362677745775	-0.13330329801	-0.3310546875	0.41162109375	0.3701171875	-204.8125	-35.25	36.3125
19	03	08	12	03	37	0.604068074997	0.341005186926	-0.110291099477	-0.310546875	0.28955078125	0.41015625	-195.625	-10.875	5.6875
19	03	08	12	03	37	0.611572442192	0.325134371213	-0.0856933841155	-0.3994140625	0.3046875	0.36962890625	-173.75	13.625	-20.8125
19	03	08	12	03	37	0.614936550495	0.309818156855	-0.0556036920596	-0.59912109375	0.39990234375	0.306640625	-190.0625	25.375	-56.375
19	03	08	12	03	37	0.616406601526	0.295110993007	-0.0203861575314	-0.79345703125	0.1513671875	0.29638671875	-202.8125	42.6875	-71.0
19	03	08	12	03	37	0.6151737661	0.28790303152	0.0131225676864	-0.94189453125	-0.18505859375	0.29541015625	-159.625	70.0625	-68.4375
19	03	08	12	03	37	0.609445199534	0.29327833588	0.0474860656222	-0.990234375	-0.23046875	0.33203125	-96.0625	96.75	-56.3125
19	03	08	12	03	37	0.60218697007	0.303534948526	0.0780047585394	-1.4365234375	-0.201171875	0.455078125	-61.25	89.0625	-43.125
19	03	08	12	03	37	0.59639450996	0.310923511794	0.105228137874	-1.078125	-0.37060546875	0.46142578125	-52.25	90.5	-30.875
19	03	08	12	03	37	0.591855427519	0.321104610104	0.123473603163	-1.0947265625	-0.27001953125	0.44189453125	-30.6875	104.25	-26.625
19	03	08	12	03	37	0.586547597003	0.329162454801	0.143554625198	-1.1865234375	-0.49951171875	0.38720703125	-41.1875	100.125	-34.125
19	03	08	12	03	37	0.575380310646	0.342774565035	0.159119175756	-1.0595703125	-0.26025390625	0.45361328125	19.9375	87.5	-38.3125
19	03	08	12	03	37	0.566170995299	0.362737626678	0.161989847081	-0.75732421875	0.13525390625	0.39208984375	67.5625	89.8125	-13.125
19	03	08	12	03	37	0.556296919393	0.384903266808	0.160162729481	-0.60791015625	0.2666015625	0.28271484375	88.5625	89.0625	-10.75
19	03	08	12	03	37	0.548222276699	0.404056053412	0.156190247837	-0.775390625	0.34033203125	0.53076171875	85.0625	75.25	-1.8125
19	03	08	12	03	37	0.543878696463	0.420405842357	0.150755288998	-0.70458984375	0.18603515625	0.65966796875	82.625	70.75	27.0
19	03	08	12	03	37	0.540912248677	0.435073629945	0.143864835267	-0.52490234375	0.18359375	0.60546875	80.375	64.625	33.25
19	03	08	12	03	37	0.534428771558	0.447758047984	0.138734193439	-0.59033203125	0.26171875	0.55029296875	75.125	52.5625	0.5
19	03	08	12	03	37	0.533344145343	0.454605996168	0.137517093094	-0.48193359375	0.34130859375	0.7060546875	27.0625	53.5	5.6875
19	03	08	12	03	37	0.533875419625	0.46038896653	0.136780017764	-0.3837890625	0.23876953125	0.7119140625	22.0625	55.875	15.8125
19	03	08	12	03	37	0.534675774759	0.467353014536	0.128969168044	-0.55419921875	0.36767578125	0.85791015625	52.6875	40.1875	33.4375
19	03	08	12	03	37	0.537258087172	0.475182255014	0.117010196899	-0.67236328125	0.41455078125	0.74658203125	63.625	22.875	57.875
19	03	08	12	03	37	0.542736035977	0.480723011623	0.106935845145	-0.67724609375	0.43505859375	0.72021484375	40.625	19.5625	67.0
19	03	08	12	03	37	0.546839778015	0.487938071822	0.0963790612217	-0.802734375	0.42529296875	0.69091796875	52.1875	20.25	71.0625
19	03	08	12	03	37	0.554688832815	0.493592494605	0.086853236036	-0.7685546875	0.5869140625	0.56884765625	24.1875	16.9375	81.4375
19	03	08	12	03	37	0.561517128623	0.496576452009	0.0844717071755	-0.88720703125	0.33740234375	0.4287109375	-2.8125	13.8125	68.6875
19	03	08	12	03	37	0.566901954537	0.499945511371	0.080811605061	-0.69482421875	0.2333984375	0.45361328125	12.8125	17.4375	64.5
19	03	08	12	03	37	0.570555899893	0.507994945958	0.0666503040954	-0.71435546875	1.03759765625	0.49609375	47.125	6.5625	54.9375
19	03	08	12	03	37	0.58539542924	0.506048744013	0.0595100139202	-0.63720703125	0.2236328125	0.35205078125	-26.5625	-4.6875	114.1875
19	03	08	12	03	37	0.584440423029	0.507654412359	0.0540798135565	-0.9111328125	0.56298828125	0.5615234375	29.625	-15.0625	18.375
19	03	08	12	03	37	0.589961937948	0.508541575314	0.0520626456724	-1.1669921875	0.373046875	0.56591796875	1.5	-0.125	71.0
19	03	08	12	03	37	0.590767659078	0.506232768302	0.0513312946879	-1.03076171875	0.6171875	0.63232421875	-4.375	-18.375	8.9375
19	03	08	12	03	37	0.597480010009	0.503484789311	0.0526129092479	-0.78759765625	0.63330078125	0.53173828125	-36.3125	3.6875	32.8125
19	03	08	12	03	37	0.594752015024	0.508688761619	0.0574975778072	-0.7041015625	0.52001953125	0.29931640625	1.4375	33.0	-14.25
19	03	08	12	03	37	0.593874246167	0.515993101448	0.0676272008995	-0.86572265625	0.34814453125	0.2783203125	-11.5625	65.125	5.9375
19	03	08	12	03	37	0.594754058015	0.519189041202	0.073062459713	-0.5859375	0.47216796875	0.578125	-5.6875	52.3125	0.1875
19	03	08	12	03	37	0.598521106874	0.519723355602	0.0746472887729	-0.56689453125	0.765625	0.61376953125	-18.0625	31.875	5.9375
19	03	08	12	03	37	0.607315313815	0.514844690656	0.0738544250971	-0.29736328125	0.578125	0.55322265625	-40.0625	8.0	28.375
19	03	08	12	03	37	0.611027352649	0.508792729166	0.0781865986158	-0.43359375	0.38232421875	0.58740234375	-37.5	4.8125	-8.625
19	03	08	12	03	37	0.613427060508	0.507526965983	0.0796539615884	-0.64599609375	0.63623046875	0.568359375	-17.375	10.8125	1.3125
19	03	08	12	03	37	0.619271334959	0.503180848157	0.0813609983737	-0.66845703125	0.53564453125	0.64599609375	-33.375	5.625	20.1875
19	03	08	12	03	38	0.626427557174	0.496539820482	0.0806915356702	-0.59326171875	0.46044921875	0.6865234375	-33.4375	-10.4375	29.25
19	03	08	12	03	38	0.634038489253	0.489017748931	0.076660795389	-0.50341796875	0.5400390625	0.6767578125	-30.125	-25.6875	31.4375
19	03	08	12	03	38	0.64473840792	0.479571113418	0.0737942568566	-0.3564453125	0.45654296875	0.72900390625	-46.0	-17.0	44.875
19	03	08	12	03	38	0.652906299281	0.472787902611	0.075990309676	-0.5009765625	0.41845703125	0.78466796875	-43.1875	9.1875	31.8125
19	03	08	12	03	38	0.655650329524	0.470161467913	0.0829481286374	-0.90869140625	0.57470703125	0.7734375	-35.375	22.1875	2.8125
19	03	08	12	03	38	0.664315672355	0.461798270584	0.0837413728841	-0.73876953125	0.80712890625	0.74658203125	-63.6875	-15.4375	24.9375
19	03	08	12	03	38	0.676074379552	0.446403178843	0.0879500930699	-0.60595703125	0.62158203125	0.7373046875	-104.625	-33.375	27.3125
19	03	08	12	03	38	0.683101390799	0.433041848438	0.0930170228357	-0.66650390625	0.2900390625	0.72021484375	-73.9375	-27.625	8.9375
19	03	08	12	03	38	0.685365471231	0.426941978027	0.0949709389292	-0.75048828125	0.35986328125	0.72802734375	-26.5625	-17.8125	2.6875
19	03	08	12	03	38	0.68306340901	0.423046420146	0.0991238473982	-0.89453125	0.2294921875	0.568359375	-12.5	-21.3125	-19.9375
19	03	08	12	03	38	0.679463029592	0.41987299502	0.100283664896	-0.9658203125	0.21484375	0.5322265625	3.0625	-38.125	-20.125
19	03	08	12	03	38	0.676336992553	0.418522042951	0.0954598913774	-0.6298828125	0.17724609375	0.5400390625	30.875	-38.3125	-8.25
19	03	08	12	03	38	0.670540593526	0.420110222578	0.0911876612715	-0.78369140625	0.12744140625	0.5380859375	49.3125	-33.625	-13.125
19	03	08	12	03	38	0.663105425669	0.423535396605	0.0850855084115	-0.85205078125	0.2890625	0.4287109375	56.5625	-42.3125	-20.5
19	03	08	12	03	38	0.658998859012	0.419190901519	0.0843508773877	-0.87158203125	0.34716796875	0.57470703125	2.125	-47.875	-31.0
19	03	08	12	03	38	0.657744260119	0.410357707942	0.0851478510455	-0.7890625	0.1875	0.7392578125	-15.9375	-48.25	-21.4375
19	03	08	12	03	38	0.656128887842	0.401978126077	0.0836182861715	-0.4541015625	0.14404296875	0.7548828125	-3.125	-40.4375	-26.625
19	03	08	12	03	38	0.652473908366	0.401616306553	0.0809336204391	-0.52490234375	0.3388671875	0.580078125	20.125	-18.9375	-22.75
19	03	08	12	03	38	0.650451789793	0.399536212441	0.0810547036544	-0.5673828125	0.5126953125	0.48828125	-11.875	-19.5	-26.875
19	03	08	12	03	38	0.652914453934	0.394544174089	0.0821560114981	-0.630859375	0.3798828125	0.68798828125	-26.25	-16.6875	4.3125
19	03	08	12	03	38	0.655154514401	0.38537782783	0.0831302821515	-0.17333984375	-0.02978515625	0.5478515625	-24.9375	-23.375	-4.125
19	03	08	12	03	38	0.647907054928	0.390209119374	0.0771506846376	-0.314453125	0.82275390625	0.29541015625	27.875	-14.5625	-56.5625
19	03	08	12	03	38	0.649188830543	0.389476676165	0.0762351306269	-0.66796875	0.87353515625	0.400390625	-33.4375	-20.125	-9.125
19	03	08	12	03	38	0.662930173618	0.378677727385	0.067080403352	-0.373046875	0.29150390625	1.0146484375	-24.6875	-43.0625	90.0625
19	03	08	12	03	38	0.664325481585	0.371531533113	0.0509047640244	-0.10302734375	0.337890625	1.1923828125	49.875	-56.25	12.25
19	03	08	12	03	38	0.654272335369	0.373678070448	0.0527373167048	-0.75732421875	0.54443359375	0.80419921875	21.625	-7.5	-73.3125
19	03	08	12	03	38	0.652207601159	0.372794687243	0.0707382191413	-1.37939453125	0.09375	0.748046875	-50.25	24.25	-14.8125
19	03	08	12	03	38	0.65358338144	0.374644639081	0.0749533425857	-0.791015625	0.48193359375	0.65380859375	-19.0	16.0625	9.625
19	03	08	12	03	38	0.658263384028	0.366332575887	0.0783690482237	-0.10791015625	0.2607421875	0.529296875	-53.125	-3.5625	0.1875
19	03	08	12	03	38	0.656372230472	0.365844815831	0.0816650589893	-0.55517578125	0.36767578125	0.5849609375	-12.75	4.0	-21.6875
19	03	08	12	03	38	0.653008822813	0.369076021268	0.084777012327	-0.83349609375	0.140625	0.63330078125	17.5625	7.375	-6.0625
19	03	08	12	03	38	0.650919415258	0.37419474308	0.0860568565883	-0.72607421875	0.38720703125	0.42041015625	10.0625	8.8125	-1.8125
19	03	08	12	03	38	0.650078558219	0.379695682159	0.082518656531	-0.50048828125	0.34912109375	0.6796875	35.875	16.125	12.9375
19	03	08	12	03	38	0.651132137085	0.383672348492	0.0772105505636	-0.4609375	0.4775390625	0.75537109375	29.0625	10.0	20.125
19	03	08	12	03	38	0.650412273426	0.390454890494	0.0720849188172	-0.51123046875	0.6689453125	0.6103515625	30.125	13.8125	8.5
19	03	08	12	03	38	0.650943474573	0.394655462409	0.0735477624811	-0.5556640625	0.30615234375	0.615234375	11.1875	27.8125	15.9375
19	03	08	12	03	38	0.651552763887	0.402284240447	0.0752566330559	-0.64453125	0.46533203125	0.55517578125	13.3125	40.25	21.875
19	03	08	12	03	38	0.657108175092	0.40545881545	0.0787968283525	-0.51220703125	0.22900390625	0.6865234375	-7.25	47.5	49.1875
19	03	08	12	03	38	0.665101210142	0.408325878302	0.0797730826517	-0.447265625	0.40234375	0.7412109375	-11.3125	46.1875	63.875
19	03	08	12	03	38	0.675429046722	0.413216577472	0.0759903454879	-0.265625	0.5791015625	0.72509765625	-1.625	49.875	85.75
19	03	08	12	03	38	0.686042790194	0.416569576786	0.072266429145	-0.17529296875	0.55322265625	0.6572265625	-8.3125	44.8125	83.9375
19	03	08	12	03	38	0.696742188174	0.419693323337	0.068178801944	-0.28466796875	0.52197265625	0.798828125	-0.875	44.1875	92.5625
19	03	08	12	03	38	0.707394603014	0.42236157488	0.0619504333097	-0.19287109375	0.69921875	0.93408203125	2.9375	42.875	87.9375
19	03	08	12	03	38	0.716561871793	0.420110337611	0.0646980906389	-0.53515625	0.59228515625	0.91064453125	-36.75	37.5	60.25
19	03	08	12	03	38	0.721512961946	0.421701468073	0.0695206212382	-0.82568359375	0.5341796875	0.7646484375	-18.5625	36.375	48.75
19	03	08	12	03	38	0.726747474893	0.422852650211	0.0725709874568	-0.70751953125	0.39453125	0.58544921875	-16.0	25.875	55.125
19	03	08	12	03	38	0.727674228794	0.429329015714	0.0718396718077	-0.548828125	0.4892578125	0.3798828125	17.4375	22.6875	35.4375
19	03	08	12	03	38	0.724036584917	0.436668161229	0.0758095969033	-0.916015625	0.498046875	0.2314453125	14.6875	14.5	4.3125
19	03	08	12	03	38	0.71633224546	0.445510315236	0.08319366484	-1.35107421875	0.4228515625	0.15380859375	22.625	5.75	-11.75
19	03	08	12	03	38	0.711979166341	0.451357559802	0.0870976656981	-1.1435546875	0.412109375	0.33740234375	19.875	2.75	4.9375
19	03	08	12	03	39	0.710089258657	0.456608023381	0.0877693273121	-0.76904296875	0.64111328125	0.3623046875	11.625	9.6875	6.4375
19	03	08	12	03	39	0.707691017082	0.459587180563	0.0908798554924	-0.60791015625	0.6650390625	0.25537109375	-7.1875	9.6875	-19.5
19	03	08	12	03	39	0.705028102569	0.46063951953	0.0957046199315	-0.64404296875	0.42822265625	0.1953125	-11.5625	2.875	-21.625
19	03	08	12	03	39	0.700133667025	0.466735432982	0.0950316554405	-0.697265625	0.41455078125	0.1484375	30.0625	-4.8125	-6.3125
19	03	08	12	03	39	0.694466682379	0.476263273212	0.0876475791788	-0.54931640625	0.49755859375	0.1640625	64.0	-11.6875	6.375
19	03	08	12	03	39	0.689387542916	0.485104222319	0.0776362066923	-0.5244140625	0.64208984375	0.25048828125	66.625	-18.75	8.9375
19	03	08	12	03	39	0.686978407902	0.48897237012	0.067141381492	-0.50537109375	0.68212890625	0.3818359375	46.0625	-33.0625	11.375
19	03	08	12	03	39	0.684479257128	0.492392916645	0.0548730918636	-0.51318359375	0.7685546875	0.337890625	45.5625	-45.125	11.5625
19	03	08	12	03	39	0.681105453006	0.496897526026	0.0416878774445	-0.580078125	0.681640625	0.41552734375	62.375	-43.625	20.3125
19	03	08	12	03	39	0.674525591356	0.507160721977	0.0258799068623	-0.65966796875	0.619140625	0.5419921875	108.1875	-28.0	29.625
19	03	08	12	03	39	0.665254145788	0.522791243112	0.00732457083169	-0.74462890625	0.6748046875	0.40576171875	143.25	-16.0	41.0625
19	03	08	12	03	39	0.659263441792	0.534381208489	-0.00927766347119	-0.7333984375	0.916015625	0.27587890625	109.4375	-18.0625	47.875
19	03	08	12	03	39	0.658581165141	0.539865653908	-0.0208743983761	-0.673828125	0.92724609375	0.3486328125	49.0	-18.375	51.5625
19	03	08	12	03	39	0.660052112585	0.541762765979	-0.0288704132839	-0.62109375	0.63330078125	0.373046875	28.375	-15.625	54.0625
19	03	08	12	03	39	0.660289324183	0.54480888405	-0.0372320657933	-0.646484375	0.60205078125	0.4677734375	44.0625	-11.6875	54.0625
19	03	08	12	03	39	0.659056694041	0.550658408376	-0.0467528642004	-0.6240234375	0.65380859375	0.47119140625	63.0625	-2.5625	56.375
19	03	08	12	03	39	0.658573279752	0.556643958419	-0.0558475024072	-0.53759765625	0.81689453125	0.50048828125	58.8125	7.625	53.25
19	03	08	12	03	39	0.659606492522	0.561095816207	-0.0626220284378	-0.462890625	0.904296875	0.4833984375	39.5	14.9375	46.0
19	03	08	12	03	39	0.662066833103	0.564163707787	-0.0664691418133	-0.3642578125	0.880859375	0.40576171875	18.1875	22.6875	38.0625
19	03	08	12	03	39	0.66572914026	0.566116968544	-0.0684833680546	-0.32861328125	0.9462890625	0.36865234375	2.125	27.1875	33.25
19	03	08	12	03	39	0.669570958321	0.568372357692	-0.0697647771523	-0.27978515625	0.99462890625	0.26611328125	-5.9375	31.0625	30.375
19	03	08	12	03	39	0.673484115896	0.569904041156	-0.0700706692993	-0.23291015625	0.98486328125	0.1923828125	-15.25	29.375	23.0625
19	03	08	12	03	39	0.678849987149	0.57069298506	-0.070924625523	-0.115234375	0.96533203125	0.2275390625	-18.375	34.3125	29.4375
19	03	08	12	03	39	0.684577282366	0.572332487228	-0.0733039689838	-0.037109375	0.966796875	0.23193359375	-10.8125	39.1875	39.6875
19	03	08	12	03	39	0.688351150902	0.575192520492	-0.07745323732	-0.0322265625	1.0205078125	0.22509765625	3.6875	32.0625	36.3125
19	03	08	12	03	39	0.692277702764	0.576369101323	-0.0817280765298	-0.04345703125	1.04052734375	0.23876953125	-2.875	21.6875	32.1875
19	03	08	12	03	39	0.697355352713	0.575096904443	-0.0864903750367	0.01318359375	1.01806640625	0.30712890625	-10.9375	13.3125	32.0
19	03	08	12	03	39	0.702047801467	0.573747985897	-0.0919217517831	-0.02099609375	1.00341796875	0.306640625	-8.375	8.0	35.5
19	03	08	12	03	39	0.704905871473	0.573067904343	-0.0967422119911	-0.13134765625	1.0615234375	0.2802734375	-4.9375	0.75	26.8125
19	03	08	12	03	39	0.707712962397	0.571724650174	-0.100709477185	-0.2197265625	1.09912109375	0.306640625	-9.3125	-2.875	25.6875
19	03	08	12	03	39	0.711675831422	0.568303058866	-0.102600949624	-0.251953125	0.99267578125	0.35888671875	-21.5625	-2.75	22.125
19	03	08	12	03	39	0.715038173725	0.564950348783	-0.102479649482	-0.3369140625	0.994140625	0.431640625	-21.0	-0.1875	13.875
19	03	08	12	03	39	0.718708652024	0.560318082852	-0.101260097979	-0.38916015625	1.01611328125	0.47216796875	-29.8125	-3.6875	8.6875
19	03	08	12	03	39	0.72394137154	0.553042135362	-0.100647443021	-0.2001953125	1.01171875	0.44287109375	-47.125	-9.875	2.0
19	03	08	12	03	39	0.728615249071	0.546293581234	-0.0985769981779	-0.18408203125	1.0673828125	0.38818359375	-53.375	-5.25	-8.5625
19	03	08	12	03	39	0.734950039448	0.53706713704	-0.0928987592426	-0.2451171875	0.97314453125	0.3818359375	-77.3125	-0.25	-12.6875
19	03	08	12	03	39	0.74196108525	0.527051165773	-0.0877706515786	-0.13525390625	0.849609375	0.40673828125	-77.375	1.875	-10.375
19	03	08	12	03	39	0.745610633745	0.520938667241	-0.0833746009901	-0.23974609375	0.85498046875	0.39697265625	-51.6875	0.6875	-14.75
19	03	08	12	03	39	0.748799878066	0.514540509626	-0.0775167790303	-0.39599609375	0.86572265625	0.42431640625	-55.0	-2.0625	-17.0625
19	03	08	12	03	39	0.754228795678	0.505809988653	-0.0728166183737	-0.21484375	0.849609375	0.4833984375	-65.875	0.0	-10.6875
19	03	08	12	03	39	0.757770494353	0.498486639338	-0.0679948715835	-0.1728515625	0.865234375	0.447265625	-59.4375	-0.6875	-25.8125
19	03	08	12	03	39	0.7588898772	0.491480840603	-0.060489010561	-0.451171875	0.85009765625	0.44189453125	-60.0625	-10.6875	-42.3125
19	03	08	12	03	39	0.762266507432	0.479857417042	-0.0523680569603	-0.46044921875	0.64453125	0.49462890625	-79.9375	-20.75	-36.4375
19	03	08	12	03	39	0.765952840646	0.470289794978	-0.0482192002638	-0.189453125	0.58251953125	0.53955078125	-57.375	-11.3125	-22.625
19	03	08	12	03	39	0.764471093308	0.467044535408	-0.0437015012222	-0.2958984375	0.63916015625	0.4697265625	-23.625	-6.3125	-43.625
19	03	08	12	03	39	0.762336319264	0.463139150566	-0.038025262362	-0.50634765625	0.72216796875	0.4853515625	-31.4375	-15.8125	-47.5
19	03	08	12	03	39	0.762154009905	0.455143945852	-0.030029612627	-0.6259765625	0.56689453125	0.5341796875	-53.625	-21.0	-42.375
19	03	08	12	03	39	0.763122793129	0.446838516236	-0.0231323313282	-0.4765625	0.51220703125	0.55126953125	-52.3125	-14.9375	-34.25
19	03	08	12	03	39	0.76314507783	0.441663423432	-0.0198370111409	-0.3115234375	0.70654296875	0.5927734375	-33.5	-9.3125	-33.75
19	03	08	12	03	39	0.763141630588	0.434947393391	-0.0143436201862	-0.36572265625	0.65185546875	0.6025390625	-44.75	-9.625	-41.625
19	03	08	12	03	40	0.762968429287	0.426957133029	-0.00787383419025	-0.45458984375	0.5302734375	0.58251953125	-49.5	-16.4375	-43.0625
19	03	08	12	03	40	0.762044702098	0.419383992641	-0.000488294562818	-0.58544921875	0.3427734375	0.59130859375	-41.25	-17.875	-39.25
19	03	08	12	03	40	0.760805670011	0.414307973368	0.00317383833458	-0.42236328125	0.43212890625	0.60009765625	-22.875	-15.0625	-33.3125
19	03	08	12	03	40	0.75909807994	0.409975219342	0.00640872383965	-0.5107421875	0.4716796875	0.6845703125	-16.5625	-16.1875	-31.1875
19	03	08	12	03	40	0.757507089998	0.40502917164	0.0123901328877	-0.68994140625	0.46240234375	0.65966796875	-28.9375	-15.4375	-30.75
19	03	08	12	03	40	0.75746293063	0.399178691887	0.016418817755	-0.47119140625	0.5224609375	0.70654296875	-32.75	-10.9375	-26.0
19	03	08	12	03	40	0.757798657327	0.392968808367	0.0204480507615	-0.46337890625	0.44873046875	0.7197265625	-31.8125	-10.5	-22.0
19	03	08	12	03	40	0.758211479341	0.387223766297	0.0242320042907	-0.49560546875	0.3193359375	0.73095703125	-23.625	-10.1875	-13.75
19	03	08	12	03	40	0.756541354509	0.38617484066	0.0246585483842	-0.357421875	0.37646484375	0.69677734375	7.25	-4.0625	-17.625
19	03	08	12	03	40	0.754045240739	0.386361208829	0.0260625965514	-0.49365234375	0.4091796875	0.69384765625	9.1875	-2.8125	-18.75
19	03	08	12	03	40	0.752635540491	0.385381623766	0.0289310880053	-0.568359375	0.380859375	0.6630859375	-2.6875	-2.75	-12.25
19	03	08	12	03	40	0.751180322983	0.385081389266	0.0300301226056	-0.4697265625	0.43212890625	0.65673828125	2.875	-2.875	-12.4375
19	03	08	12	03	40	0.750327586536	0.383556377922	0.0335703386151	-0.64892578125	0.3232421875	0.68994140625	-5.0625	-3.8125	-5.25
19	03	08	12	03	40	0.750240895794	0.382810844323	0.0354612724094	-0.61474609375	0.24951171875	0.697265625	5.0625	-2.875	7.9375
19	03	08	12	03	40	0.749166065577	0.385996920214	0.0314950048752	-0.28857421875	0.49169921875	0.6865234375	30.3125	2.125	3.4375
19	03	08	12	03	40	0.747888952151	0.388196664954	0.0294809731404	-0.38818359375	0.55322265625	0.70751953125	18.625	1.875	-3.1875
19	03	08	12	03	40	0.748293658285	0.387330469452	0.0297852614391	-0.548828125	0.4013671875	0.78271484375	4.875	-3.25	8.0
19	03	08	12	03	40	0.748289403003	0.388426897285	0.0277099012205	-0.39306640625	0.41552734375	0.76953125	20.4375	1.4375	9.625
19	03	08	12	03	40	0.747807998166	0.39038360727	0.0247804478661	-0.263671875	0.55517578125	0.76806640625	21.1875	6.875	0.625
19	03	08	12	03	40	0.747560713047	0.390992319381	0.0253296616521	-0.498046875	0.54541015625	0.7861328125	5.75	5.4375	0.4375
19	03	08	12	03	40	0.749257065144	0.389826073238	0.0256344059433	-0.41259765625	0.4794921875	0.77734375	-2.875	5.6875	11.6875
19	03	08	12	03	40	0.750013004861	0.389838302575	0.0245975944791	-0.25390625	0.5078125	0.7158203125	4.5	8.1875	2.6875
19	03	08	12	03	40	0.748961403489	0.391784145465	0.023254363518	-0.29345703125	0.626953125	0.6708984375	10.8125	7.4375	-8.8125
19	03	08	12	03	40	0.749410331559	0.3911851128	0.024109552123	-0.41455078125	0.54296875	0.67626953125	-6.0	3.5625	-0.6875
19	03	08	12	03	40	0.750437905789	0.390081224554	0.0250247695302	-0.43603515625	0.435546875	0.66552734375	-5.25	1.9375	7.0625
19	03	08	12	03	40	0.750016517086	0.391854332657	0.0254522206726	-0.47216796875	0.4462890625	0.65625	11.4375	6.875	5.375
19	03	08	12	03	40	0.75028845733	0.394127283516	0.023927194539	-0.35986328125	0.583984375	0.66650390625	11.75	8.625	8.75
19	03	08	12	03	40	0.751754492299	0.395865846964	0.0214839312567	-0.28076171875	0.68505859375	0.6416015625	3.75	8.6875	13.8125
19	03	08	12	03	40	0.753538744967	0.396422659044	0.0200805319208	-0.35693359375	0.6416015625	0.66748046875	-1.5625	5.9375	15.4375
19	03	08	12	03	40	0.755770006994	0.39705087187	0.0183723770074	-0.46044921875	0.58642578125	0.75	4.75	3.5625	27.125
19	03	08	12	03	40	0.757882602343	0.399907128175	0.013794110343	-0.296875	0.7119140625	0.72314453125	16.875	8.0	29.9375
19	03	08	12	03	40	0.759925274169	0.402363647175	0.0103764896874	-0.24169921875	0.7529296875	0.7041015625	9.4375	12.9375	22.625
19	03	08	12	03	40	0.762037941128	0.404670528608	0.00830093392017	-0.291015625	0.74658203125	0.64990234375	3.1875	14.4375	22.8125
19	03	08	12	03	40	0.764293295189	0.40704935199	0.00610360401844	-0.2548828125	0.79736328125	0.5546875	-2.4375	13.875	22.5625
19	03	08	12	03	40	0.766928904891	0.407543517545	0.00537124899565	-0.35205078125	0.79150390625	0.5693359375	-14.375	8.5	21.375
19	03	08	12	03	40	0.77148362776	0.406127536323	0.00476073757637	-0.4658203125	0.74951171875	0.62158203125	-23.3125	2.6875	39.1875
19	03	08	12	03	40	0.77670696114	0.405291490921	0.00280774225638	-0.376953125	0.7275390625	0.6435546875	-16.75	6.5625	49.0
19	03	08	12	03	40	0.779605669494	0.409242622247	0.000671389835155	-0.37109375	0.89111328125	0.5712890625	0.3125	18.1875	41.375
19	03	08	12	03	40	0.783408648668	0.411144577907	0.00158695947529	-0.46435546875	0.94091796875	0.51220703125	-23.5625	20.0625	39.1875
19	03	08	12	03	40	0.789077471233	0.408577087905	0.00518808671525	-0.5341796875	0.779296875	0.54052734375	-46.625	15.9375	42.9375
19	03	08	12	03	40	0.793752586624	0.40703852366	0.00799550856192	-0.57275390625	0.78466796875	0.54296875	-38.125	12.0625	41.375
19	03	08	12	03	40	0.799337064745	0.402171038455	0.011596979406	-0.4287109375	0.8115234375	0.46142578125	-62.8125	8.1875	28.9375
19	03	08	12	03	40	0.804878662228	0.39563384307	0.0161744783112	-0.4345703125	0.85693359375	0.41650390625	-77.75	3.75	19.125
19	03	08	12	03	40	0.811981171786	0.385817709303	0.020264432762	-0.36328125	0.81201171875	0.43994140625	-93.6875	-3.125	22.8125
19	03	08	12	03	40	0.819205191519	0.375939555515	0.0222792560096	-0.3505859375	0.59326171875	0.53662109375	-74.875	-9.125	35.375
19	03	08	12	03	40	0.823675567409	0.371584798399	0.0228883540406	-0.3896484375	0.66845703125	0.5087890625	-45.0625	-5.4375	31.25
19	03	08	12	03	40	0.827593266273	0.367561519986	0.0256963467144	-0.390625	0.578125	0.51318359375	-43.1875	4.5625	24.9375
19	03	08	12	03	40	0.831214921711	0.3633589682	0.0309462450659	-0.728515625	0.625	0.720703125	-43.5625	2.6875	29.4375
19	03	08	12	03	40	0.837801267082	0.361037046102	0.0331433839447	-0.78564453125	0.892578125	0.72509765625	-48.75	4.375	75.5
19	03	08	12	03	41	0.84603127865	0.35041234909	0.0388804505086	-0.41943359375	0.59130859375	0.7744140625	-83.75	15.0625	47.1875
19	03	08	12	03	41	0.854090091789	0.338083686016	0.0488905998373	-0.65771484375	0.45654296875	0.734375	-97.25	16.6875	46.9375
19	03	08	12	03	41	0.862344120014	0.323806310637	0.0575587843413	-0.505859375	0.23388671875	0.81591796875	-90.9375	14.4375	45.875
19	03	08	12	03	41	0.868191242066	0.311105930878	0.069704330599	-0.751953125	-0.0048828125	0.71875	-76.75	15.4375	35.6875
19	03	08	12	03	41	0.872604856196	0.302729249964	0.0793443598695	-0.4189453125	0.3330078125	0.54345703125	-73.625	27.5625	20.5
19	03	08	12	03	41	0.878398940998	0.291517847419	0.0889935137222	-0.36181640625	0.22119140625	0.59033203125	-84.0	28.0625	30.4375
19	03	08	12	03	41	0.882288682813	0.282295756348	0.0969876663431	-0.4375	0.1904296875	0.58349609375	-65.375	16.1875	19.125
19	03	08	12	03	41	0.883398142268	0.277172042012	0.104557522124	-0.431640625	0.3095703125	0.5234375	-46.5625	17.75	-4.25
19	03	08	12	03	41	0.885236988041	0.2733290514	0.109746680307	-0.2841796875	0.3076171875	0.53369140625	-38.0	20.25	8.5
19	03	08	12	03	41	0.885079554833	0.276369920991	0.111024047324	-0.205078125	0.41796875	0.57275390625	4.0625	20.625	5.8125
19	03	08	12	03	41	0.884145916085	0.282833920691	0.11102177422	-0.30908203125	0.58544921875	0.58740234375	16.1875	16.625	9.1875
19	03	08	12	03	41	0.884296976128	0.286017092086	0.111147487129	-0.2314453125	0.5986328125	0.5908203125	-2.5625	15.1875	7.4375
19	03	08	12	03	41	0.884651297693	0.28741706643	0.112427741848	-0.15576171875	0.44140625	0.57763671875	-5.3125	20.4375	4.0625
19	03	08	12	03	41	0.883863563044	0.292362852495	0.11267261497	-0.04638671875	0.3662109375	0.529296875	20.0	27.75	3.4375
19	03	08	12	03	41	0.881154101247	0.301164750315	0.112921521703	-0.06982421875	0.44189453125	0.4462890625	37.625	30.375	-6.8125
19	03	08	12	03	41	0.877217809462	0.310493111379	0.111757988389	-0.0419921875	0.4326171875	0.4580078125	48.8125	22.8125	-21.375
19	03	08	12	03	41	0.871761343382	0.321310160451	0.109626338938	-0.228515625	0.6279296875	0.763671875	63.25	16.25	-33.6875
19	03	08	12	03	41	0.868039660693	0.324339949158	0.111266790989	-0.3935546875	0.93017578125	0.98291015625	5.375	14.5	-52.375
19	03	08	12	03	41	0.868778530839	0.311891126359	0.123901954307	-0.44970703125	0.57763671875	0.85107421875	-90.5	29.4375	-58.875
19	03	08	12	03	41	0.874861540633	0.284377305366	0.140876329853	-0.9111328125	-0.35986328125	1.232421875	-168.8125	16.875	-37.25
19	03	08	12	03	41	0.888564518474	0.256901226697	0.131899156781	-2.390625	-2.3896484375	3.171875	-149.0625	-98.375	68.75
19	03	08	12	03	41	0.885937956602	0.254031951456	0.137208992521	-0.8203125	-1.22119140625	1.34423828125	-16.625	13.6875	-48.625
19	03	08	12	03	41	0.891261916954	0.245673826581	0.157902655743	0.18505859375	0.32861328125	0.40576171875	-108.375	112.3125	52.3125
19	03	08	12	03	41	0.896756136767	0.224250071228	0.1701712571	-1.47216796875	0.01904296875	0.94580078125	-142.0625	9.25	9.4375
19	03	08	12	03	41	0.90029050083	0.208501176328	0.177128341248	-0.74755859375	0.6298828125	0.19384765625	-110.25	-4.25	-3.9375
19	03	08	12	03	41	0.898732656159	0.19648332112	0.188182068659	-0.18115234375	-0.03662109375	0.12744140625	-72.1875	22.3125	-52.0625
19	03	08	12	03	41	0.894876210727	0.190987494943	0.198312039332	-0.455078125	-0.685546875	0.6298828125	13.5625	31.375	-33.1875
19	03	08	12	03	41	0.887482162413	0.212898059319	0.195441395051	-0.76171875	-0.28857421875	0.9150390625	143.0625	26.0625	-20.8125
19	03	08	12	03	41	0.880480087735	0.23914876837	0.188730983104	-0.35009765625	0.35791015625	0.703125	158.9375	23.75	-0.1875
19	03	08	12	03	41	0.874408369059	0.257940092674	0.183902863045	-0.25927734375	0.78564453125	0.58740234375	110.0625	17.1875	-12.6875
19	03	08	12	03	41	0.873455179067	0.258923610734	0.18299221711	-0.39208984375	0.29248046875	0.78662109375	11.5625	1.75	-11.5
19	03	08	12	03	41	0.872456260214	0.260320830405	0.181461624571	-0.6220703125	0.1171875	0.921875	28.1875	-8.75	0.8125
19	03	08	12	03	41	0.871308706228	0.26679442066	0.17584871332	-0.39111328125	0.24755859375	0.90576171875	54.0625	-3.875	9.0
19	03	08	12	03	41	0.868912905592	0.273869921845	0.172000320874	-0.3837890625	0.171875	0.90283203125	61.75	5.4375	-0.125
19	03	08	12	03	41	0.86641936436	0.281929626205	0.171147579969	-0.64111328125	0.23095703125	0.81787109375	54.25	9.0625	10.875
19	03	08	12	03	41	0.867166785003	0.287488953147	0.170173928105	-0.56689453125	0.35693359375	0.7939453125	24.25	12.5625	38.3125
19	03	08	12	03	41	0.869037252585	0.290838777115	0.168216509912	-0.3056640625	0.455078125	0.74853515625	7.25	15.6875	33.1875
19	03	08	12	03	41	0.870565672979	0.292060348118	0.167362481617	-0.33447265625	0.34814453125	0.78662109375	3.5625	13.75	24.0625
19	03	08	12	03	41	0.87084069442	0.298846011066	0.164560630277	-0.48876953125	0.412109375	0.8212890625	35.25	10.375	35.8125
19	03	08	12	03	41	0.871655576219	0.306522953839	0.158144359497	-0.2939453125	0.5234375	0.8544921875	42.0	6.25	39.1875
19	03	08	12	03	41	0.871404121393	0.314577070929	0.153260191134	-0.36181640625	0.5224609375	0.81640625	43.8125	8.0625	30.6875
19	03	08	12	03	41	0.871241957757	0.321848034416	0.149906840987	-0.400390625	0.55859375	0.810546875	35.625	12.75	30.625
19	03	08	12	03	41	0.871472184046	0.328800998421	0.147279897752	-0.4677734375	0.60205078125	0.8046875	29.4375	14.3125	37.5625
19	03	08	12	03	41	0.872761618477	0.333198522642	0.145572170086	-0.466796875	0.685546875	0.7900390625	8.5	14.0625	38.0625
19	03	08	12	03	41	0.875007542879	0.334353468184	0.145386995476	-0.4365234375	0.63818359375	0.7509765625	-11.25	15.0	35.3125
19	03	08	12	03	41	0.876895552963	0.33461933881	0.146983467321	-0.56689453125	0.47265625	0.7431640625	-8.8125	14.25	36.3125
19	03	08	12	03	41	0.878299548273	0.335999931427	0.147949833566	-0.51416015625	0.40234375	0.73876953125	2.6875	15.4375	36.5
19	03	08	12	03	41	0.878947877619	0.337723514366	0.149299063101	-0.52685546875	0.43505859375	0.6923828125	3.4375	13.5	26.875
19	03	08	12	03	41	0.880026577591	0.338021028346	0.152408542394	-0.64208984375	0.36865234375	0.64794921875	-5.875	13.8125	31.9375
19	03	08	12	03	41	0.881419665079	0.337589652209	0.154848119265	-0.59033203125	0.29931640625	0.62744140625	-6.25	10.75	33.4375
19	03	08	12	03	41	0.883152357986	0.337537669477	0.155889911003	-0.55615234375	0.31591796875	0.65087890625	-3.375	7.9375	39.5
19	03	08	12	03	42	0.884732351517	0.337779153729	0.157048384992	-0.54443359375	0.2568359375	0.64501953125	1.0	9.625	40.9375
19	03	08	12	03	42	0.885038446911	0.341319654836	0.157903066356	-0.56884765625	0.3525390625	0.6376953125	16.125	13.3125	40.5
19	03	08	12	03	42	0.886080749294	0.343579840034	0.158880498065	-0.5966796875	0.31884765625	0.703125	11.875	14.0	47.875
19	03	08	12	03	42	0.885936306372	0.349186469773	0.158937522686	-0.55126953125	0.4169921875	0.708984375	28.25	18.4375	46.9375
19	03	08	12	03	42	0.885644754932	0.354379975681	0.158756857862	-0.51318359375	0.51220703125	0.69921875	23.625	16.8125	38.125
19	03	08	12	03	42	0.885653259432	0.357435250671	0.160467430672	-0.64697265625	0.50146484375	0.7216796875	11.875	15.75	35.625
19	03	08	12	03	42	0.885470633696	0.361708070261	0.161077893591	-0.5654296875	0.6005859375	0.7060546875	14.4375	17.1875	35.4375
19	03	08	12	03	42	0.886013532563	0.363658626826	0.161992278549	-0.47900390625	0.529296875	0.705078125	5.0	18.125	30.8125
19	03	08	12	03	42	0.884561395671	0.369035205508	0.163703675351	-0.54052734375	0.505859375	0.70703125	28.9375	23.1875	25.625
19	03	08	12	03	42	0.882337964945	0.376836925538	0.164065056016	-0.455078125	0.5048828125	0.7421875	46.9375	26.75	28.0625
19	03	08	12	03	42	0.879327079191	0.386498616232	0.163401262737	-0.375	0.630859375	0.67041015625	52.0625	25.4375	22.5625
19	03	08	12	03	42	0.876814895979	0.392293027251	0.165841007475	-0.59521484375	0.64111328125	0.6396484375	28.4375	20.9375	11.75
19	03	08	12	03	42	0.874674683153	0.396991216973	0.169197363692	-0.61083984375	0.56689453125	0.619140625	24.0625	24.0625	14.0625
19	03	08	12	03	42	0.872161468538	0.402418683048	0.172796495026	-0.60009765625	0.4541015625	0.60888671875	32.75	27.625	18.4375
19	03	08	12	03	42	0.86758067908	0.412488407853	0.175908788315	-0.517578125	0.546875	0.478515625	52.6875	34.1875	16.9375
19	03	08	12	03	42	0.863732977977	0.419872740831	0.179997777687	-0.642578125	0.6904296875	0.43603515625	30.0	27.25	9.4375
19	03	08	12	03	42	0.863196551263	0.420977698632	0.184090001316	-0.63525390625	0.60400390625	0.42626953125	-6.9375	19.625	16.0
19	03	08	12	03	42	0.863659453813	0.421758786279	0.185549451561	-0.39306640625	0.5224609375	0.4521484375	-4.375	19.0625	21.875
19	03	08	12	03	42	0.863493922875	0.423720563554	0.186041526608	-0.3837890625	0.5458984375	0.47607421875	5.25	15.1875	18.1875
19	03	08	12	03	42	0.863194563821	0.425310403105	0.187385611012	-0.53955078125	0.53466796875	0.45263671875	3.0	11.0	21.5
19	03	08	12	03	42	0.863881895176	0.425928627467	0.187572180024	-0.47607421875	0.5751953125	0.48095703125	-4.0625	9.3125	25.9375
19	03	08	12	03	42	0.864836739071	0.426711387031	0.186590861129	-0.37890625	0.6572265625	0.45361328125	-7.75	8.0625	25.0625
19	03	08	12	03	42	0.866360788495	0.425794903518	0.185858010495	-0.4189453125	0.6962890625	0.4951171875	-16.4375	3.9375	20.0625
19	03	08	12	03	42	0.867805951454	0.425663152725	0.184694106703	-0.41259765625	0.74951171875	0.45361328125	-17.5625	4.5625	25.75
19	03	08	12	03	42	0.86997649692	0.424031903747	0.183602701378	-0.33349609375	0.81591796875	0.40771484375	-31.75	4.0	20.375
19	03	08	12	03	42	0.873262110844	0.41883865273	0.184271916729	-0.43798828125	0.71826171875	0.3720703125	-51.25	0.5	17.0
19	03	08	12	03	42	0.877036648693	0.411265428276	0.186894440692	-0.578125	0.53466796875	0.37353515625	-58.5625	-0.5625	18.3125
19	03	08	12	03	42	0.872009137206	0.426848655781	0.179211733644	0.00341796875	1.66357421875	0.18896484375	34.375	-1.75	-0.3125
19	03	08	12	03	42	0.874075194446	0.423303873847	0.169748820933	1.294921875	1.98095703125	0.3818359375	-5.625	-72.875	-20.0
19	03	08	12	03	42	0.887343776953	0.40869816553	0.151735907931	-0.40185546875	-0.2265625	0.70068359375	-94.3125	-75.125	134.0
19	03	08	12	03	42	0.884714366941	0.415104685034	0.151918182775	-2.328125	-0.75	0.53515625	36.5	14.0625	14.25
19	03	08	12	03	42	0.880104439606	0.415667607582	0.151617964351	-0.5078125	0.76025390625	1.20458984375	41.5	-51.5	-124.625
19	03	08	12	03	42	0.885724003363	0.414326685606	0.140204536953	-0.09716796875	1.7939453125	0.79296875	-64.0	-7.6875	71.75
19	03	08	12	03	42	0.892120883271	0.408949775446	0.137944252613	-0.04345703125	0.74609375	0.60791015625	-58.8125	33.5	113.3125
19	03	08	12	03	42	0.899134497644	0.388499835551	0.143009444571	-0.74609375	0.6494140625	1.06982421875	-113.5	-16.625	-61.1875
19	03	08	12	03	42	0.907502245691	0.368054784875	0.147343988505	-1.08154296875	0.79345703125	0.75830078125	-131.375	-1.8125	3.875
19	03	08	12	03	42	0.911574491196	0.360174159528	0.148989175294	-0.2265625	0.9658203125	0.6181640625	-78.375	20.25	19.25
19	03	08	12	03	42	0.914961970141	0.353899233014	0.149909713053	0.12255859375	0.7333984375	0.30419921875	-70.1875	26.5625	12.4375
19	03	08	12	03	42	0.91758434606	0.343399822453	0.15668456172	-0.58056640625	0.24169921875	0.31640625	-62.6875	1.6875	-12.375
19	03	08	12	03	42	0.919515217871	0.335517766521	0.163272698825	-0.90625	0.71044921875	0.2431640625	-77.5625	-9.5	5.6875
19	03	08	12	03	42	0.927200529597	0.317266035998	0.161928971432	-0.1103515625	0.23681640625	0.451171875	-116.0	-10.875	30.9375
19	03	08	12	03	42	0.930451925883	0.307261545191	0.162175988393	-0.32763671875	0.18505859375	0.75537109375	-40.25	-6.8125	-2.875
19	03	08	12	03	42	0.930024821011	0.309397901011	0.162298090114	-0.49755859375	0.55908203125	0.71533203125	7.3125	-1.0625	18.6875
19	03	08	12	03	42	0.932178950032	0.305741511309	0.159371348778	-0.31298828125	0.68505859375	0.82958984375	-30.6875	-9.1875	16.5
19	03	08	12	03	42	0.936898817291	0.293032652887	0.158753995034	-0.42431640625	0.40771484375	1.0361328125	-64.6875	-4.125	22.625
19	03	08	12	03	42	0.939351335427	0.284124786641	0.161868729146	-0.56298828125	0.36572265625	1.02490234375	-39.75	7.875	10.6875
19	03	08	12	03	42	0.941823655823	0.275100402903	0.166940226745	-0.623046875	0.47607421875	0.89208984375	-57.5	18.0625	27.8125
19	03	08	12	03	42	0.94491803535	0.263070649981	0.172552372969	-0.58251953125	0.35791015625	0.8056640625	-73.125	19.75	27.75
19	03	08	12	03	43	0.947542055654	0.251107189961	0.178839102233	-0.5341796875	0.3662109375	0.66748046875	-77.875	21.6875	19.0625
19	03	08	12	03	43	0.95088957061	0.235235150211	0.185002008378	-0.60693359375	0.05517578125	0.62890625	-84.0625	12.875	22.0
19	03	08	12	03	43	0.952616576986	0.22461901732	0.191109278051	-0.6376953125	-0.0263671875	0.5732421875	-50.0	11.9375	24.875
19	03	08	12	03	43	0.953528894898	0.21820930734	0.195747482137	-0.482421875	0.0126953125	0.57080078125	-28.75	16.25	26.25
19	03	08	12	03	43	0.954342308424	0.213086600493	0.199291822002	-0.51904296875	-0.037109375	0.70556640625	-15.8125	13.4375	35.5
19	03	08	12	03	43	0.9546641586	0.211611830309	0.201235709412	-0.501953125	0.15478515625	0.80615234375	-3.5	11.3125	39.1875
19	03	08	12	03	43	0.954996785201	0.211251685644	0.201973946199	-0.3994140625	0.23095703125	0.89111328125	-0.625	14.625	42.5
19	03	08	12	03	43	0.955148671288	0.211916172708	0.202455629284	-0.39111328125	0.38720703125	0.9248046875	-3.5625	16.0625	44.8125
19	03	08	12	03	43	0.955796586051	0.210093355207	0.202707737549	-0.43505859375	0.32080078125	0.9521484375	-12.125	10.875	40.8125
19	03	08	12	03	43	0.9559537692	0.209416254765	0.203617786621	-0.4375	0.37255859375	0.81689453125	-10.5	9.5625	32.875
19	03	08	12	03	43	0.956098091885	0.208139331801	0.204965359586	-0.41259765625	0.38037109375	0.76025390625	-15.3125	11.25	28.0625
19	03	08	12	03	43	0.956257532081	0.206303086643	0.20666930514	-0.4853515625	0.25146484375	0.78076171875	-10.9375	9.8125	34.8125
19	03	08	12	03	43	0.954915600731	0.20703571222	0.212773140566	-0.44970703125	0.35107421875	0.8330078125	-4.625	17.875	33.0625
19	03	08	12	03	43	0.954801806897	0.205633656424	0.214484021571	-0.41748046875	0.29296875	0.86376953125	-10.375	19.5625	43.5
19	03	08	12	03	43	0.954598609717	0.204225508191	0.216249544388	-0.35009765625	0.275390625	0.7734375	-12.0625	21.5625	43.875
19	03	08	12	03	43	0.954441565743	0.201667515074	0.218513832919	-0.40283203125	0.16845703125	0.751953125	-13.0	21.3125	47.0625
19	03	08	12	03	43	0.954291527088	0.199171885179	0.22010843333	-0.45751953125	0.16357421875	0.81884765625	-12.125	17.4375	56.6875
19	03	08	12	03	43	0.953472691945	0.199715936755	0.221201269804	-0.3408203125	0.33349609375	0.7802734375	-6.8125	21.625	58.6875
19	03	08	12	03	43	0.952518939967	0.199842807398	0.222183206759	-0.31640625	0.42431640625	0.71875	-18.125	23.0625	66.1875
19	03	08	12	03	43	0.950786710052	0.201791157696	0.224802430065	-0.49658203125	0.46826171875	0.65478515625	-7.75	17.9375	59.0
19	03	08	12	03	43	0.948701508664	0.205451282131	0.22705845797	-0.484375	0.49609375	0.6474609375	1.5625	15.125	57.0
19	03	08	12	03	43	0.947003458371	0.208688677033	0.227549396894	-0.43798828125	0.44873046875	0.84521484375	7.375	13.4375	59.1875
19	03	08	12	03	43	0.944815850532	0.214123264014	0.227368631257	-0.3330078125	0.55517578125	0.90380859375	15.75	17.3125	59.25
19	03	08	12	03	43	0.942561883739	0.217481413791	0.228956717129	-0.36572265625	0.52587890625	0.84716796875	6.125	24.1875	55.625
19	03	08	12	03	43	0.940570288356	0.217472546231	0.231999199613	-0.521484375	0.38818359375	0.86474609375	-2.5	25.9375	59.5625
19	03	08	12	03	43	0.937325680722	0.220536447281	0.235918452461	-0.4443359375	0.3974609375	0.76806640625	11.25	34.0625	68.25
19	03	08	12	03	43	0.933685091623	0.223884220179	0.24134084149	-0.45849609375	0.43017578125	0.6767578125	12.5625	37.4375	58.25
19	03	08	12	03	43	0.930783066342	0.224379208595	0.246475311292	-0.60888671875	0.41650390625	0.7177734375	0.0	29.4375	55.3125
19	03	08	12	03	43	0.927915569803	0.224257453194	0.25148086749	-0.59375	0.517578125	0.66552734375	-10.875	29.0	52.125
19	03	08	12	03	43	0.927002256719	0.21803200507	0.254777600549	-0.6083984375	0.30322265625	0.74462890625	-31.875	23.0625	45.1875
19	03	08	12	03	43	0.926180154737	0.213325401397	0.256478780164	-0.4697265625	0.22314453125	0.7666015625	-19.625	20.6875	42.8125
19	03	08	12	03	43	0.924780126066	0.210335444157	0.259165495035	-0.42919921875	0.32666015625	0.6982421875	-15.8125	24.125	35.75
19	03	08	12	03	43	0.924052410659	0.20404962077	0.261242110947	-0.53271484375	0.3623046875	0.70947265625	-37.5625	19.0625	37.125
19	03	08	12	03	43	0.92360254019	0.19672026084	0.262090226512	-0.54736328125	0.3544921875	0.71826171875	-46.1875	13.6875	41.5625
19	03	08	12	03	43	0.922336127097	0.19202365534	0.263498448857	-0.48388671875	0.4140625	0.6962890625	-34.75	17.0	41.375
19	03	08	12	03	43	0.920828456861	0.188670340724	0.26472444766	-0.4453125	0.4599609375	0.72509765625	-28.5625	17.875	39.25
19	03	08	12	03	43	0.918853370177	0.187384073764	0.266183044197	-0.49951171875	0.56982421875	0.76220703125	-21.0625	14.375	39.3125
19	03	08	12	03	43	0.917003621036	0.186171939304	0.267110952916	-0.4365234375	0.60205078125	0.7197265625	-24.75	13.5625	35.5
19	03	08	12	03	43	0.914943213608	0.184758712981	0.26825719972	-0.4091796875	0.5107421875	0.70068359375	-20.8125	16.4375	39.5
19	03	08	12	03	43	0.91270363485	0.183785905473	0.270215942719	-0.5498046875	0.46337890625	0.755859375	-11.6875	13.5625	41.4375
19	03	08	12	03	43	0.909966734011	0.184459315145	0.27217210001	-0.46044921875	0.6103515625	0.72216796875	-12.125	16.0625	39.3125
19	03	08	12	03	43	0.908074319127	0.182811224426	0.272355153051	-0.35302734375	0.56591796875	0.7431640625	-24.5625	15.6875	35.9375
19	03	08	12	03	43	0.905855536807	0.181342011984	0.273508433423	-0.4501953125	0.5615234375	0.71826171875	-22.375	14.6875	38.0
19	03	08	12	03	43	0.903583793328	0.180057564869	0.275091337242	-0.4677734375	0.58251953125	0.67041015625	-22.3125	13.8125	34.5
19	03	08	12	03	43	0.901894668616	0.177558986938	0.275341557263	-0.421875	0.4814453125	0.708984375	-24.3125	11.3125	34.5
19	03	08	12	03	43	0.900739930276	0.17548467165	0.275159965148	-0.404296875	0.4443359375	0.765625	-17.25	8.5	26.25
19	03	08	12	03	43	0.899183464893	0.174380067825	0.27563891715	-0.3857421875	0.44580078125	0.7607421875	-10.6875	11.4375	27.125
19	03	08	12	03	43	0.898251318242	0.17115362166	0.275408395482	-0.44384765625	0.43701171875	0.82861328125	-20.75	8.9375	24.5
19	03	08	12	03	43	0.897127424203	0.166998274093	0.276194148491	-0.57080078125	0.43017578125	0.81298828125	-24.0	8.6875	27.125
19	03	08	12	03	44	0.896511023372	0.162114193769	0.276070217777	-0.4228515625	0.42138671875	0.7724609375	-30.6875	10.9375	18.875
19	03	08	12	03	44	0.89687250556	0.152896803214	0.274970099194	-0.47509765625	0.22412109375	0.78759765625	-44.6875	9.5625	18.25
19	03	08	12	03	44	0.896253854687	0.14570305463	0.275657727151	-0.60009765625	0.22607421875	0.76513671875	-31.8125	9.1875	24.75
19	03	08	12	03	44	0.895248399917	0.138801040527	0.275160549998	-0.46240234375	0.22265625	0.74462890625	-36.125	11.5	31.5
19	03	08	12	03	44	0.893720876379	0.133917743667	0.274976953155	-0.40869140625	0.2861328125	0.72900390625	-28.875	13.1875	32.0625
19	03	08	12	03	44	0.891931381451	0.129581216918	0.275520307662	-0.47216796875	0.37060546875	0.69287109375	-30.5	10.8125	30.375
19	03	08	12	03	44	0.889550548563	0.126712428902	0.276924031757	-0.57958984375	0.45947265625	0.7197265625	-25.5625	8.5	34.625
19	03	08	12	03	44	0.887798202601	0.121404649362	0.276502293419	-0.533203125	0.36181640625	0.76513671875	-36.0625	7.1875	34.6875
19	03	08	12	03	44	0.885468463037	0.118595521037	0.27668219087	-0.47412109375	0.29638671875	0.8232421875	-16.6875	11.125	39.3125
19	03	08	12	03	44	0.882149784182	0.118966920106	0.279135826395	-0.53662109375	0.35595703125	0.81591796875	2.6875	13.6875	42.4375
19	03	08	12	03	44	0.878197349177	0.119754183979	0.281806864133	-0.43896484375	0.4814453125	0.7373046875	-5.4375	19.0625	43.125
19	03	08	12	03	44	0.875783126576	0.114813776212	0.282120825971	-0.56396484375	0.271484375	0.8193359375	-25.4375	12.0625	41.0625
19	03	08	12	03	44	0.872521361564	0.113040193188	0.284370550789	-0.52392578125	0.3232421875	0.72314453125	-9.8125	15.4375	40.5625
19	03	08	12	03	44	0.869469530213	0.111270126611	0.285591290408	-0.42578125	0.25537109375	0.7412109375	-7.625	16.4375	40.5
19	03	08	12	03	44	0.866535165708	0.109316368372	0.287420870277	-0.57177734375	0.169921875	0.7822265625	-0.125	11.875	42.375
19	03	08	12	03	44	0.863888931107	0.107368093677	0.288105402022	-0.5234375	0.14111328125	0.8388671875	0.375	10.375	42.4375
19	03	08	12	03	44	0.860567127937	0.107548001945	0.289561703308	-0.35400390625	0.31689453125	0.80810546875	2.1875	19.3125	37.9375
19	03	08	12	03	44	0.85686463314	0.106512949482	0.291521975201	-0.54638671875	0.37841796875	0.88525390625	-4.625	17.125	43.625
19	03	08	12	03	44	0.854057024887	0.104071414196	0.291522037654	-0.5	0.31005859375	0.88525390625	-12.3125	11.375	40.0625
19	03	08	12	03	44	0.851197719326	0.100532279938	0.291769458471	-0.45751953125	0.24169921875	0.84521484375	-14.6875	16.6875	38.8125
19	03	08	12	03	44	0.848224192531	0.0988791244082	0.293158292921	-0.38232421875	0.294921875	0.82080078125	-4.5	21.25	32.3125
19	03	08	12	03	44	0.844300102085	0.0991893916923	0.296225303312	-0.42626953125	0.41162109375	0.78515625	2.0625	22.4375	36.1875
19	03	08	12	03	44	0.840993388696	0.097295940019	0.297503395014	-0.48193359375	0.39794921875	0.8134765625	-12.375	16.375	35.6875
19	03	08	12	03	44	0.838458517075	0.0952169532384	0.29834645348	-0.36474609375	0.3896484375	0.771484375	-13.375	18.1875	24.4375
19	03	08	12	03	44	0.836390606057	0.0921659355723	0.298593216437	-0.44677734375	0.27099609375	0.85107421875	-10.3125	14.5625	26.0
19	03	08	12	03	44	0.833345919443	0.0918005026619	0.300915211518	-0.525390625	0.3564453125	0.8515625	4.3125	14.6875	31.125
19	03	08	12	03	44	0.830835455092	0.0919827380858	0.302621377193	-0.29638671875	0.349609375	0.7880859375	4.75	20.5625	20.6875
19	03	08	12	03	44	0.829281398817	0.089239614682	0.304708725371	-0.474609375	0.2666015625	0.7998046875	-0.9375	18.0	14.1875
19	03	08	12	03	44	0.827500827426	0.0866748672232	0.306413967226	-0.5615234375	0.240234375	0.81103515625	-0.4375	12.375	20.8125
19	03	08	12	03	44	0.825982339509	0.0842340842834	0.307027133294	-0.390625	0.212890625	0.80224609375	-2.1875	15.4375	17.8125
19	03	08	12	03	44	0.824631559764	0.0822190015546	0.308428073389	-0.478515625	0.20703125	0.84521484375	5.4375	14.1875	16.0
19	03	08	12	03	44	0.823017238589	0.0815448702725	0.309882714352	-0.40185546875	0.33349609375	0.794921875	2.8125	14.4375	13.5
19	03	08	12	03	44	0.82119493377	0.0795925519278	0.311045739742	-0.47705078125	0.326171875	0.7890625	-4.75	12.6875	18.0625
19	03	08	12	03	44	0.819071988613	0.0788613912578	0.312820921204	-0.419921875	0.45361328125	0.71826171875	-6.0625	13.9375	14.6875
19	03	08	12	03	44	0.816932914406	0.0775182905929	0.313735443817	-0.39697265625	0.44921875	0.736328125	-12.0	13.875	16.4375
19	03	08	12	03	44	0.813294864585	0.077276440901	0.314904548664	-0.396484375	0.46044921875	0.7197265625	-9.8125	15.375	32.0625
19	03	08	12	03	44	0.808570712637	0.0778234814382	0.31544451143	-0.32080078125	0.40185546875	0.7421875	-7.0625	17.5625	46.125
19	03	08	12	03	44	0.801947933227	0.0802680417258	0.318386392123	-0.3662109375	0.3779296875	0.7275390625	9.4375	24.25	61.0
19	03	08	12	03	44	0.793181528441	0.088443250074	0.322827018386	-0.23388671875	0.6181640625	0.71826171875	26.25	25.9375	71.9375
19	03	08	12	03	44	0.78521493955	0.0962596361684	0.327111851761	-0.3056640625	0.76171875	0.69677734375	19.5625	19.0625	60.6875
19	03	08	12	03	44	0.779126775623	0.1001603634	0.328496694587	-0.4091796875	0.68701171875	0.7509765625	0.4375	9.75	53.125
19	03	08	12	03	44	0.773390266892	0.103090218671	0.327886710894	-0.34912109375	0.63623046875	0.8310546875	-5.5	8.4375	54.5625
19	03	08	12	03	44	0.768058072638	0.107185089053	0.328086477027	-0.23193359375	0.744140625	0.8095703125	-1.25	12.125	41.875
19	03	08	12	03	44	0.762895939154	0.107607451854	0.328620828579	-0.37353515625	0.70556640625	0.81591796875	-14.0625	16.9375	41.125
19	03	08	12	03	44	0.756450332686	0.105657671741	0.328570333321	-0.3583984375	0.69287109375	0.7314453125	-32.625	24.0	52.0
19	03	08	12	03	44	0.750210547641	0.101627252609	0.32813700302	-0.3955078125	0.732421875	0.7216796875	-45.4375	26.0625	48.1875
19	03	08	12	03	44	0.743963195477	0.0938804885661	0.326689450459	-0.46728515625	0.58251953125	0.64892578125	-61.6875	28.5625	52.625
19	03	08	12	03	44	0.738205084586	0.0869194675418	0.326436314897	-0.4765625	0.50244140625	0.548828125	-51.125	26.25	46.1875
19	03	08	12	03	44	0.73301213368	0.0810592150493	0.32680047995	-0.49951171875	0.4580078125	0.56396484375	-39.25	22.375	42.0625
19	03	08	12	03	44	0.727954394679	0.0779471542852	0.328086103589	-0.474609375	0.4912109375	0.55517578125	-24.125	17.3125	39.0
19	03	08	12	03	45	0.7238812895	0.075141063106	0.328581919334	-0.54638671875	0.40283203125	0.615234375	-17.75	8.625	37.9375
19	03	08	12	03	45	0.721054677102	0.0750780710095	0.329794160703	-0.43603515625	0.36962890625	0.64892578125	3.1875	5.5625	25.8125
19	03	08	12	03	45	0.718485549344	0.0774580037479	0.332050071228	-0.36962890625	0.46875	0.7685546875	18.0625	7.25	19.375
19	03	08	12	03	45	0.715375113281	0.0796556760095	0.33510318873	-0.4697265625	0.56591796875	0.8193359375	17.4375	8.5625	22.875
19	03	08	12	03	45	0.713174032591	0.0784955328579	0.334857304244	-0.50830078125	0.50244140625	0.8935546875	-4.3125	5.5625	22.375
19	03	08	12	03	45	0.710593963749	0.0759301572671	0.33448332944	-0.39599609375	0.44677734375	0.8291015625	-11.125	14.75	20.875
19	03	08	12	03	45	0.708469377646	0.0727574307017	0.334733011718	-0.384765625	0.4453125	0.77978515625	-12.125	17.75	14.3125
19	03	08	12	03	45	0.706468171077	0.0676925178611	0.334250881702	-0.53564453125	0.4140625	0.79345703125	-21.0625	13.8125	17.875
19	03	08	12	03	45	0.704798073817	0.0625022280756	0.334057318611	-0.50146484375	0.4296875	0.73291015625	-23.25	15.3125	12.375
19	03	08	12	03	45	0.704069805677	0.0568871312432	0.334425527985	-0.513671875	0.38134765625	0.70703125	-19.25	15.1875	3.625
19	03	08	12	03	45	0.704016631434	0.0509670441518	0.33479549362	-0.57177734375	0.296875	0.69970703125	-15.375	11.9375	1.1875
19	03	08	12	03	45	0.704868251092	0.0457785926844	0.333756459731	-0.46826171875	0.31005859375	0.72265625	-17.3125	8.3125	-5.625
19	03	08	12	03	45	0.706170508904	0.0397980094913	0.331385572896	-0.51708984375	0.31982421875	0.78515625	-25.0	4.0625	-7.125
19	03	08	12	03	45	0.707251542847	0.0346087533265	0.327714985203	-0.4091796875	0.37353515625	0.77685546875	-31.5625	2.5	-6.75
19	03	08	12	03	45	0.708593381054	0.0291762973679	0.32380807016	-0.4384765625	0.31787109375	0.7861328125	-30.8125	0.3125	-6.5625
19	03	08	12	03	45	0.709098059121	0.0247210737664	0.321740197093	-0.4658203125	0.32861328125	0.78857421875	-21.0625	4.625	-2.5
19	03	08	12	03	45	0.707605601286	0.0208747619805	0.321056280752	-0.52490234375	0.38037109375	0.8154296875	-18.25	9.4375	11.6875
19	03	08	12	03	45	0.704633510073	0.0182506427159	0.321003779407	-0.42333984375	0.46484375	0.83203125	-17.4375	16.5	18.625
19	03	08	12	03	45	0.700902520034	0.0155647603073	0.321000291985	-0.4111328125	0.521484375	0.81640625	-22.625	18.5625	22.125
19	03	08	12	03	45	0.696379460905	0.0131231119375	0.321241572683	-0.41943359375	0.521484375	0.78564453125	-22.9375	19.0625	28.25
19	03	08	12	03	45	0.69198447752	0.0101932969697	0.321546637345	-0.435546875	0.4404296875	0.7548828125	-20.4375	19.0625	29.125
19	03	08	12	03	45	0.688740099237	0.00671405626693	0.320992926434	-0.43994140625	0.318359375	0.75732421875	-18.0	15.4375	24.1875
19	03	08	12	03	45	0.685884545	0.00329605459019	0.320815980112	-0.4765625	0.25146484375	0.759765625	-11.125	14.0	23.0625
19	03	08	12	03	45	0.684065489053	0.000122078252709	0.320211256855	-0.517578125	0.23779296875	0.79248046875	-8.5625	8.3125	17.5
19	03	08	12	03	45	0.683137798482	-0.00341813051421	0.318313404135	-0.45849609375	0.27197265625	0.791015625	-16.5	6.375	9.125
19	03	08	12	03	45	0.682381795466	-0.00909435487696	0.315311659694	-0.5849609375	0.19140625	0.8037109375	-25.8125	3.1875	11.6875
19	03	08	12	03	45	0.681258813672	-0.0133675907351	0.313802666525	-0.54052734375	0.20166015625	0.775390625	-15.5625	6.0	12.125
19	03	08	12	03	45	0.679827295889	-0.0169071791131	0.313057478956	-0.435546875	0.24755859375	0.72900390625	-13.6875	11.25	10.1875
19	03	08	12	03	45	0.677878970064	-0.0203864195931	0.313181793211	-0.60693359375	0.24169921875	0.7841796875	-8.875	7.6875	17.125
19	03	08	12	03	45	0.675150165676	-0.0201428039665	0.313861509077	-0.37646484375	0.41796875	0.7783203125	-3.4375	9.75	17.25
19	03	08	12	03	45	0.672579116294	-0.0204477723894	0.313003512874	-0.27099609375	0.37548828125	0.78564453125	-9.4375	11.6875	16.4375
19	03	08	12	03	45	0.671433740814	-0.021546919137	0.312216689478	-0.40380859375	0.29296875	0.84912109375	-3.375	6.75	9.875
19	03	08	12	03	45	0.669900639198	-0.0213635739152	0.31093155864	-0.36181640625	0.3291015625	0.89306640625	-2.5	4.5625	13.8125
19	03	08	12	03	45	0.669046998596	-0.020997369539	0.309344967511	-0.30224609375	0.3427734375	0.92236328125	-1.9375	5.25	7.5625
19	03	08	12	03	45	0.668566181609	-0.021791119039	0.30831076265	-0.3603515625	0.34814453125	0.88330078125	-4.5625	7.0	2.6875
19	03	08	12	03	45	0.668414359128	-0.026184801394	0.305672460096	-0.48193359375	0.1962890625	0.86474609375	-17.25	6.3125	3.8125
19	03	08	12	03	45	0.668122059837	-0.0294813589349	0.304762785014	-0.46240234375	0.22607421875	0.82666015625	-8.5	9.5625	2.3125
19	03	08	12	03	45	0.667570665868	-0.0338759915477	0.302930713606	-0.46875	0.15869140625	0.84326171875	-13.5625	10.625	5.6875
19	03	08	12	03	45	0.665807397981	-0.0369282614392	0.303971474326	-0.51611328125	0.2109375	0.828125	-0.4375	15.75	12.1875
19	03	08	12	03	45	0.66355090987	-0.0377218712445	0.305925596566	-0.39111328125	0.26416015625	0.7958984375	7.25	17.25	14.3125
19	03	08	12	03	45	0.660114249915	-0.0372325189504	0.309762350284	-0.3916015625	0.455078125	0.7763671875	7.625	21.5	16.8125
19	03	08	12	03	45	0.656891645977	-0.0405292745706	0.309829213434	-0.47021484375	0.27685546875	0.74560546875	-14.0625	16.0625	20.8125
19	03	08	12	03	45	0.653642139069	-0.0416880736749	0.311836556962	-0.37646484375	0.2724609375	0.67919921875	1.5	18.125	20.3125
19	03	08	12	03	45	0.650975593382	-0.0406516404306	0.315996310074	-0.38427734375	0.2890625	0.5966796875	18.3125	14.3125	16.4375
19	03	08	12	03	45	0.647870833179	-0.0361962883056	0.322043199157	-0.35986328125	0.38720703125	0.63623046875	35.25	11.4375	20.5625
19	03	08	12	03	45	0.644734120363	-0.0300302174779	0.328440244407	-0.37744140625	0.4521484375	0.6259765625	40.625	4.8125	22.1875
19	03	08	12	03	45	0.642978497153	-0.0236218604897	0.334368350807	-0.408203125	0.443359375	0.66455078125	44.125	-0.6875	14.1875
19	03	08	12	03	45	0.641096958498	-0.0163585627799	0.341210320671	-0.486328125	0.4619140625	0.72265625	54.1875	-2.625	17.5625
19	03	08	12	03	45	0.637786255489	-0.00781286637024	0.348771237809	-0.4931640625	0.4482421875	0.82373046875	65.0625	0.8125	30.125
19	03	08	12	03	45	0.634000280334	0.000305189313726	0.357926027138	-0.51416015625	0.48095703125	0.88818359375	73.375	10.75	29.5
19	03	08	12	03	46	0.628767483104	0.00665330119972	0.368312104946	-0.5546875	0.57373046875	0.83984375	66.3125	21.625	32.625
19	03	08	12	03	46	0.623200002142	0.00927780610436	0.374957650652	-0.5078125	0.50048828125	0.84033203125	38.625	26.6875	35.0
19	03	08	12	03	46	0.617662090378	0.00897285574519	0.378813216018	-0.48388671875	0.28662109375	0.81005859375	23.875	28.9375	40.1875
19	03	08	12	03	46	0.612274440707	0.00970507786585	0.384968088679	-0.5380859375	0.20703125	0.8515625	46.6875	31.625	40.9375
19	03	08	12	03	46	0.605984891323	0.0110478712056	0.39369485788	-0.56689453125	0.34521484375	0.7138671875	49.625	34.6875	40.5
19	03	08	12	03	46	0.600560196174	0.0106817800925	0.401390776506	-0.5458984375	0.41455078125	0.60595703125	33.125	34.4375	29.375
19	03	08	12	03	46	0.596046853439	0.00628702774236	0.404506144162	-0.619140625	0.3251953125	0.56689453125	0.125	28.1875	28.6875
19	03	08	12	03	46	0.592178605613	0.00256354374724	0.406077536914	-0.56787109375	0.32177734375	0.609375	-2.875	23.0625	26.8125
19	03	08	12	03	46	0.588040929837	0.0016480283481	0.409748677807	-0.45458984375	0.501953125	0.59375	8.75	24.5625	20.3125
19	03	08	12	03	46	0.584321970301	-0.00164804065582	0.412864703553	-0.5830078125	0.52001953125	0.58154296875	-2.125	25.0625	17.125
19	03	08	12	03	46	0.579628541581	-0.00518833467085	0.415188852131	-0.5947265625	0.427734375	0.681640625	-0.5	28.9375	28.1875
19	03	08	12	03	46	0.57284861308	-0.00445582831698	0.422082915231	-0.41650390625	0.58203125	0.63037109375	25.9375	39.0625	31.3125
19	03	08	12	03	46	0.566240073843	-0.0031739230182	0.429456199155	-0.416015625	0.67626953125	0.60302734375	27.0	37.375	26.9375
19	03	08	12	03	46	0.560873509501	-0.00335706203314	0.434159677122	-0.5390625	0.63623046875	0.58984375	12.1875	26.0	26.75
19	03	08	12	03	46	0.557520822866	-0.00482199967226	0.43587214759	-0.51708984375	0.55517578125	0.59716796875	-0.3125	17.6875	17.9375
19	03	08	12	03	46	0.555018972227	-0.00616484286759	0.437459691406	-0.4873046875	0.5908203125	0.57666015625	-1.125	15.6875	10.4375
19	03	08	12	03	46	0.552584414006	-0.00933893906362	0.438197670181	-0.62060546875	0.5302734375	0.6142578125	-7.5	16.125	14.3125
19	03	08	12	03	46	0.549397434616	-0.0126347371365	0.439774304679	-0.62109375	0.5625	0.5947265625	-6.3125	20.3125	16.375
19	03	08	12	03	46	0.545071100508	-0.014710205512	0.44240485291	-0.58544921875	0.60302734375	0.59912109375	-0.5	23.8125	21.6875
19	03	08	12	03	46	0.539764428303	-0.0179453513424	0.44405588781	-0.5322265625	0.58203125	0.57421875	-11.25	29.0	24.9375
19	03	08	12	03	46	0.53428126171	-0.0196548116384	0.445468370611	-0.41552734375	0.65185546875	0.58056640625	-10.5625	27.875	23.0625
19	03	08	12	03	46	0.529260025607	-0.0203256358583	0.447225026828	-0.353515625	0.68115234375	0.56982421875	-5.625	26.1875	18.3125
19	03	08	12	03	46	0.524989825082	-0.023011413098	0.448081653985	-0.5322265625	0.61572265625	0.61279296875	-10.875	23.5625	20.0625
19	03	08	12	03	46	0.520633755062	-0.0241090660316	0.449405197951	-0.45458984375	0.62451171875	0.54345703125	-6.25	19.5	20.25
19	03	08	12	03	46	0.51742794539	-0.022828601106	0.452604484495	-0.34375	0.74267578125	0.53076171875	8.375	17.0625	7.125
19	03	08	12	03	46	0.514371570275	-0.0227063277729	0.455896672409	-0.470703125	0.76123046875	0.55419921875	7.1875	17.4375	7.875
19	03	08	12	03	46	0.512774428336	-0.0242318114569	0.458023962651	-0.5966796875	0.58935546875	0.53759765625	5.0	11.5	8.1875
19	03	08	12	03	46	0.511859150939	-0.0236214513968	0.46272409054	-0.5078125	0.580078125	0.49267578125	26.3125	11.25	1.375
19	03	08	12	03	46	0.510481157569	-0.019777100927	0.469461985276	-0.322265625	0.70361328125	0.48779296875	42.5	12.5625	-2.875
19	03	08	12	03	46	0.51197390512	-0.0170291749557	0.476084461128	-0.533203125	0.712890625	0.52001953125	46.625	3.0	-14.625
19	03	08	12	03	46	0.515111083465	-0.0142832081444	0.481112164934	-0.63330078125	0.71533203125	0.5283203125	41.9375	-9.375	-17.375
19	03	08	12	03	46	0.517104995806	-0.00964383726833	0.48609822788	-0.4765625	0.7197265625	0.4912109375	43.6875	-8.9375	-12.75
19	03	08	12	03	46	0.519380233912	-0.00506623098069	0.49160752191	-0.4453125	0.6650390625	0.486328125	50.375	-6.6875	-15.125
19	03	08	12	03	46	0.522917946308	-0.00177012028049	0.496671335252	-0.5546875	0.59814453125	0.4755859375	49.3125	-10.375	-18.5
19	03	08	12	03	46	0.527487638654	-0.000793489852175	0.500570021361	-0.67822265625	0.53173828125	0.49755859375	41.5625	-10.5	-21.625
19	03	08	12	03	46	0.530782532418	0.00183112649178	0.504902611334	-0.58447265625	0.59326171875	0.4658203125	43.5625	-9.5	-16.5
19	03	08	12	03	46	0.534944624283	0.00390648744342	0.50857583404	-0.6083984375	0.58740234375	0.48486328125	41.5	-11.375	-21.5625
19	03	08	12	03	46	0.538236406607	0.0071414900854	0.511440559193	-0.61279296875	0.623046875	0.552734375	41.1875	-13.0	-11.8125
19	03	08	12	03	46	0.541473114987	0.01055967184	0.514799261842	-0.58056640625	0.734375	0.50390625	38.9375	-12.5	-18.625
19	03	08	12	03	46	0.544359597885	0.0148328529139	0.51664718956	-0.46826171875	0.81396484375	0.51513671875	30.4375	-14.8125	-18.75
19	03	08	12	03	46	0.547877020496	0.0184945117213	0.518212556151	-0.490234375	0.69775390625	0.54296875	33.625	-14.875	-18.3125
19	03	08	12	03	46	0.551612969912	0.0219741804989	0.520788077824	-0.537109375	0.63916015625	0.5595703125	43.0	-12.4375	-18.6875
19	03	08	12	03	46	0.555507060338	0.0242931337231	0.523095869365	-0.60986328125	0.70947265625	0.5654296875	36.5625	-11.1875	-21.75
