19	03	08	12	07	01	-0.329461144649	-0.729660612131	-0.126035061819	-0.4423828125	0.19921875	0.18603515625	-85.5	0.375	-26.8125
19	03	08	12	07	01	-0.327820790211	-0.729677443116	-0.120361682796	-0.24072265625	0.60888671875	0.16064453125	35.0625	-5.8125	-19.875
19	03	08	12	07	01	-0.325971765579	-0.738242740395	-0.112420893503	-0.2919921875	0.9384765625	-0.3056640625	44.875	32.1875	-5.625
19	03	08	12	07	01	-0.323663169236	-0.748154465113	-0.117490401806	-0.31201171875	0.44775390625	-0.50341796875	-5.0	67.625	-20.5
19	03	08	12	07	01	-0.327690051124	-0.754926102133	-0.123471218742	-0.73291015625	0.48828125	-0.548828125	-40.625	58.0625	2.8125
19	03	08	12	07	01	-0.339537848813	-0.749204942329	-0.146484062044	-0.546875	0.07861328125	-0.44970703125	-141.25	33.0	-54.625
19	03	08	12	07	01	-0.34062571897	-0.744847925875	-0.166681390164	-0.9541015625	0.05810546875	-0.14501953125	-79.625	28.5625	-68.125
19	03	08	12	07	01	-0.336115414814	-0.7429694833	-0.184628496425	-0.89501953125	-0.28759765625	-0.2685546875	-50.375	28.875	-54.0
19	03	08	12	07	01	-0.325853841235	-0.74667463826	-0.187370536166	-1.09619140625	0.62255859375	-0.30859375	44.4375	20.4375	-60.4375
19	03	08	12	07	01	-0.330439736398	-0.742360272222	-0.193478752195	-1.07861328125	0.66357421875	-0.18896484375	-41.1875	-10.5	-41.375
19	03	08	12	07	01	-0.334880510096	-0.741412144459	-0.199146182694	-0.890625	0.49462890625	-0.35693359375	-43.25	4.8125	-20.0
19	03	08	12	07	01	-0.336847364234	-0.740710203361	-0.205623984437	-0.6416015625	0.2568359375	-0.2080078125	-33.8125	13.75	-21.625
19	03	08	12	07	01	-0.334151279653	-0.742761839885	-0.214833334133	-0.70654296875	0.234375	-0.3916015625	-23.25	31.0625	-38.25
19	03	08	12	07	01	-0.340323083853	-0.741862819984	-0.225885174559	-0.78515625	0.55859375	-0.3701171875	-70.0	27.5	-37.875
19	03	08	12	07	01	-0.348753501107	-0.735775893569	-0.242857924555	-0.689453125	0.283203125	-0.28515625	-105.75	20.625	-47.125
19	03	08	12	07	01	-0.353210797909	-0.728638414626	-0.258362071462	-0.79052734375	0.17822265625	-0.0751953125	-79.25	10.8125	-59.625
19	03	08	12	07	01	-0.351436689967	-0.720878559431	-0.270993210048	-1.2861328125	-0.009765625	-0.060546875	-39.1875	-5.25	-60.0
19	03	08	12	07	01	-0.351967090951	-0.715896302558	-0.278302398948	-1.23681640625	0.3017578125	-0.2119140625	-29.8125	-10.5625	-44.3125
19	03	08	12	07	01	-0.357173666163	-0.706595955771	-0.291317482672	-1.2822265625	0.10595703125	-0.208984375	-78.3125	-17.6875	-46.1875
19	03	08	12	07	01	-0.360396714585	-0.692718494588	-0.309190475206	-1.6728515625	-0.39501953125	-0.12939453125	-92.6875	-25.5625	-50.5625
19	03	08	12	07	01	-0.35624956565	-0.684790153604	-0.317188451719	-1.3876953125	-0.4755859375	-0.1142578125	-16.625	-27.1875	-29.0
19	03	08	12	07	01	-0.342946395342	-0.681681489512	-0.315908621158	-1.24169921875	-0.5576171875	0.05029296875	68.6875	-24.4375	-20.125
19	03	08	12	07	01	-0.321221707928	-0.690782308633	-0.300103959317	-1.13427734375	-0.50048828125	-0.0390625	171.1875	-0.9375	-1.9375
19	03	08	12	07	01	-0.3017548156	-0.699089736626	-0.284421003377	-1.16064453125	-0.14599609375	-0.16650390625	157.875	-1.625	1.4375
19	03	08	12	07	01	-0.293516140877	-0.702937283112	-0.273557775715	-1.47314453125	0.0048828125	-0.06787109375	83.125	-1.8125	23.1875
19	03	08	12	07	01	-0.294181483217	-0.704387655147	-0.266960540994	-1.34375	-0.3720703125	0.06787109375	20.25	6.0	65.0
19	03	08	12	07	01	-0.292475839257	-0.710254870917	-0.252620513081	-1.2666015625	-0.38525390625	0.025390625	61.625	11.3125	98.75
19	03	08	12	07	01	-0.290511428232	-0.72029745294	-0.231432633583	-1.37255859375	-0.2119140625	-0.11181640625	91.6875	12.8125	105.0625
19	03	08	12	07	01	-0.285278558899	-0.7286993399	-0.211975274937	-1.49755859375	0.03662109375	-0.14990234375	98.8125	10.25	90.0625
19	03	08	12	07	01	-0.285455905162	-0.734238729762	-0.195735960627	-1.32421875	0.18603515625	-0.19287109375	60.4375	-1.4375	82.5
19	03	08	12	07	01	-0.290525836661	-0.734249120804	-0.186156260886	-1.16259765625	0.1103515625	-0.07177734375	11.5625	-17.0	65.9375
19	03	08	12	07	01	-0.293880076123	-0.734303467462	-0.175595634269	-1.1689453125	0.123046875	-0.07861328125	22.75	-21.25	63.1875
19	03	08	12	07	01	-0.298271142336	-0.735149561989	-0.16387518256	-1.0458984375	0.2353515625	-0.11181640625	22.8125	-19.375	67.0625
19	03	08	12	07	01	-0.302542901225	-0.736185691866	-0.15276677058	-1.177734375	0.30615234375	-0.1533203125	20.5625	-17.125	64.25
19	03	08	12	07	01	-0.308350948758	-0.736575465086	-0.141602177577	-1.08642578125	0.361328125	-0.11083984375	13.875	-17.8125	66.3125
19	03	08	12	07	01	-0.314568641756	-0.735458310665	-0.13329800419	-1.08935546875	0.30029296875	-0.11767578125	-0.5	-22.625	58.0625
19	03	08	12	07	01	-0.322197144606	-0.73374769321	-0.123044031734	-0.9345703125	0.345703125	-0.14404296875	-1.25	-33.25	65.9375
19	03	08	12	07	01	-0.329155656209	-0.732894700493	-0.107236508058	-0.779296875	0.41259765625	-0.08984375	23.0	-39.0625	81.125
19	03	08	12	07	01	-0.335023502781	-0.73285246819	-0.0845340774917	-0.65087890625	0.60791015625	-0.0966796875	53.1875	-50.1875	93.0
19	03	08	12	07	01	-0.339046576474	-0.732535915542	-0.0583489697765	-0.49267578125	0.8134765625	-0.19189453125	70.6875	-61.0625	111.6875
19	03	08	12	07	01	-0.344301516112	-0.730717559101	-0.0320436617548	-0.23828125	0.8349609375	-0.298828125	62.25	-68.3125	114.5625
19	03	08	12	07	01	-0.354839497377	-0.728476821584	-0.00726279672993	-0.12255859375	0.92822265625	-0.298828125	33.1875	-51.375	131.125
19	03	08	12	07	02	-0.370600323313	-0.726735515429	0.012267896078	0.0302734375	0.8251953125	-0.25537109375	-5.5625	-17.625	137.9375
19	03	08	12	07	02	-0.38818001471	-0.72588442059	0.0250852179318	0.15087890625	0.701171875	-0.17333984375	-32.9375	14.0625	123.8125
19	03	08	12	07	02	-0.404831922614	-0.727513420407	0.0337512518024	0.046875	0.65966796875	-0.15673828125	-36.5625	45.9375	112.625
19	03	08	12	07	02	-0.420904350435	-0.730723155947	0.0387578686958	-0.02001953125	0.673828125	-0.16357421875	-41.375	69.5	101.6875
19	03	08	12	07	02	-0.438225886952	-0.736378179119	0.0444939654022	-0.02734375	0.6748046875	-0.2080078125	-42.75	91.125	98.1875
19	03	08	12	07	02	-0.452497046037	-0.741670367337	0.0451642587088	-0.0576171875	0.69384765625	-0.224609375	-41.125	101.5	87.1875
19	03	08	12	07	02	-0.46270036626	-0.749439097389	0.0441277357612	-0.18994140625	0.78125	-0.28662109375	-22.75	116.0625	71.8125
19	03	08	12	07	02	-0.470935464117	-0.758647980686	0.0413197653198	-0.3642578125	0.89013671875	-0.34033203125	-14.8125	131.3125	64.25
19	03	08	12	07	02	-0.480084217605	-0.766694373449	0.0361314336158	-0.498046875	0.9345703125	-0.3701171875	-27.875	136.6875	59.25
19	03	08	12	07	02	-0.488396708587	-0.773671166964	0.0251461439562	-0.61962890625	0.8779296875	-0.40087890625	-42.25	142.9375	30.0
19	03	08	12	07	02	-0.49374920353	-0.78029463129	0.0085444855988	-0.88671875	0.91748046875	-0.44775390625	-43.1875	146.0625	-6.1875
19	03	08	12	07	02	-0.500411924635	-0.78372844545	-0.00952119285805	-1.23095703125	1.0517578125	-0.48583984375	-61.375	130.4375	-15.0625
19	03	08	12	07	02	-0.516760372075	-0.778466817741	-0.0262438833108	-1.22265625	0.837890625	-0.41748046875	-126.9375	92.1875	2.8125
19	03	08	12	07	02	-0.531588795068	-0.772360069069	-0.0413797018434	-1.001953125	0.49169921875	-0.25927734375	-118.25	76.375	0.75
19	03	08	12	07	02	-0.534768442409	-0.771819415967	-0.058774481858	-0.9755859375	0.251953125	-0.25830078125	-61.9375	82.4375	-8.125
19	03	08	12	07	02	-0.53036694585	-0.776203316148	-0.0730551477771	-0.8798828125	0.166015625	-0.2421875	-6.75	83.0	-11.375
19	03	08	12	07	02	-0.522216285233	-0.779662322063	-0.0870970826353	-1.30712890625	0.2373046875	-0.23583984375	12.625	57.375	-21.375
19	03	08	12	07	02	-0.51867062505	-0.779898005047	-0.0903309631766	-0.994140625	0.26708984375	0.13330078125	23.5625	15.6875	7.0
19	03	08	12	07	02	-0.504366813351	-0.786333739498	-0.0863600001078	-0.630859375	0.232421875	-0.1328125	91.9375	-21.5	-7.125
19	03	08	12	07	02	-0.483929981529	-0.797578130738	-0.0786103942754	-0.5517578125	0.7099609375	-0.51513671875	139.75	-16.5625	-16.4375
19	03	08	12	07	02	-0.474900872844	-0.802039888195	-0.0726907774782	-0.794921875	1.267578125	-0.58740234375	64.375	-28.9375	-16.375
19	03	08	12	07	02	-0.477697765447	-0.798176999682	-0.0679286588657	-0.67578125	0.775390625	-0.39697265625	-15.8125	-53.3125	8.625
19	03	08	12	07	02	-0.475442173628	-0.795251800047	-0.0629854073407	-0.6357421875	0.52685546875	-0.2685546875	13.125	-65.375	-3.3125
19	03	08	12	07	02	-0.466671066959	-0.796258270933	-0.0560298246755	-0.6162109375	0.6123046875	-0.33935546875	55.9375	-62.875	-12.0625
19	03	08	12	07	02	-0.459820151729	-0.79659843647	-0.0477275495954	-0.50732421875	0.77001953125	-0.34130859375	51.5625	-64.625	-11.4375
19	03	08	12	07	02	-0.450622348756	-0.7979122261	-0.0426025192242	-0.390625	0.69970703125	-0.36865234375	55.0625	-57.0	-33.75
19	03	08	12	07	02	-0.437727698961	-0.800201876894	-0.037474178355	-0.42041015625	0.72802734375	-0.37158203125	76.25	-60.9375	-47.1875
19	03	08	12	07	02	-0.424924084192	-0.801691733103	-0.0333860204041	-0.48828125	0.8251953125	-0.40380859375	72.3125	-63.125	-56.5
19	03	08	12	07	02	-0.414960582036	-0.80129687918	-0.0300890670604	-0.515625	0.81494140625	-0.40478515625	53.0	-66.875	-53.25
19	03	08	12	07	02	-0.404095772432	-0.801661073992	-0.025999818616	-0.5146484375	0.767578125	-0.4130859375	60.125	-62.875	-48.0625
19	03	08	12	07	02	-0.394708570207	-0.80101365013	-0.0214840601071	-0.6044921875	0.76220703125	-0.3291015625	55.5	-60.8125	-39.5
19	03	08	12	07	02	-0.384996460563	-0.800814609867	-0.0164178896467	-0.64306640625	0.72412109375	-0.3154296875	59.625	-54.9375	-33.0
19	03	08	12	07	02	-0.371753213711	-0.802037265043	-0.0117183741639	-0.6689453125	0.59716796875	-0.3916015625	72.5	-54.125	-37.1875
19	03	08	12	07	02	-0.359237948116	-0.803372258079	-0.00860559814549	-0.806640625	0.61865234375	-0.4521484375	63.75	-44.75	-36.25
19	03	08	12	07	02	-0.352895516327	-0.801003243909	-0.00891088643787	-0.90576171875	0.53271484375	-0.3740234375	19.8125	-47.8125	-30.6875
19	03	08	12	07	02	-0.346604980052	-0.798308353422	-0.00994833804341	-0.91748046875	0.3173828125	-0.29248046875	15.8125	-44.5625	-22.875
19	03	08	12	07	02	-0.335941733159	-0.79804472403	-0.00885020917662	-0.96044921875	0.24609375	-0.25634765625	46.6875	-34.1875	-19.0
19	03	08	12	07	02	-0.324522762782	-0.80035113567	-0.00433348056376	-1.0341796875	0.443359375	-0.37109375	65.25	-20.0625	-7.1875
19	03	08	12	07	02	-0.319081846653	-0.80093937904	-0.00134273156587	-0.9970703125	0.4541015625	-0.36181640625	30.3125	-16.4375	3.0
19	03	08	12	07	02	-0.317624143529	-0.800041751226	-0.000122069232717	-0.9326171875	0.48486328125	-0.34375	6.25	-17.0	2.6875
19	03	08	12	07	02	-0.312992212982	-0.800180950117	0.00292972430249	-0.94580078125	0.3798828125	-0.28125	27.875	-14.75	7.25
19	03	08	12	07	02	-0.306083517365	-0.800150530938	0.00524888982919	-1.06298828125	0.18017578125	-0.16943359375	35.75	-12.5625	9.4375
19	03	08	12	07	02	-0.295952684582	-0.804302841292	0.0147701690387	-0.85302734375	0.6904296875	-0.47607421875	79.75	-10.875	4.25
19	03	08	12	07	02	-0.293940554703	-0.80443033866	0.0177609429856	-0.75537109375	0.669921875	-0.38916015625	18.8125	-15.75	-6.3125
19	03	08	12	07	02	-0.290274769738	-0.805335489213	0.0194086158067	-0.9296875	0.3349609375	-0.41650390625	15.6875	-8.0625	8.4375
19	03	08	12	07	02	-0.28289882921	-0.807314522969	0.0264893402108	-0.90966796875	0.533203125	-0.35302734375	57.625	-10.75	9.5
19	03	08	12	07	02	-0.279165213195	-0.809237333135	0.0358874388629	-0.7294921875	0.73779296875	-0.380859375	51.6875	-8.75	17.1875
19	03	08	12	07	02	-0.277271485716	-0.809598559989	0.0411970620424	-0.779296875	0.6787109375	-0.3623046875	27.625	-11.4375	7.0
19	03	08	12	07	02	-0.275073575941	-0.8092302071	0.0446758059882	-0.8056640625	0.556640625	-0.3203125	20.625	-14.5	3.4375
19	03	08	12	07	02	-0.267821942366	-0.810790037007	0.0487059958997	-0.87451171875	0.34765625	-0.3544921875	43.625	-8.875	4.8125
19	03	08	12	07	03	-0.259710896559	-0.812763877458	0.0569471836639	-0.9580078125	0.47900390625	-0.384765625	63.0625	-10.125	18.5
19	03	08	12	07	03	-0.254818519934	-0.814381679398	0.0692129824205	-0.83251953125	0.7109375	-0.462890625	63.125	-13.75	32.25
19	03	08	12	07	03	-0.257676896593	-0.813739001013	0.0804401112529	-0.85009765625	0.72265625	-0.32958984375	25.125	-6.0625	53.5
19	03	08	12	07	03	-0.254884213517	-0.814091388863	0.0883183565516	-0.853515625	0.28466796875	-0.2314453125	35.75	-2.3125	43.375
19	03	08	12	07	03	-0.250970690219	-0.815166473386	0.0993018757262	-0.53955078125	0.79296875	-0.296875	61.9375	-9.625	17.3125
19	03	08	12	07	03	-0.254030829068	-0.811470416258	0.105103577044	-0.72021484375	0.80419921875	-0.22021484375	6.5625	-27.125	15.5625
19	03	08	12	07	03	-0.255423744658	-0.80820100998	0.112362034389	-0.62939453125	0.63916015625	-0.189453125	16.375	-28.6875	23.9375
19	03	08	12	07	03	-0.251582240674	-0.806869777222	0.123776997595	-0.59130859375	0.74853515625	-0.224609375	58.1875	-27.4375	21.8125
19	03	08	12	07	03	-0.250970806613	-0.805096281624	0.13805835714	-0.54345703125	1.00390625	-0.27734375	56.1875	-25.5	32.8125
19	03	08	12	07	03	-0.255918773222	-0.801752684247	0.148680689618	-0.56787109375	1.02783203125	-0.30712890625	16.0625	-23.875	34.25
19	03	08	12	07	03	-0.261900271986	-0.798335016914	0.155638707426	-0.64111328125	0.8232421875	-0.40087890625	-9.4375	-22.6875	35.1875
19	03	08	12	07	03	-0.267697554106	-0.794608859304	0.160887084501	-0.75390625	0.68408203125	-0.3095703125	-15.5625	-18.5	38.4375
19	03	08	12	07	03	-0.270085322501	-0.788710177935	0.164370570282	-0.82080078125	0.43505859375	-0.201171875	-14.9375	-44.4375	30.0625
19	03	08	12	07	03	-0.267517395794	-0.785401288861	0.160339538843	-1.0771484375	-0.2294921875	-0.22119140625	-26.6875	-29.8125	22.1875
19	03	08	12	07	03	-0.251455183768	-0.783417169622	0.158258080463	-1.7265625	-0.16552734375	-0.20849609375	40.0625	-46.0625	4.5625
19	03	08	12	07	03	-0.238517123741	-0.777316808588	0.164789210363	-1.1640625	0.10400390625	0.0947265625	63.5625	-69.8125	16.5
19	03	08	12	07	03	-0.22412111838	-0.774353112442	0.188476583213	-0.8212890625	0.5830078125	-0.06982421875	135.375	-64.25	58.625
19	03	08	12	07	03	-0.201047852529	-0.775383096091	0.220884085702	-0.5634765625	0.5625	-0.29052734375	213.25	-44.0625	72.25
19	03	08	12	07	03	-0.172795986457	-0.779931866812	0.254341531461	-0.408203125	0.7421875	-0.6298828125	250.1875	-15.3125	59.6875
19	03	08	12	07	03	-0.150327319569	-0.781055098871	0.278621280483	-0.6572265625	0.89990234375	-0.66650390625	187.3125	-27.125	37.5
19	03	08	12	07	03	-0.134152526551	-0.777510935273	0.294793768535	-0.58056640625	0.66357421875	-0.5283203125	117.4375	-57.0625	23.8125
19	03	08	12	07	03	-0.113828529528	-0.776536397415	0.309442704936	-0.451171875	0.51220703125	-0.5126953125	137.8125	-42.75	3.0625
19	03	08	12	07	03	-0.0950313270887	-0.77581451421	0.321775951453	-0.76953125	0.6337890625	-0.54296875	125.5	-33.9375	-1.9375
19	03	08	12	07	03	-0.0872798512406	-0.778438617289	0.331175155826	-0.630859375	0.7177734375	-0.5537109375	82.875	14.9375	0.4375
19	03	08	12	07	03	-0.0822780632795	-0.781397452599	0.334788707039	-0.94091796875	0.580078125	-0.765625	38.125	12.625	-1.0625
19	03	08	12	07	03	-0.085570218467	-0.784536082864	0.338313638347	-0.8017578125	0.53369140625	-0.6474609375	7.125	39.8125	22.0625
19	03	08	12	07	03	-0.0926541848019	-0.790246199361	0.340220307039	-0.748046875	0.3583984375	-0.69091796875	-12.8125	70.6875	31.375
19	03	08	12	07	03	-0.10357610704	-0.794917629989	0.336729158834	-0.70703125	0.5009765625	-0.521484375	-43.9375	67.3125	9.875
19	03	08	12	07	03	-0.118042822866	-0.799077888815	0.327333846449	-0.68994140625	0.32666015625	-0.62451171875	-93.9375	54.8125	0.875
19	03	08	12	07	03	-0.138363981041	-0.802169299877	0.312310759147	-0.5537109375	0.47802734375	-0.71044921875	-134.6875	55.4375	-17.9375
19	03	08	12	07	03	-0.164668686367	-0.803324406953	0.288566919623	-0.61083984375	0.70068359375	-0.56787109375	-194.75	46.5	-43.625
19	03	08	12	07	03	-0.193786299122	-0.801329235015	0.259460018132	-0.494140625	0.6552734375	-0.3623046875	-231.8125	28.5	-59.5
19	03	08	12	07	03	-0.214296446159	-0.79834734143	0.228395699666	-0.72265625	0.03369140625	-0.21728515625	-206.125	6.75	-85.0625
19	03	08	12	07	03	-0.20660753866	-0.79780417661	0.207156864464	-1.31982421875	-0.31640625	-0.10400390625	-56.875	-15.875	-67.75
19	03	08	12	07	03	-0.196774755758	-0.798573481496	0.212948859442	-0.7041015625	0.44677734375	-0.26318359375	64.8125	-13.5625	-1.5625
19	03	08	12	07	03	-0.197083264371	-0.796939047039	0.216614588186	-0.5478515625	1.119140625	-0.28857421875	24.4375	-13.8125	-20.3125
19	03	08	12	07	03	-0.202263859865	-0.790928593843	0.209770937344	-0.82666015625	0.6591796875	-0.107421875	-51.6875	-34.625	-22.9375
19	03	08	12	07	03	-0.197993561312	-0.786786374498	0.210017214696	-1.14404296875	0.18505859375	-0.22802734375	1.625	-38.5625	17.8125
19	03	08	12	07	03	-0.187926732935	-0.788083785532	0.226073601426	-0.58056640625	0.5400390625	-0.53515625	101.0625	-8.4375	42.9375
19	03	08	12	07	03	-0.190243407737	-0.788622095403	0.236690386655	-0.46435546875	0.97998046875	-0.52734375	35.1875	4.9375	26.8125
19	03	08	12	07	03	-0.200073529513	-0.786744293906	0.232849455489	-0.84814453125	0.89697265625	-0.58837890625	-60.8125	-2.6875	0.6875
19	03	08	12	07	03	-0.213551457535	-0.782798226448	0.222889374941	-0.36962890625	0.74072265625	-0.38818359375	-102.1875	-7.5	-9.75
19	03	08	12	07	03	-0.221435435924	-0.782531346193	0.211791886069	-0.451171875	0.48193359375	-0.3134765625	-74.4375	8.5625	-34.375
19	03	08	12	07	03	-0.218141865336	-0.78699530264	0.207643711772	-0.48046875	0.4140625	-0.44384765625	3.75	18.375	-32.5
19	03	08	12	07	03	-0.210870534388	-0.791298546551	0.206109926086	-0.77685546875	0.64306640625	-0.4931640625	32.8125	11.1875	-35.3125
19	03	08	12	07	03	-0.201714939842	-0.791906609517	0.208794798548	-1.0654296875	0.3271484375	-0.24951171875	46.75	-7.25	4.8125
19	03	08	12	07	03	-0.1813361565	-0.794558763149	0.22790616236	-0.84716796875	-0.1435546875	-0.41650390625	155.125	-18.625	35.4375
19	03	08	12	07	03	-0.161503653185	-0.798728951467	0.242499627402	-0.7734375	0.95166015625	-0.57080078125	148.6875	-1.6875	1.1875
19	03	08	12	07	03	-0.176085322773	-0.794184478309	0.242002878612	-0.88671875	1.3623046875	-0.58984375	-61.5625	-12.5	6.4375
19	03	08	12	07	03	-0.194826637083	-0.788706079069	0.231204041752	-0.55517578125	0.18017578125	-0.23046875	-133.5625	-8.375	11.625
19	03	08	12	07	03	-0.198120327533	-0.787903668555	0.226867916649	-0.6923828125	0.337890625	-0.232421875	-32.4375	2.9375	-1.8125
19	03	08	12	07	04	-0.202571383717	-0.788374378869	0.224055302689	-0.6767578125	0.7626953125	-0.330078125	-21.25	14.375	-12.0
19	03	08	12	07	04	-0.210511814113	-0.789068348174	0.216310196931	-0.68310546875	0.89208984375	-0.48388671875	-55.5625	15.8125	-30.9375
19	03	08	12	07	04	-0.220518770449	-0.787349055853	0.197874855742	-0.71630859375	0.482421875	-0.3564453125	-111.8125	3.3125	-56.6875
19	03	08	12	07	04	-0.227359742221	-0.78541346655	0.180789142673	-0.8388671875	0.42431640625	-0.3154296875	-96.5	-2.875	-51.8125
19	03	08	12	07	04	-0.23461394079	-0.783002665554	0.168270196347	-0.96630859375	0.67578125	-0.3037109375	-77.875	-1.0625	-36.5
19	03	08	12	07	04	-0.241452402186	-0.782034789992	0.157102751068	-0.83984375	0.34814453125	-0.25341796875	-71.75	13.0	-16.6875
19	03	08	12	07	04	-0.241995257975	-0.783112523349	0.14879809305	-0.9072265625	0.26123046875	-0.2744140625	-33.3125	15.3125	-17.375
19	03	08	12	07	04	-0.23913099009	-0.7851406474	0.147458007161	-0.8525390625	0.63720703125	-0.35693359375	11.1875	8.125	-18.375
19	03	08	12	07	04	-0.234003868185	-0.786543518337	0.137326213724	-0.85498046875	0.11279296875	-0.2294921875	-15.4375	4.9375	-42.3125
19	03	08	12	07	04	-0.230159218189	-0.787704818336	0.127683130324	-1.173828125	0.38818359375	-0.26806640625	-15.5	10.25	-40.0625
19	03	08	12	07	04	-0.227962939731	-0.788928770805	0.122068508557	-0.82177734375	0.05224609375	-0.1982421875	-12.75	12.375	-8.5625
19	03	08	12	07	04	-0.219416575203	-0.793561699801	0.121335229903	-0.9521484375	0.4052734375	-0.24169921875	44.5	28.4375	-21.1875
19	03	08	12	07	04	-0.216304323877	-0.795211353215	0.115415202159	-1.04052734375	0.47265625	-0.12744140625	2.9375	24.0	-31.125
19	03	08	12	07	04	-0.214720198287	-0.796381224346	0.107665272819	-0.94580078125	0.44775390625	-0.154296875	-12.0	20.375	-37.6875
19	03	08	12	07	04	-0.213065500433	-0.797332482856	0.0964928548221	-0.912109375	0.587890625	-0.037109375	-16.875	25.9375	-64.625
19	03	08	12	07	04	-0.211611177963	-0.797616058154	0.0840463201774	-1.0703125	0.5244140625	-0.09716796875	-26.0625	21.0	-63.6875
19	03	08	12	07	04	-0.210867087262	-0.796534401118	0.0737882224313	-0.9794921875	0.55224609375	-0.0390625	-22.25	10.5625	-57.4375
19	03	08	12	07	04	-0.210329431288	-0.794686359656	0.0651252185678	-0.98876953125	0.552734375	-0.0234375	-19.25	4.0	-51.0625
19	03	08	12	07	04	-0.213073935656	-0.790467069804	0.0576172429847	-1.025390625	0.55712890625	0.06005859375	-32.1875	-7.375	-36.125
19	03	08	12	07	04	-0.21654779539	-0.785626612812	0.0523669696856	-0.95849609375	0.4921875	0.1005859375	-29.625	-12.1875	-21.625
19	03	08	12	07	04	-0.219360090882	-0.781188036506	0.0515136106579	-0.92236328125	0.52001953125	0.091796875	-11.25	-14.9375	-5.8125
19	03	08	12	07	04	-0.221128756101	-0.779535322363	0.054442961756	-0.8154296875	0.658203125	-0.08154296875	7.0	-7.0	0.1875
19	03	08	12	07	04	-0.227843057205	-0.776057988845	0.0521237532421	-0.8642578125	0.7177734375	-0.0908203125	-34.625	-9.625	-9.5
19	03	08	12	07	04	-0.236383001793	-0.77152531001	0.0468737788219	-0.9423828125	0.72216796875	-0.17041015625	-57.5	-17.3125	-14.4375
19	03	08	12	07	04	-0.244561448644	-0.764933525294	0.0400380110582	-0.9384765625	0.5810546875	-0.06201171875	-64.6875	-28.6875	-17.4375
19	03	08	12	07	04	-0.248721006662	-0.760506440002	0.0402226118749	-0.82373046875	0.595703125	-0.09033203125	-20.4375	-27.9375	-2.25
19	03	08	12	07	04	-0.248963744385	-0.759708685061	0.0437014074479	-0.79638671875	0.69482421875	-0.197265625	11.25	-14.25	-4.0625
19	03	08	12	07	04	-0.251092511211	-0.758526429103	0.0430897697897	-0.92333984375	0.72900390625	-0.21240234375	-11.75	-8.5625	-13.5
19	03	08	12	07	04	-0.257801061122	-0.755764805843	0.0392438641813	-0.92724609375	0.72607421875	-0.2177734375	-45.8125	-10.5625	-11.4375
19	03	08	12	07	04	-0.266542281888	-0.751591861498	0.0350344103053	-0.8369140625	0.63525390625	-0.20654296875	-59.4375	-18.6875	-3.4375
19	03	08	12	07	04	-0.273916612429	-0.749425598044	0.0354602388194	-0.70751953125	0.68359375	-0.30029296875	-36.8125	-16.6875	8.6875
19	03	08	12	07	04	-0.279963821409	-0.74949983146	0.0360712052437	-0.5673828125	0.6513671875	-0.39892578125	-30.1875	-6.3125	6.4375
19	03	08	12	07	04	-0.28570130756	-0.750538128406	0.0361322738893	-0.52099609375	0.69482421875	-0.47509765625	-31.4375	-2.875	1.125
19	03	08	12	07	04	-0.290026844667	-0.751616286212	0.0366195510944	-0.53369140625	0.6923828125	-0.49609375	-24.75	-6.4375	-1.9375
19	03	08	12	07	04	-0.294613840188	-0.751518585919	0.0371090148817	-0.52978515625	0.6826171875	-0.4892578125	-28.25	-15.8125	-1.9375
19	03	08	12	07	04	-0.298154169774	-0.751824577947	0.0393063020131	-0.54248046875	0.58447265625	-0.505859375	-18.75	-17.1875	8.625
19	03	08	12	07	04	-0.300040106554	-0.753518135784	0.042540267345	-0.57666015625	0.52001953125	-0.5	-6.0	-9.375	15.0
19	03	08	12	07	04	-0.302304744244	-0.755609273924	0.0458370407687	-0.6796875	0.57861328125	-0.4853515625	-5.6875	-2.5	18.0625
19	03	08	12	07	04	-0.306215109414	-0.757389534128	0.0479739039265	-0.71337890625	0.5537109375	-0.4873046875	-17.375	1.75	23.0625
19	03	08	12	07	04	-0.31097420682	-0.758972377196	0.0498657364028	-0.7021484375	0.4814453125	-0.46435546875	-22.0625	4.5	29.6875
19	03	08	12	07	04	-0.314570069032	-0.761523234635	0.0529776522933	-0.701171875	0.43310546875	-0.44970703125	-11.375	10.4375	36.25
19	03	08	12	07	04	-0.318660519999	-0.764211524785	0.0562737022484	-0.69580078125	0.43603515625	-0.4111328125	-10.75	16.625	39.8125
19	03	08	12	07	04	-0.323967695269	-0.766829337484	0.0588976687895	-0.65576171875	0.43115234375	-0.37939453125	-17.1875	22.4375	41.875
19	03	08	12	07	04	-0.328550759002	-0.77019915063	0.0614010892728	-0.63427734375	0.431640625	-0.42822265625	-14.75	26.25	40.0
19	03	08	12	07	04	-0.331897208948	-0.774386132243	0.0637184049544	-0.6396484375	0.4990234375	-0.478515625	-8.75	29.125	33.4375
19	03	08	12	07	04	-0.333908093031	-0.779078195494	0.0656708294831	-0.68115234375	0.5185546875	-0.490234375	-3.1875	32.5	29.0
19	03	08	12	07	04	-0.335575323209	-0.784982581265	0.0679939814579	-0.6220703125	0.5654296875	-0.48291015625	4.0625	44.1875	28.375
19	03	08	12	07	04	-0.335991754945	-0.792464477059	0.0703721150685	-0.5810546875	0.5986328125	-0.52294921875	13.375	55.3125	25.375
19	03	08	12	07	04	-0.335554558344	-0.800131003982	0.0704920907398	-0.63525390625	0.58154296875	-0.5185546875	11.75	62.1875	16.1875
19	03	08	12	07	04	-0.335868788766	-0.807354595274	0.069456420428	-0.662109375	0.59765625	-0.54736328125	3.875	64.125	13.9375
19	03	08	12	07	05	-0.335926361267	-0.815341617035	0.0686622740598	-0.658203125	0.64453125	-0.580078125	8.75	72.75	15.5
19	03	08	12	07	05	-0.336737278862	-0.822403134925	0.066163351511	-0.75244140625	0.59814453125	-0.4892578125	2.375	78.75	15.4375
19	03	08	12	07	05	-0.337217674274	-0.829402891531	0.0638424773376	-0.77197265625	0.6142578125	-0.5390625	3.3125	78.75	16.5
19	03	08	12	07	05	-0.338186808134	-0.83609837297	0.0623152375212	-0.75390625	0.716796875	-0.5458984375	6.0625	79.0625	17.3125
19	03	08	12	07	05	-0.340761659449	-0.841009297071	0.0584110528556	-0.751953125	0.7001953125	-0.47802734375	-8.5	74.75	7.875
19	03	08	12	07	05	-0.341850268019	-0.84617248988	0.053770770599	-0.73388671875	0.5751953125	-0.45166015625	-4.6875	76.25	5.5
19	03	08	12	07	05	-0.341115255058	-0.851292821175	0.0482773603061	-0.7763671875	0.52734375	-0.4501953125	1.1875	73.0625	-1.0625
19	03	08	12	07	05	-0.341416886097	-0.854823901801	0.0424177218157	-0.80419921875	0.5771484375	-0.45751953125	-6.6875	60.6875	-5.75
19	03	08	12	07	05	-0.342886266942	-0.856666365753	0.0349111685103	-0.78857421875	0.56689453125	-0.41064453125	-18.25	49.625	-16.0
19	03	08	12	07	05	-0.34410230986	-0.85744827088	0.0261219915963	-0.81298828125	0.49609375	-0.3466796875	-21.5625	41.3125	-24.0
19	03	08	12	07	05	-0.343442612103	-0.858453943349	0.0181883594112	-0.84716796875	0.466796875	-0.3369140625	-10.375	36.8125	-23.125
19	03	08	12	07	05	-0.342385180528	-0.858526262832	0.012572432654	-0.896484375	0.47802734375	-0.28564453125	-2.9375	23.0	-16.0625
19	03	08	12	07	05	-0.338916247473	-0.859039471129	0.0095211479571	-0.85693359375	0.43603515625	-0.2568359375	15.3125	13.75	-11.125
19	03	08	12	07	05	-0.333188438634	-0.860528264572	0.00762933775952	-0.83935546875	0.4970703125	-0.3095703125	31.125	12.0	-14.25
19	03	08	12	07	05	-0.329517390754	-0.860871049563	0.00469954419116	-0.86669921875	0.5283203125	-0.37451171875	14.9375	6.25	-17.3125
19	03	08	12	07	05	-0.326531362831	-0.860333848684	0.000915508493918	-0.89013671875	0.38134765625	-0.37255859375	3.4375	-0.3125	-15.25
19	03	08	12	07	05	-0.320371435241	-0.860467992766	-0.00103759085523	-0.95849609375	0.27880859375	-0.42529296875	19.0	-7.6875	-8.3125
19	03	08	12	07	05	-0.316021275097	-0.859995323947	0.000732378389565	-0.98291015625	0.43310546875	-0.39794921875	24.125	-12.4375	7.3125
19	03	08	12	07	05	-0.313655632724	-0.858936703508	0.00103758430751	-0.978515625	0.4072265625	-0.43017578125	7.5625	-11.375	5.75
19	03	08	12	07	05	-0.311210720237	-0.85849970403	-0.00152584193095	-0.84423828125	0.38818359375	-0.42626953125	2.25	-3.5	-10.6875
19	03	08	12	07	05	-0.308095809468	-0.858859792163	-0.00439439347895	-0.6796875	0.52734375	-0.48193359375	8.9375	-3.0625	-25.3125
19	03	08	12	07	05	-0.302614356428	-0.859747040067	-0.00512698788624	-0.7626953125	0.4013671875	-0.49169921875	22.6875	-6.3125	-12.875
19	03	08	12	07	05	-0.295895120712	-0.861867780441	0.000915517081412	-0.74462890625	0.67724609375	-0.50830078125	56.0625	-7.5	6.0625
19	03	08	12	07	05	-0.294421806604	-0.861659839478	0.00897180878334	-0.8232421875	0.7724609375	-0.365234375	38.875	-10.75	25.3125
19	03	08	12	07	05	-0.293755941534	-0.862286295863	0.0138546849633	-0.55810546875	0.63623046875	-0.4482421875	21.5	-5.1875	12.75
19	03	08	12	07	05	-0.296016867661	-0.860890292446	0.0123289499521	-0.70458984375	0.6650390625	-0.48486328125	-12.5625	-7.3125	-11.5
19	03	08	12	07	05	-0.297774929358	-0.858170379524	0.0119622640201	-0.7783203125	0.369140625	-0.3779296875	-15.8125	-20.375	5.1875
19	03	08	12	07	05	-0.288444860456	-0.859658455253	0.0151363363083	-0.78466796875	0.0966796875	-0.40576171875	44.3125	-13.375	10.375
19	03	08	12	07	05	-0.278128436505	-0.862033363441	0.0244132926492	-0.91064453125	0.64404296875	-0.48828125	81.8125	-11.875	17.6875
19	03	08	12	07	05	-0.277397897713	-0.861489840751	0.0308830222756	-0.6884765625	0.78076171875	-0.47998046875	28.1875	-17.875	13.3125
19	03	08	12	07	05	-0.276784249074	-0.860075774632	0.0328967387544	-0.73583984375	0.54150390625	-0.4140625	8.9375	-18.0625	2.6875
19	03	08	12	07	05	-0.275010186787	-0.858781255721	0.0382670632746	-0.75732421875	0.689453125	-0.34375	30.125	-20.0	9.0625
19	03	08	12	07	05	-0.272518680346	-0.858449101695	0.0430902997367	-0.74462890625	0.56396484375	-0.44287109375	26.4375	-15.25	12.875
19	03	08	12	07	05	-0.270872321633	-0.857294418579	0.0450436623175	-0.89013671875	0.57080078125	-0.40966796875	14.8125	-12.625	3.4375
19	03	08	12	07	05	-0.273542910751	-0.854134992407	0.0440646991438	-0.98193359375	0.5380859375	-0.404296875	-18.4375	-17.0625	2.8125
19	03	08	12	07	05	-0.276185581615	-0.851078839789	0.0416262025772	-0.88134765625	0.39306640625	-0.353515625	-25.3125	-15.375	-0.5
19	03	08	12	07	05	-0.277278173553	-0.848252708791	0.039672201807	-0.92724609375	0.40380859375	-0.3125	-14.4375	-15.0625	-2.0625
19	03	08	12	07	05	-0.279411335481	-0.845191824759	0.0364369959114	-0.89501953125	0.43017578125	-0.369140625	-24.875	-17.4375	-7.8125
19	03	08	12	07	05	-0.28246022242	-0.840667049181	0.0305774787019	-0.97412109375	0.3857421875	-0.36376953125	-40.3125	-25.6875	-16.5625
19	03	08	12	07	05	-0.284594753239	-0.834925203583	0.0243519851045	-0.98193359375	0.28369140625	-0.2705078125	-39.4375	-37.375	-19.6875
19	03	08	12	07	05	-0.283870292328	-0.829516478829	0.0204464734315	-0.9638671875	0.3134765625	-0.2236328125	-16.6875	-43.375	-20.5625
19	03	08	12	07	05	-0.283442313474	-0.82273953179	0.0167233406313	-1.02587890625	0.365234375	-0.14111328125	-16.125	-51.3125	-23.125
19	03	08	12	07	05	-0.282704834191	-0.814790487144	0.0139765559218	-1.0361328125	0.38427734375	-0.0908203125	-13.0	-63.375	-23.75
19	03	08	12	07	05	-0.282596693397	-0.805247986174	0.0119630565671	-0.986328125	0.3427734375	0.01220703125	-14.4375	-73.9375	-21.25
19	03	08	12	07	05	-0.280325609871	-0.797032906445	0.0131831769502	-0.89013671875	0.37646484375	0.02490234375	7.75	-71.3125	-15.9375
19	03	08	12	07	05	-0.276361245141	-0.790388278395	0.0158687994118	-0.8681640625	0.546875	-0.03857421875	23.375	-65.3125	-23.5
19	03	08	12	07	05	-0.272643943432	-0.783385944471	0.016906732109	-0.9892578125	0.72509765625	-0.15625	14.8125	-71.0625	-37.875
19	03	08	12	07	05	-0.271718137946	-0.774689650707	0.0153802719592	-0.92578125	0.70068359375	-0.2099609375	-11.9375	-81.625	-43.3125
19	03	08	12	07	05	-0.271969712512	-0.765433609652	0.0134886235335	-0.80810546875	0.630859375	-0.22509765625	-21.875	-86.375	-40.875
19	03	08	12	07	05	-0.271179507337	-0.757386114459	0.0119629042174	-0.767578125	0.5390625	-0.24755859375	-16.9375	-79.625	-36.5
19	03	08	12	07	06	-0.270015901529	-0.751088536215	0.0115965237998	-0.763671875	0.49951171875	-0.3046875	-10.875	-70.0625	-27.4375
19	03	08	12	07	06	-0.270447931434	-0.745730721341	0.0120850125082	-0.7705078125	0.51708984375	-0.310546875	-13.75	-60.5	-16.25
19	03	08	12	07	06	-0.272338266074	-0.741209301479	0.0133666697154	-0.7666015625	0.4931640625	-0.33984375	-17.5	-53.75	-3.3125
19	03	08	12	07	06	-0.274661238443	-0.738106301443	0.0161744951528	-0.7490234375	0.49755859375	-0.35546875	-12.4375	-43.875	6.6875
19	03	08	12	07	06	-0.276174823218	-0.7369748045	0.0213005554261	-0.72509765625	0.5107421875	-0.322265625	3.1875	-30.125	16.3125
19	03	08	12	07	06	-0.277825208231	-0.737286580719	0.0283196170077	-0.67822265625	0.52880859375	-0.30126953125	12.625	-18.5625	25.5625
19	03	08	12	07	06	-0.278261465107	-0.739324660416	0.0366824173128	-0.6201171875	0.54931640625	-0.29248046875	25.875	-7.0	27.0625
19	03	08	12	07	06	-0.278137117405	-0.742309331113	0.0454101416171	-0.62841796875	0.60107421875	-0.29150390625	31.625	0.875	25.875
19	03	08	12	07	06	-0.280943003674	-0.744563046235	0.0518795466267	-0.6572265625	0.638671875	-0.26611328125	11.5	6.6875	27.375
19	03	08	12	07	06	-0.285331925054	-0.747050858322	0.0563950157753	-0.64013671875	0.62451171875	-0.2646484375	-1.375	15.8125	26.8125
19	03	08	12	07	06	-0.290225532062	-0.750130765309	0.0584723574586	-0.65673828125	0.578125	-0.232421875	-9.625	28.4375	23.9375
19	03	08	12	07	06	-0.294798942593	-0.754453360122	0.0597532432294	-0.67333984375	0.5673828125	-0.20654296875	-7.0625	42.875	23.25
19	03	08	12	07	06	-0.298217081875	-0.759519723056	0.0602415595191	-0.72509765625	0.58203125	-0.21826171875	-3.3125	49.1875	18.3125
19	03	08	12	07	06	-0.301443211272	-0.764197296687	0.059812582921	-0.8134765625	0.5888671875	-0.24365234375	-6.5625	47.125	16.625
19	03	08	12	07	06	-0.305114513083	-0.767821679252	0.0578612839373	-0.86474609375	0.572265625	-0.26904296875	-16.5	41.5	12.9375
19	03	08	12	07	06	-0.309754007047	-0.770570313098	0.0535279338287	-0.90380859375	0.52587890625	-0.24951171875	-29.5625	41.8125	8.8125
19	03	08	12	07	06	-0.314020229328	-0.772874278714	0.0481558719028	-0.95166015625	0.45654296875	-0.19091796875	-31.375	43.0	8.0625
19	03	08	12	07	06	-0.317134470781	-0.775258284806	0.0432123181895	-0.95654296875	0.42724609375	-0.17626953125	-24.0	42.375	7.25
19	03	08	12	07	06	-0.318541408917	-0.778256659342	0.0400389278118	-0.9599609375	0.44482421875	-0.14892578125	-8.5625	42.875	9.1875
19	03	08	12	07	06	-0.320060289276	-0.781230301817	0.0380849772136	-0.91357421875	0.490234375	-0.150390625	-4.0	41.8125	11.3125
19	03	08	12	07	06	-0.323610627495	-0.783513697691	0.0358889190809	-0.8203125	0.50244140625	-0.14501953125	-14.9375	40.75	13.3125
19	03	08	12	07	06	-0.328677307062	-0.785590644232	0.032898248562	-0.76123046875	0.53173828125	-0.17236328125	-24.5625	42.9375	12.0625
19	03	08	12	07	06	-0.335067362324	-0.787316753002	0.0275255702019	-0.7978515625	0.6220703125	-0.22314453125	-38.4375	46.125	3.0625
19	03	08	12	07	06	-0.344966572194	-0.787893397107	0.0191648095663	-0.794921875	0.71435546875	-0.267578125	-65.75	49.875	-3.1875
19	03	08	12	07	06	-0.358943916917	-0.78636854711	0.00592034686973	-0.751953125	0.79248046875	-0.337890625	-104.125	53.0	-8.5
19	03	08	12	07	06	-0.377493327466	-0.782451812144	-0.0117795007601	-0.71826171875	0.81298828125	-0.40576171875	-143.4375	57.625	-14.1875
19	03	08	12	07	06	-0.398237563264	-0.776151278473	-0.0327744937123	-0.6962890625	0.71728515625	-0.392578125	-168.25	55.9375	-22.3125
19	03	08	12	07	06	-0.41765770153	-0.77000870415	-0.0523674277236	-0.64013671875	0.65869140625	-0.36865234375	-158.375	57.75	-17.5625
19	03	08	12	07	06	-0.433524738405	-0.765732981561	-0.0683581172763	-0.62548828125	0.61328125	-0.3935546875	-129.1875	59.875	-7.625
19	03	08	12	07	06	-0.445542701215	-0.764929681415	-0.0799535532318	-0.6083984375	0.60595703125	-0.3818359375	-99.5625	60.875	4.0625
19	03	08	12	07	06	-0.456043385748	-0.765056723815	-0.0887429179439	-0.58740234375	0.68408203125	-0.36376953125	-81.25	60.125	9.875
19	03	08	12	07	06	-0.465512352519	-0.765193177335	-0.0964349701036	-0.587890625	0.734375	-0.32470703125	-71.25	57.5625	8.1875
19	03	08	12	07	06	-0.473990981379	-0.765184771253	-0.103025595747	-0.59765625	0.7470703125	-0.263671875	-61.8125	54.25	8.625
19	03	08	12	07	06	-0.480578582909	-0.766032739914	-0.107968442109	-0.56884765625	0.7646484375	-0.23681640625	-44.875	52.3125	9.1875
19	03	08	12	07	06	-0.484795993742	-0.768605810046	-0.111753929818	-0.5380859375	0.78759765625	-0.2421875	-27.0	57.25	9.375
19	03	08	12	07	06	-0.489119146684	-0.770969935227	-0.11620699467	-0.54150390625	0.82080078125	-0.240234375	-28.5	60.125	6.8125
19	03	08	12	07	06	-0.49448226491	-0.77217842701	-0.122003214954	-0.51953125	0.82177734375	-0.2314453125	-39.1875	60.625	1.375
19	03	08	12	07	06	-0.500584303476	-0.772176616384	-0.12950986247	-0.5078125	0.8388671875	-0.2353515625	-48.8125	60.5625	-6.9375
19	03	08	12	07	06	-0.507115721808	-0.771506780524	-0.138786996196	-0.50146484375	0.85791015625	-0.271484375	-58.3125	63.6875	-13.875
19	03	08	12	07	06	-0.514500901087	-0.769554194758	-0.150627310069	-0.5322265625	0.84228515625	-0.27294921875	-71.375	69.375	-20.8125
19	03	08	12	07	06	-0.523046963558	-0.765955588407	-0.164482096475	-0.57275390625	0.81640625	-0.2666015625	-85.5	72.25	-25.625
19	03	08	12	07	06	-0.532565826951	-0.760459569541	-0.179373248385	-0.60693359375	0.72412109375	-0.1962890625	-95.0	70.125	-27.0
19	03	08	12	07	06	-0.541363111888	-0.754978770468	-0.193901984946	-0.599609375	0.7236328125	-0.24755859375	-93.9375	66.6875	-26.75
19	03	08	12	07	06	-0.551624688657	-0.747482580436	-0.209407424959	-0.60986328125	0.708984375	-0.3134765625	-108.1875	64.6875	-27.0625
19	03	08	12	07	06	-0.56399861938	-0.737391117774	-0.225452970457	-0.6103515625	0.65625	-0.3017578125	-126.125	58.0	-28.9375
19	03	08	12	07	06	-0.575662520036	-0.727146232369	-0.240042482114	-0.58740234375	0.60107421875	-0.328125	-120.5625	49.625	-27.25
19	03	08	12	07	06	-0.585984656042	-0.717573336224	-0.252740595841	-0.59423828125	0.54248046875	-0.30126953125	-108.4375	42.3125	-22.75
19	03	08	12	07	06	-0.592615440744	-0.711138528892	-0.262923513772	-0.60888671875	0.52880859375	-0.27978515625	-83.375	36.0	-12.6875
19	03	08	12	07	06	-0.597566859327	-0.706814605032	-0.270311880294	-0.6162109375	0.57763671875	-0.2216796875	-61.875	34.25	-3.5625
19	03	08	12	07	07	-0.600080409818	-0.705424061908	-0.274833409826	-0.6201171875	0.62939453125	-0.21142578125	-36.125	32.9375	6.125
19	03	08	12	07	07	-0.601232564117	-0.705781481215	-0.276783035049	-0.64501953125	0.6826171875	-0.14501953125	-15.8125	28.4375	13.4375
19	03	08	12	07	07	-0.602049309969	-0.707517802227	-0.276610652147	-0.611328125	0.7880859375	-0.11376953125	-4.875	28.8125	20.6875
19	03	08	12	07	07	-0.603179200754	-0.70913074305	-0.2762308067	-0.623046875	0.88232421875	-0.119140625	-6.125	29.3125	20.1875
19	03	08	12	07	07	-0.605815586285	-0.708595502395	-0.277395913728	-0.6552734375	0.8564453125	-0.10986328125	-20.625	27.625	13.9375
19	03	08	12	07	07	-0.610381644537	-0.705469595961	-0.280137161126	-0.6689453125	0.8369140625	-0.0908203125	-37.875	24.75	5.375
19	03	08	12	07	07	-0.616509794004	-0.700005031921	-0.284481947317	-0.701171875	0.77587890625	-0.08056640625	-54.1875	22.1875	-0.1875
19	03	08	12	07	07	-0.624041638536	-0.692518383615	-0.289591938861	-0.71630859375	0.70068359375	-0.0576171875	-66.9375	16.8125	-3.625
19	03	08	12	07	07	-0.631685231614	-0.684661345724	-0.294115085135	-0.68212890625	0.62255859375	-0.02880859375	-66.0	10.6875	-3.5
19	03	08	12	07	07	-0.638081897049	-0.677569126833	-0.298076708292	-0.6923828125	0.5390625	-0.0029296875	-55.375	7.25	-2.3125
19	03	08	12	07	07	-0.643697136863	-0.67134431644	-0.300640191162	-0.70751953125	0.46484375	0.0390625	-44.4375	1.0	3.5625
19	03	08	12	07	07	-0.649624848554	-0.664882854204	-0.302413671983	-0.755859375	0.3564453125	0.1181640625	-41.5	-1.375	12.1875
19	03	08	12	07	07	-0.653597567342	-0.66049424538	-0.303636931322	-0.8134765625	0.38232421875	0.10302734375	-26.4375	1.625	17.4375
19	03	08	12	07	07	-0.654927659898	-0.657490977549	-0.306682647562	-0.9296875	0.48046875	0.03662109375	-14.6875	7.4375	6.25
19	03	08	12	07	07	-0.656827161808	-0.650846018725	-0.31407104392	-1.18701171875	0.4912109375	-0.01318359375	-33.8125	5.4375	-15.0625
19	03	08	12	07	07	-0.661160802197	-0.640715046752	-0.321395069175	-1.32275390625	0.44775390625	0.00341796875	-51.0	-12.9375	-20.25
19	03	08	12	07	07	-0.665081919583	-0.632551070438	-0.325186424478	-1.20166015625	0.50244140625	0.06640625	-35.375	-20.75	-13.8125
19	03	08	12	07	07	-0.666089313958	-0.627456866118	-0.32712467682	-1.2490234375	0.69384765625	-0.0390625	-12.3125	-32.9375	-22.1875
19	03	08	12	07	07	-0.666652380578	-0.620207039406	-0.329694787136	-1.47119140625	0.7177734375	-0.14111328125	-15.375	-58.875	-42.75
19	03	08	12	07	07	-0.668990510015	-0.608811270632	-0.332267524544	-1.61669921875	0.5419921875	-0.1181640625	-29.5625	-84.8125	-51.5625
19	03	08	12	07	07	-0.670391779355	-0.598799503573	-0.331778014619	-1.4287109375	0.31494140625	0.0009765625	-8.5	-92.75	-43.9375
19	03	08	12	07	07	-0.666154286171	-0.596578849961	-0.326577332598	-1.19921875	0.20703125	0.12060546875	55.5	-83.375	-30.625
19	03	08	12	07	07	-0.65768407044	-0.603975645979	-0.315353896804	-0.97705078125	0.39794921875	0.1162109375	106.125	-65.6875	-16.5625
19	03	08	12	07	07	-0.649708373411	-0.611317902121	-0.304682404891	-0.904296875	0.75341796875	0.02783203125	95.0	-57.875	-16.25
19	03	08	12	07	07	-0.648289260564	-0.611425514247	-0.29759540901	-0.8779296875	0.912109375	-0.0380859375	28.125	-61.3125	-26.0
19	03	08	12	07	07	-0.654264662877	-0.602265269894	-0.295822837776	-0.822265625	0.82275390625	-0.0439453125	-48.3125	-65.375	-34.5
19	03	08	12	07	07	-0.663485853584	-0.58780537723	-0.298266522534	-0.7607421875	0.67822265625	0.0078125	-88.0625	-59.75	-42.1875
19	03	08	12	07	07	-0.671687958531	-0.572323306419	-0.304685714583	-0.71533203125	0.59716796875	0.03271484375	-97.6875	-42.125	-55.0625
19	03	08	12	07	07	-0.678762795206	-0.554680000255	-0.315730594335	-0.76416015625	0.6103515625	0.01806640625	-107.1875	-24.1875	-72.6875
19	03	08	12	07	07	-0.688133778666	-0.532197476715	-0.329144609166	-0.75244140625	0.541015625	0.02001953125	-139.625	-27.25	-81.375
19	03	08	12	07	07	-0.697972374769	-0.507244526644	-0.342943929156	-0.81884765625	0.35693359375	0.001953125	-151.375	-32.3125	-83.1875
19	03	08	12	07	07	-0.706171960755	-0.484921022317	-0.35503909211	-0.76513671875	0.298828125	0.12109375	-133.6875	-25.8125	-72.375
19	03	08	12	07	07	-0.712758543204	-0.464104809259	-0.367670616909	-0.7001953125	0.3173828125	0.119140625	-127.25	-13.625	-70.4375
19	03	08	12	07	07	-0.717699822977	-0.443046433794	-0.381463040531	-0.8076171875	0.2548828125	0.140625	-124.5625	-7.625	-78.625
19	03	08	12	07	07	-0.721484245418	-0.422661229974	-0.39544001574	-0.8662109375	0.28515625	0.19677734375	-120.625	-1.5625	-78.8125
19	03	08	12	07	07	-0.72568523618	-0.400194961617	-0.411058878526	-0.87353515625	0.2470703125	0.25439453125	-138.0	5.6875	-78.3125
19	03	08	12	07	07	-0.728272340335	-0.378662554428	-0.428040053869	-0.87255859375	0.125	0.32275390625	-135.9375	21.3125	-75.9375
19	03	08	12	07	07	-0.727903254616	-0.360960912947	-0.44512815998	-0.8427734375	0.11865234375	0.34033203125	-113.8125	37.875	-73.375
19	03	08	12	07	07	-0.725869408002	-0.345509687942	-0.462144383872	-0.8134765625	0.18359375	0.3603515625	-102.375	48.3125	-71.1875
19	03	08	12	07	07	-0.723921603948	-0.328666877773	-0.480274774595	-0.833984375	0.24560546875	0.30126953125	-116.375	52.0	-70.6875
19	03	08	12	07	07	-0.722629968419	-0.308704592928	-0.499432519559	-0.794921875	0.19287109375	0.2724609375	-137.5625	51.5	-72.125
19	03	08	12	07	07	-0.721212515077	-0.287337608613	-0.518342886566	-0.79052734375	0.1162109375	0.2724609375	-143.4375	49.1875	-73.375
19	03	08	12	07	07	-0.719462860643	-0.266960515138	-0.535080666717	-0.8291015625	0.0185546875	0.27490234375	-131.875	42.0	-69.875
19	03	08	12	07	07	-0.717362543026	-0.249313083909	-0.548732910018	-0.79736328125	-0.029296875	0.283203125	-108.8125	33.5	-63.625
19	03	08	12	07	07	-0.714425593581	-0.234357959965	-0.560200967323	-0.80078125	-0.03369140625	0.234375	-86.3125	30.125	-62.5625
19	03	08	12	07	07	-0.711643504367	-0.219535307479	-0.570291329743	-0.8701171875	-0.1298828125	0.255859375	-79.5625	24.25	-58.75
19	03	08	12	07	07	-0.709207130259	-0.206658807492	-0.577863434534	-0.8369140625	-0.2421875	0.26513671875	-61.125	16.0	-48.0625
19	03	08	12	07	07	-0.707199741913	-0.197627752163	-0.582324392646	-0.806640625	-0.26171875	0.28857421875	-35.0	10.1875	-36.625
19	03	08	12	07	07	-0.705658059592	-0.191153869801	-0.585362951872	-0.81396484375	-0.244140625	0.25537109375	-23.5625	6.0	-26.3125
19	03	08	12	07	07	-0.703905714308	-0.185360413973	-0.58891756155	-0.91552734375	-0.2294921875	0.17919921875	-24.375	5.0	-24.0625
19	03	08	12	07	07	-0.702460298181	-0.179185354949	-0.592483455668	-1.04150390625	-0.29345703125	0.16064453125	-27.4375	0.375	-20.1875
19	03	08	12	07	08	-0.702489467026	-0.174066026061	-0.59421698097	-1.09765625	-0.37939453125	0.18603515625	-21.375	-8.4375	-5.3125
19	03	08	12	07	08	-0.703112200921	-0.172604279879	-0.594837804703	-1.0224609375	-0.42431640625	0.18603515625	-8.4375	-5.25	18.4375
19	03	08	12	07	08	-0.703515040922	-0.175405762784	-0.595793686951	-0.8369140625	-0.40185546875	0.15478515625	0.375	8.75	42.125
19	03	08	12	07	08	-0.70451110257	-0.180049185877	-0.596176422932	-0.7294921875	-0.41162109375	0.20703125	3.9375	15.1875	58.0
19	03	08	12	07	08	-0.705486135994	-0.186152151119	-0.595503783104	-0.748046875	-0.4384765625	0.15380859375	16.0	8.875	62.5625
19	03	08	12	07	08	-0.708712678236	-0.192802562052	-0.592933488552	-0.861328125	-0.29833984375	0.14501953125	11.0625	-5.625	69.375
19	03	08	12	07	08	-0.713302752774	-0.200435204938	-0.589648147048	-0.8349609375	-0.201171875	0.0849609375	5.5	-12.5	81.5625
19	03	08	12	07	08	-0.71932591291	-0.20677720965	-0.585665319895	-0.84716796875	-0.19189453125	0.03955078125	-5.5625	-24.0625	88.1875
19	03	08	12	07	08	-0.72643142091	-0.212765916089	-0.580864378491	-0.90185546875	-0.16357421875	0.0556640625	-12.0625	-30.0	95.625
19	03	08	12	07	08	-0.735016301921	-0.220388928526	-0.573340790521	-0.8603515625	-0.16796875	0.01708984375	-5.8125	-35.0625	102.875
19	03	08	12	07	08	-0.744091438256	-0.228317427043	-0.564598908735	-0.87646484375	-0.0400390625	0.052734375	-4.6875	-41.0	105.9375
19	03	08	12	07	08	-0.753507492204	-0.23735547037	-0.554175281809	-0.93408203125	0.0439453125	0.0458984375	2.6875	-47.9375	110.75
19	03	08	12	07	08	-0.763706181593	-0.246939599674	-0.541973219256	-0.89599609375	0.03369140625	0.1025390625	3.9375	-55.75	120.4375
19	03	08	12	07	08	-0.772987110896	-0.260124047899	-0.527938295243	-0.84912109375	0.064453125	0.1875	26.8125	-55.5625	128.6875
19	03	08	12	07	08	-0.780529883198	-0.277387467287	-0.512541243185	-0.91259765625	0.20068359375	0.19677734375	53.125	-53.8125	132.75
19	03	08	12	07	08	-0.7879282574	-0.295396806027	-0.495949265657	-0.927734375	0.3564453125	0.20947265625	54.8125	-55.8125	139.9375
19	03	08	12	07	08	-0.794621059039	-0.313210082565	-0.479030775146	-0.91259765625	0.49462890625	0.22265625	54.3125	-55.6875	138.25
19	03	08	12	07	08	-0.799985011683	-0.330295917243	-0.462670611349	-0.9814453125	0.6044921875	0.2314453125	56.125	-53.125	127.1875
19	03	08	12	07	08	-0.804403217447	-0.345807938548	-0.447121242111	-1.0205078125	0.6982421875	0.283203125	53.1875	-51.0	113.9375
19	03	08	12	07	08	-0.80698375429	-0.36192812456	-0.432848947619	-1.00439453125	0.74853515625	0.34130859375	54.125	-44.6875	97.9375
19	03	08	12	07	08	-0.80866430955	-0.376013646124	-0.420200284623	-0.91064453125	0.7412109375	0.41162109375	51.875	-34.3125	81.875
19	03	08	12	07	08	-0.80946916304	-0.388408486284	-0.409464571728	-0.8662109375	0.71923828125	0.43896484375	49.25	-25.3125	70.1875
19	03	08	12	07	08	-0.810167087219	-0.399773574001	-0.399102198533	-0.84814453125	0.73974609375	0.44287109375	45.8125	-24.75	66.3125
19	03	08	12	07	08	-0.811430043781	-0.410445057874	-0.387801917878	-0.8037109375	0.7587890625	0.37548828125	38.625	-32.9375	69.3125
19	03	08	12	07	08	-0.813984443194	-0.419412243655	-0.374919879624	-0.703125	0.71240234375	0.3408203125	28.8125	-44.375	71.8125
19	03	08	12	07	08	-0.816722983289	-0.428074652876	-0.360451796391	-0.63671875	0.6572265625	0.34033203125	34.0	-56.125	68.5
19	03	08	12	07	08	-0.81868906627	-0.437968744562	-0.344039829027	-0.62939453125	0.623046875	0.3125	50.1875	-72.8125	63.4375
19	03	08	12	07	08	-0.819844411663	-0.449135340239	-0.325545305725	-0.626953125	0.63671875	0.28369140625	64.125	-89.0	58.125
19	03	08	12	07	08	-0.819727597802	-0.461405750829	-0.305833891191	-0.61376953125	0.6689453125	0.27685546875	78.25	-99.875	48.4375
19	03	08	12	07	08	-0.819351869712	-0.473240551043	-0.284530235873	-0.61669921875	0.703125	0.28271484375	85.3125	-109.5	43.3125
19	03	08	12	07	08	-0.818430922145	-0.484772320254	-0.262129814363	-0.5693359375	0.70458984375	0.2138671875	88.25	-118.375	38.3125
19	03	08	12	07	08	-0.816651600324	-0.495630195519	-0.23991162401	-0.47216796875	0.814453125	0.21728515625	89.25	-120.9375	26.25
19	03	08	12	07	08	-0.811166423874	-0.509916144118	-0.220566959287	-0.41748046875	0.974609375	0.20654296875	111.25	-97.25	19.5
19	03	08	12	07	08	-0.807872317372	-0.519438036802	-0.200121880234	-0.58837890625	0.748046875	0.34423828125	88.8125	-113.75	18.375
19	03	08	12	07	08	-0.800042198276	-0.532588359945	-0.179869114916	-0.62841796875	0.52197265625	0.27294921875	125.25	-119.625	-3.6875
19	03	08	12	07	08	-0.786469848746	-0.552713871663	-0.158563453907	-0.66748046875	0.7333984375	0.26318359375	174.75	-110.0625	-0.4375
19	03	08	12	07	08	-0.773835637948	-0.571206541175	-0.137934264671	-0.59912109375	0.96240234375	0.13427734375	156.8125	-94.3125	16.6875
19	03	08	12	07	08	-0.766949161032	-0.581345755119	-0.119015666402	-0.44091796875	0.9716796875	0.1689453125	89.0625	-94.0	19.4375
19	03	08	12	07	08	-0.763877208863	-0.583771612558	-0.102594885594	-0.3515625	0.85693359375	0.23974609375	50.5	-103.3125	1.75
19	03	08	12	07	08	-0.759800645679	-0.585795372899	-0.0877045166552	-0.25927734375	0.8203125	0.26025390625	51.5	-101.8125	-13.375
19	03	08	12	07	08	-0.754039247113	-0.58943836897	-0.0737866005472	-0.2041015625	0.8486328125	0.1787109375	55.9375	-91.5	-27.8125
19	03	08	12	07	08	-0.746988441803	-0.592940004258	-0.0629254909305	-0.17919921875	0.837890625	0.15869140625	54.8125	-83.75	-48.5
19	03	08	12	07	08	-0.737207003746	-0.597687572455	-0.0549289099571	-0.2080078125	0.791015625	0.14208984375	66.0625	-77.1875	-69.9375
19	03	08	12	07	08	-0.723633636051	-0.605164262942	-0.0488281805702	-0.28369140625	0.8037109375	0.12451171875	87.25	-70.5625	-86.5
19	03	08	12	07	08	-0.709203456804	-0.611001360247	-0.0461409477921	-0.375	0.8779296875	0.078125	82.3125	-68.125	-103.0
19	03	08	12	07	08	-0.696515722694	-0.61302172439	-0.0471789917317	-0.44189453125	0.9072265625	0.0751953125	53.5	-63.75	-116.625
19	03	08	12	07	08	-0.68461715229	-0.612719229013	-0.0516957054462	-0.5146484375	0.9580078125	0.08544921875	34.0625	-56.25	-129.375
19	03	08	12	07	08	-0.67428679269	-0.609775465764	-0.0595066639095	-0.63671875	0.9736328125	0.119140625	10.375	-47.6875	-134.5625
19	03	08	12	07	08	-0.666977475844	-0.605272293919	-0.0688461376969	-0.6865234375	0.951171875	0.22998046875	-9.4375	-31.0625	-117.125
19	03	08	12	07	09	-0.660990514033	-0.601544091072	-0.079038108557	-0.6640625	0.8525390625	0.25927734375	-14.3125	-11.625	-100.75
19	03	08	12	07	09	-0.653962268157	-0.597507289338	-0.0889242206911	-0.90673828125	0.54345703125	0.2763671875	-6.625	-21.75	-86.875
19	03	08	12	07	09	-0.646011202431	-0.60011169145	-0.0837421929078	-1.01611328125	1.10791015625	0.4375	55.75	-37.375	-36.875
19	03	08	12	07	09	-0.645668891773	-0.602091276807	-0.0722021267574	-0.51904296875	1.1103515625	0.33642578125	35.5625	-30.6875	15.0625
19	03	08	12	07	09	-0.64627392627	-0.610508837896	-0.0607884437213	-0.45947265625	1.2822265625	0.1376953125	39.4375	13.5625	49.125
19	03	08	12	07	09	-0.654399957332	-0.611615554227	-0.0582868829744	-0.62060546875	1.28466796875	0.0458984375	-42.125	27.25	55.25
19	03	08	12	07	09	-0.668165198503	-0.606829244494	-0.058528537209	-0.62890625	0.95068359375	0.08837890625	-84.125	26.25	79.875
19	03	08	12	07	09	-0.681198698685	-0.603624686855	-0.0573107766387	-0.56591796875	0.83984375	0.14111328125	-67.9375	34.5	94.125
19	03	08	12	07	09	-0.691615512561	-0.605133057452	-0.0543795818648	-0.564453125	0.7109375	0.10400390625	-31.5	55.3125	113.1875
19	03	08	12	07	09	-0.699658834764	-0.609455087575	-0.0511439378518	-0.623046875	0.720703125	0.04833984375	-12.5	65.375	116.75
19	03	08	12	07	09	-0.709270746213	-0.611006749878	-0.0499254341624	-0.623046875	0.86376953125	-0.013671875	-34.75	67.5	112.3125
19	03	08	12	07	09	-0.721970319691	-0.608508249837	-0.0510853967015	-0.583984375	0.9541015625	-0.013671875	-67.875	72.75	113.375
19	03	08	12	07	09	-0.736523750602	-0.603048655925	-0.0530970884176	-0.51123046875	0.80908203125	0.0625	-86.75	74.0625	117.875
19	03	08	12	07	09	-0.747907612805	-0.600938334885	-0.0550524454668	-0.3203125	0.75634765625	0.06494140625	-61.875	87.3125	118.0
19	03	08	12	07	09	-0.754489348181	-0.603310726967	-0.0578592381553	-0.15380859375	0.76416015625	0.1357421875	-26.25	98.875	104.5
19	03	08	12	07	09	-0.757354868396	-0.607946800233	-0.0637791794241	-0.1572265625	0.78271484375	0.11328125	-7.75	107.75	78.4375
19	03	08	12	07	09	-0.759138951736	-0.611253947712	-0.0724471728341	-0.24853515625	0.83251953125	0.08544921875	-11.75	103.375	49.75
19	03	08	12	07	09	-0.760849157782	-0.612963909161	-0.0829451311909	-0.2763671875	0.88623046875	0.06201171875	-28.75	98.5	28.3125
19	03	08	12	07	09	-0.766471708598	-0.607415706639	-0.0963124985004	-0.3203125	0.87109375	0.126953125	-71.1875	86.0	2.3125
19	03	08	12	07	09	-0.776577194657	-0.593907001038	-0.111445296876	-0.37353515625	0.77294921875	0.17529296875	-115.5	69.8125	-18.5625
19	03	08	12	07	09	-0.787321250351	-0.577307884269	-0.127619281743	-0.3583984375	0.5537109375	0.26220703125	-128.0625	59.9375	-37.75
19	03	08	12	07	09	-0.793932902379	-0.563345686421	-0.14648208531	-0.43798828125	0.43408203125	0.29296875	-95.4375	62.375	-57.3125
19	03	08	12	07	09	-0.798612880553	-0.547585385122	-0.172234279627	-0.75244140625	0.24658203125	0.35009765625	-94.3125	74.8125	-80.875
19	03	08	12	07	09	-0.802356648979	-0.532829267122	-0.189450406088	-1.26953125	0.38720703125	0.6484375	-60.9375	19.5625	-53.875
19	03	08	12	07	09	-0.804701489895	-0.522857615771	-0.198901945815	-0.93408203125	0.20458984375	0.65478515625	-25.125	5.75	-31.4375
19	03	08	12	07	09	-0.800318807528	-0.522254864334	-0.204031554455	-1.037109375	0.23974609375	0.85595703125	59.1875	-7.8125	-38.25
19	03	08	12	07	09	-0.786719516127	-0.540327996608	-0.201959261355	-0.99365234375	0.3974609375	0.68505859375	141.4375	6.6875	-14.3125
19	03	08	12	07	09	-0.775374244523	-0.556689899582	-0.199580744615	-1.0185546875	0.884765625	0.3671875	114.0625	15.875	9.6875
19	03	08	12	07	09	-0.772776464214	-0.560876299647	-0.201036619264	-0.9580078125	0.9423828125	0.419921875	25.6875	20.9375	25.0625
19	03	08	12	07	09	-0.775175395384	-0.559302993725	-0.202140060587	-0.6845703125	0.685546875	0.3046875	-19.8125	15.625	33.0
19	03	08	12	07	09	-0.778031508917	-0.557707242586	-0.200916200765	-0.3408203125	0.6376953125	0.24267578125	-20.8125	7.75	23.0
19	03	08	12	07	09	-0.777574448649	-0.557119275296	-0.20434217065	-0.66650390625	0.66162109375	0.193359375	-8.25	9.0	-1.0
19	03	08	12	07	09	-0.776149202639	-0.557958324332	-0.206716784567	-0.79248046875	0.7099609375	0.134765625	-1.125	-0.25	4.0625
19	03	08	12	07	09	-0.776850533059	-0.557064331806	-0.206114413116	-0.60888671875	0.72802734375	0.2197265625	-8.0	-9.6875	5.125
19	03	08	12	07	09	-0.778690883857	-0.554219916632	-0.205734537933	-0.59375	0.640625	0.36572265625	-10.375	-9.1875	2.8125
19	03	08	12	07	09	-0.781096910245	-0.550759377875	-0.20299486822	-0.39599609375	0.728515625	0.52001953125	-3.9375	-16.75	-12.0625
19	03	08	12	07	09	-0.782931466294	-0.546733713366	-0.197319724862	-0.31640625	1.0087890625	0.67431640625	6.875	-41.1875	-46.0
19	03	08	12	07	09	-0.781719250705	-0.550157505141	-0.184382718331	0.1669921875	1.43408203125	0.3681640625	31.0625	-55.4375	-51.6875
19	03	08	12	07	09	-0.783572030547	-0.552693224444	-0.170458499986	0.3955078125	1.38330078125	0.16552734375	-0.375	-40.4375	-16.1875
19	03	08	12	07	09	-0.781275497572	-0.558202148332	-0.16405503769	-0.07470703125	1.09228515625	-0.00390625	14.6875	-18.4375	-8.25
19	03	08	12	07	09	-0.779220740954	-0.562550134673	-0.159664874938	-0.21533203125	1.08642578125	-0.02294921875	5.75	-15.9375	-8.5625
19	03	08	12	07	09	-0.781351986306	-0.560898668501	-0.157710789925	-0.380859375	1.01904296875	0.0517578125	-33.75	-13.5625	1.625
19	03	08	12	07	09	-0.785304269432	-0.556188529364	-0.15752470035	-0.44775390625	0.9052734375	0.2373046875	-42.875	-6.375	4.0
19	03	08	12	07	09	-0.787960189164	-0.553342143684	-0.157775142447	-0.4931640625	0.76171875	0.435546875	-17.4375	6.0625	12.6875
19	03	08	12	07	09	-0.788891802019	-0.55215102374	-0.16057359826	-0.80322265625	0.5361328125	0.55078125	4.4375	18.0625	28.6875
19	03	08	12	07	09	-0.787256578448	-0.555577690799	-0.159477590471	-0.9873046875	0.59765625	0.638671875	42.375	6.1875	49.25
19	03	08	12	07	09	-0.786804697502	-0.55999791324	-0.150207614658	-0.6083984375	0.72216796875	0.5986328125	47.6875	-20.0	58.125
19	03	08	12	07	09	-0.786590768878	-0.562478315175	-0.14129093963	-0.56201171875	0.54345703125	0.51318359375	40.0625	-34.5	44.125
19	03	08	12	07	09	-0.783978876403	-0.567736201503	-0.131588825031	-0.56005859375	0.40380859375	0.3828125	58.5625	-41.9375	43.5625
19	03	08	12	07	09	-0.779071715347	-0.57577458383	-0.119012130429	-0.40380859375	0.3369140625	0.31591796875	81.5625	-54.5625	37.75
19	03	08	12	07	10	-0.769472250938	-0.589249253078	-0.104850359067	-0.396484375	0.45947265625	0.30517578125	115.3125	-57.25	22.625
19	03	08	12	07	10	-0.759233639687	-0.601527874015	-0.0909981798049	-0.57080078125	0.6513671875	0.25732421875	112.125	-67.6875	8.625
19	03	08	12	07	10	-0.752532278157	-0.607091530481	-0.0786710548698	-0.5693359375	0.767578125	0.27978515625	73.3125	-84.9375	-1.25
19	03	08	12	07	10	-0.748289582802	-0.607786922149	-0.0666502630033	-0.45703125	0.73583984375	0.36328125	50.1875	-97.125	-19.625
19	03	08	12	07	10	-0.74276277781	-0.607637322587	-0.0563938214213	-0.419921875	0.740234375	0.33740234375	42.4375	-105.0	-49.3125
19	03	08	12	07	10	-0.736076405254	-0.606072861043	-0.0494379675171	-0.498046875	0.74658203125	0.3759765625	36.75	-105.5625	-78.0625
19	03	08	12	07	10	-0.72801566296	-0.603872146992	-0.0446159833688	-0.5849609375	0.77001953125	0.3623046875	35.5625	-105.375	-96.9375
19	03	08	12	07	10	-0.721121038652	-0.598075756052	-0.0425409533593	-0.60693359375	0.76220703125	0.30224609375	10.6875	-106.9375	-111.4375
19	03	08	12	07	10	-0.715246062145	-0.58829736266	-0.0451034081342	-0.5927734375	0.66650390625	0.271484375	-18.5625	-102.25	-134.0
19	03	08	12	07	10	-0.707941451362	-0.577510303715	-0.0518184578159	-0.60546875	0.52197265625	0.21240234375	-26.875	-92.0625	-155.5625
19	03	08	12	07	10	-0.697503817903	-0.567927286103	-0.0615839475205	-0.634765625	0.53955078125	0.16259765625	-19.3125	-78.75	-175.5625
19	03	08	12	07	10	-0.68623427465	-0.557702668245	-0.0756786286522	-0.7080078125	0.646484375	0.18017578125	-31.4375	-59.1875	-188.8125
19	03	08	12	07	10	-0.677170359236	-0.545276249609	-0.0947245063122	-0.845703125	0.6025390625	0.22705078125	-61.25	-34.1875	-182.25
19	03	08	12	07	10	-0.672785280382	-0.529597920519	-0.12017728541	-0.9892578125	0.5908203125	0.05615234375	-112.375	-3.375	-165.5
19	03	08	12	07	10	-0.672603490532	-0.518063378189	-0.140685212856	-1.0419921875	0.7578125	0.01416015625	-103.8125	17.75	-96.5625
19	03	08	12	07	10	-0.686336757629	-0.504697078598	-0.149840528233	-1.25244140625	0.912109375	0.4013671875	-128.4375	2.75	31.9375
19	03	08	12	07	10	-0.702494352623	-0.492112247194	-0.153987250362	-0.634765625	0.64453125	0.6435546875	-117.0	1.25	65.875
19	03	08	12	07	10	-0.70537874298	-0.495846405466	-0.149779305639	-0.33056640625	0.28076171875	0.4658203125	21.5625	21.75	49.3125
19	03	08	12	07	10	-0.698582796262	-0.512432391876	-0.141718439011	-0.5673828125	0.5576171875	0.212890625	96.0625	26.625	34.6875
19	03	08	12	07	10	-0.694872819663	-0.521291941392	-0.134641145382	-0.5966796875	1.00537109375	0.28271484375	46.25	1.1875	2.5
19	03	08	12	07	10	-0.699565707444	-0.517075612761	-0.131099907485	-0.8525390625	0.97998046875	0.44189453125	-33.4375	-30.5	14.8125
19	03	08	12	07	10	-0.707437766254	-0.50798072026	-0.124935303902	-0.7509765625	0.67333984375	0.55517578125	-41.375	-52.9375	33.9375
19	03	08	12	07	10	-0.711284631728	-0.504075834344	-0.114010613701	-0.3408203125	0.32568359375	0.58154296875	17.75	-46.0625	34.75
19	03	08	12	07	10	-0.702333486954	-0.518617158134	-0.0955813192465	-0.40771484375	0.44384765625	0.43994140625	137.9375	-33.0	30.75
19	03	08	12	07	10	-0.688689471889	-0.535193014799	-0.0753749998035	-0.5087890625	0.80810546875	0.396484375	164.25	-43.125	8.25
19	03	08	12	07	10	-0.67852687403	-0.543212123672	-0.0594481582536	-0.47802734375	0.94287109375	0.3359375	107.4375	-59.0625	-10.4375
19	03	08	12	07	10	-0.671012498769	-0.54467123331	-0.0484613356397	-0.42578125	0.83251953125	0.45166015625	61.625	-59.1875	-40.0625
19	03	08	12	07	10	-0.659658841953	-0.546501227872	-0.0456536652277	-0.4501953125	0.5546875	0.4013671875	57.9375	-38.625	-76.875
19	03	08	12	07	10	-0.646220121216	-0.55137444041	-0.0505965697476	-0.744140625	0.59130859375	0.2275390625	43.3125	-8.4375	-88.75
19	03	08	12	07	10	-0.638294597725	-0.556020633513	-0.0594472115303	-0.95068359375	0.73974609375	0.06201171875	-0.4375	14.625	-56.0625
19	03	08	12	07	10	-0.643342672034	-0.551977148836	-0.0667694605071	-0.93896484375	1.0400390625	0.177734375	-74.0625	4.3125	-5.75
19	03	08	12	07	10	-0.655737734425	-0.539408981464	-0.0751925622498	-0.65673828125	0.56005859375	0.4833984375	-111.0	0.25	19.0625
19	03	08	12	07	10	-0.661982138279	-0.53594552427	-0.0816033670366	-0.4404296875	0.25439453125	0.24267578125	-50.625	26.1875	24.8125
19	03	08	12	07	10	-0.659452478034	-0.54452892263	-0.0788535494327	-0.68798828125	0.44091796875	0.24853515625	44.8125	24.875	35.3125
19	03	08	12	07	10	-0.653900244399	-0.556980924994	-0.0721401987007	-0.64990234375	0.513671875	0.203125	77.9375	22.5	36.1875
19	03	08	12	07	10	-0.648316597422	-0.569764209841	-0.06384288843	-0.69921875	0.6220703125	0.18994140625	81.4375	19.125	42.5
19	03	08	12	07	10	-0.644032330752	-0.580312680136	-0.0555410747711	-0.7763671875	0.6474609375	0.1650390625	68.5625	9.25	47.625
19	03	08	12	07	10	-0.643664935377	-0.587391554909	-0.0468741390451	-0.67333984375	0.7763671875	0.306640625	48.25	10.8125	55.0625
19	03	08	12	07	10	-0.642019055285	-0.598318547292	-0.0371698454861	-0.56787109375	0.708984375	0.1142578125	62.0625	23.6875	67.3125
19	03	08	12	07	10	-0.641955782711	-0.608020869687	-0.0277094433686	-0.57763671875	0.9462890625	0.2275390625	54.0	31.0	67.625
19	03	08	12	07	10	-0.642365252534	-0.618440579946	-0.0176993751292	-0.609375	0.869140625	0.13525390625	54.625	34.9375	87.0
19	03	08	12	07	10	-0.644395650268	-0.626207555574	-0.00659165847973	-0.5029296875	0.89501953125	0.11376953125	41.5625	23.5625	88.1875
19	03	08	12	07	10	-0.647075218332	-0.632854455658	0.00543196514163	-0.5693359375	0.931640625	0.17724609375	41.625	19.9375	98.8125
19	03	08	12	07	10	-0.652497153701	-0.637727318214	0.0154411916459	-0.37060546875	1.05126953125	0.09375	21.3125	33.0	105.125
19	03	08	12	07	10	-0.658711754671	-0.642233280312	0.022215424692	-0.35302734375	1.1396484375	0.05615234375	9.0625	49.6875	101.125
19	03	08	12	07	10	-0.667830569727	-0.643722264568	0.0296013367133	-0.3662109375	0.98046875	0.017578125	-11.625	44.9375	116.8125
19	03	08	12	07	10	-0.674368082207	-0.647512986165	0.0387567863337	-0.20458984375	0.8193359375	0.09814453125	12.6875	47.25	119.9375
19	03	08	12	07	10	-0.6744355307	-0.658261284941	0.0463865161386	-0.033203125	0.8779296875	0.01025390625	59.6875	72.1875	104.3125
19	03	08	12	07	10	-0.670426990237	-0.674149889318	0.0527308984584	-0.22802734375	1.03173828125	-0.1103515625	91.8125	101.0625	109.375
19	03	08	12	07	10	-0.66874477959	-0.687298983569	0.0560898468963	-0.25341796875	1.13037109375	-0.19091796875	67.4375	114.3125	110.0
19	03	08	12	07	11	-0.6701368065	-0.696685942276	0.0557837013789	-0.14306640625	1.18603515625	-0.17919921875	35.4375	126.1875	102.1875
19	03	08	12	07	11	-0.674562172749	-0.702333235778	0.0515748313403	-0.16943359375	1.0693359375	-0.1767578125	3.75	138.3125	95.4375
19	03	08	12	07	11	-0.68070278031	-0.7056653408	0.0465072642873	-0.14501953125	1.00146484375	-0.11279296875	-11.0625	147.1875	102.5625
19	03	08	12	07	11	-0.681972966202	-0.712855221518	0.0419901020894	-0.1259765625	1.0908203125	-0.2216796875	23.25	158.875	109.1875
19	03	08	12	07	11	-0.689863272204	-0.711652282924	0.0380239598852	-0.11962890625	1.19873046875	-0.2861328125	-37.9375	141.4375	111.125
19	03	08	12	07	11	-0.703151712106	-0.703762033877	0.0335676973924	-0.13427734375	1.162109375	-0.1962890625	-85.1875	143.0625	118.3125
19	03	08	12	07	11	-0.717701294769	-0.692860370628	0.0291743531677	-0.1044921875	1.0654296875	-0.02783203125	-99.9375	145.625	124.4375
19	03	08	12	07	11	-0.72926215232	-0.683183574615	0.0236801167546	0.01904296875	0.94091796875	-0.02197265625	-83.6875	154.4375	122.0
19	03	08	12	07	11	-0.733210995909	-0.679866584819	0.013122480989	0.091796875	0.81982421875	0.00634765625	-27.625	173.375	96.0625
19	03	08	12	07	11	-0.73125018423	-0.681202178966	-0.000915512291415	-0.0556640625	0.90478515625	-0.02392578125	14.4375	182.875	80.8125
19	03	08	12	07	11	-0.728114275288	-0.682157020528	-0.0140984407034	-0.08251953125	1.05712890625	-0.056640625	16.625	174.0625	79.6875
19	03	08	12	07	11	-0.726412078474	-0.680576465054	-0.0247793063234	-0.0400390625	1.01318359375	0.0419921875	1.4375	149.375	72.5625
19	03	08	12	07	11	-0.722571006665	-0.680946424644	-0.0349109397595	-0.05078125	0.82763671875	-0.0087890625	17.5625	126.5625	54.8125
19	03	08	12	07	11	-0.716924438998	-0.68329667311	-0.0454676689413	-0.0537109375	0.87548828125	0.00537109375	34.5625	108.375	34.625
19	03	08	12	07	11	-0.709293434773	-0.687688730255	-0.0572463639491	-0.09912109375	0.99951171875	0.00048828125	50.0625	98.6875	30.4375
19	03	08	12	07	11	-0.703574278956	-0.690086257126	-0.0676842362389	-0.14697265625	1.07275390625	-0.04052734375	31.625	87.875	30.8125
19	03	08	12	07	11	-0.69961347329	-0.69064172239	-0.0767786573671	-0.1123046875	1.037109375	-0.01025390625	18.625	80.0	28.25
19	03	08	12	07	11	-0.698022717262	-0.689173080644	-0.0846513516519	-0.15234375	1.0244140625	0.1708984375	13.75	66.5	24.0
19	03	08	12	07	11	-0.706324211887	-0.680690740099	-0.0897781833306	-0.53271484375	0.421875	0.44140625	-31.3125	8.9375	-3.5
19	03	08	12	07	11	-0.702586035848	-0.684581963526	-0.0953910679318	-0.00634765625	0.76904296875	0.1494140625	45.375	7.1875	-23.5625
19	03	08	12	07	11	-0.698266235241	-0.689355574429	-0.105890387042	0.0546875	1.18408203125	0.185546875	61.6875	8.0	-64.0
19	03	08	12	07	11	-0.701925794892	-0.685874452917	-0.114495503975	-0.232421875	1.08056640625	0.08349609375	-13.0	6.375	-47.625
19	03	08	12	07	11	-0.705419919283	-0.682044263539	-0.11773274133	-0.10791015625	0.9423828125	0.0947265625	-21.5625	8.125	-13.75
19	03	08	12	07	11	-0.706065039963	-0.680554175868	-0.121329181385	0.1279296875	1.11279296875	0.03125	-7.25	19.0625	-18.1875
19	03	08	12	07	11	-0.710846373693	-0.674593025537	-0.126581555683	-0.01318359375	1.111328125	0.03466796875	-40.3125	23.1875	-25.875
19	03	08	12	07	11	-0.717494905793	-0.666899186424	-0.13030381285	0.00146484375	0.9931640625	0.05859375	-54.4375	15.125	-26.4375
19	03	08	12	07	11	-0.72367302219	-0.659587952332	-0.134151412901	0.01171875	0.97705078125	0.1318359375	-47.0625	14.9375	-29.0625
19	03	08	12	07	11	-0.727809293163	-0.654265461024	-0.138665217112	-0.0595703125	0.93115234375	0.10498046875	-32.6875	16.5	-24.125
19	03	08	12	07	11	-0.730603821565	-0.650591992137	-0.143301125473	-0.1240234375	0.95703125	0.08251953125	-22.1875	12.25	-23.4375
19	03	08	12	07	11	-0.734012148243	-0.646372550265	-0.147205230029	-0.1611328125	1.0087890625	0.08740234375	-27.75	7.9375	-20.5
19	03	08	12	07	11	-0.738609994213	-0.640470441189	-0.150810221096	-0.1650390625	0.95751953125	0.0869140625	-41.0625	11.5625	-16.625
19	03	08	12	07	11	-0.743596924136	-0.634535228188	-0.15239342741	-0.1591796875	0.92431640625	0.11962890625	-42.5	2.5	-11.1875
19	03	08	12	07	11	-0.747931022184	-0.629775619577	-0.152088462446	-0.166015625	0.95751953125	0.11328125	-38.0625	-7.25	-3.6875
19	03	08	12	07	11	-0.752463773001	-0.624479627329	-0.151969729481	-0.16064453125	0.88427734375	0.1357421875	-40.375	-2.8125	-1.625
19	03	08	12	07	11	-0.757707762528	-0.618250473976	-0.153555596498	-0.3408203125	0.6708984375	0.0947265625	-44.5	-5.0	-4.875
19	03	08	12	07	11	-0.75880236509	-0.617758991349	-0.153188605837	-0.416015625	0.67041015625	0.154296875	-2.125	-18.75	11.0625
19	03	08	12	07	11	-0.758063013491	-0.619950413899	-0.149708443128	-0.2861328125	0.7314453125	0.1318359375	10.75	-26.5625	22.8125
19	03	08	12	07	11	-0.755013418978	-0.624407266152	-0.147633777424	-0.23486328125	0.72998046875	0.11669921875	28.4375	-16.5	21.6875
19	03	08	12	07	11	-0.751856018151	-0.628692981814	-0.146721476389	-0.29345703125	0.74462890625	0.11376953125	29.375	-12.3125	21.5
19	03	08	12	07	11	-0.750656981124	-0.631152438556	-0.14336883069	-0.2119140625	0.7333984375	0.18603515625	17.75	-21.5	21.8125
19	03	08	12	07	11	-0.748742007901	-0.634734013871	-0.139824579402	-0.11865234375	0.8583984375	0.17333984375	24.5	-26.1875	12.0625
19	03	08	12	07	11	-0.74689886569	-0.638080375943	-0.136953836788	-0.10498046875	0.90478515625	0.16748046875	23.0625	-24.125	7.0625
19	03	08	12	07	11	-0.744951806497	-0.641625294257	-0.132560652442	-0.0361328125	0.96533203125	0.19921875	24.8125	-26.125	12.9375
19	03	08	12	07	11	-0.741025723998	-0.647283711804	-0.126820248268	0.08740234375	1.060546875	0.146484375	34.9375	-24.1875	20.6875
19	03	08	12	07	11	-0.737998806307	-0.651821638386	-0.120904369442	0.1572265625	1.1572265625	0.07373046875	21.4375	-24.0	15.875
19	03	08	12	07	11	-0.737035439514	-0.65354218999	-0.116451111179	0.34765625	1.10107421875	0.11962890625	6.125	-12.875	-2.3125
19	03	08	12	07	11	-0.736486425766	-0.654580004669	-0.117183553283	0.23291015625	0.857421875	0.0576171875	5.875	-6.0625	-30.875
19	03	08	12	07	11	-0.73456910163	-0.656937671149	-0.118766323677	0.11474609375	1.03125	0.12109375	20.625	-2.625	-23.0625
19	03	08	12	07	11	-0.732992570985	-0.659082995342	-0.115960523303	0.34423828125	1.267578125	0.11865234375	11.8125	-7.0625	-9.5625
19	03	08	12	07	11	-0.736151900168	-0.656201726962	-0.112296426489	0.4091796875	1.291015625	0.10107421875	-30.0	-12.6875	-20.0625
19	03	08	12	07	12	-0.7435424545	-0.648211804091	-0.109917094357	0.3857421875	1.28955078125	0.1025390625	-68.125	-5.5625	-28.875
19	03	08	12	07	12	-0.75197939211	-0.638337185462	-0.109492007909	0.23486328125	1.08984375	0.134765625	-77.5	4.9375	-24.3125
19	03	08	12	07	12	-0.757780259757	-0.631137698627	-0.109858607246	0.1708984375	0.990234375	0.150390625	-54.875	9.5625	-17.25
19	03	08	12	07	12	-0.765256147094	-0.621225163192	-0.112295343381	-0.0546875	0.5693359375	0.15673828125	-66.75	19.375	-9.125
19	03	08	12	07	12	-0.764936598444	-0.622849915193	-0.114255271067	-0.64013671875	0.9599609375	0.27294921875	20.125	-29.6875	1.1875
19	03	08	12	07	12	-0.765485212562	-0.624314163554	-0.104611836576	-0.0419921875	0.89697265625	0.35302734375	11.25	-52.3125	26.375
19	03	08	12	07	12	-0.76636501171	-0.624834354534	-0.095330265851	0.0869140625	1.0576171875	0.31298828125	0.0	-42.5	24.25
19	03	08	12	07	12	-0.766760984434	-0.625041729013	-0.0941133039876	-0.13818359375	0.90673828125	0.259765625	5.125	-17.9375	0.9375
19	03	08	12	07	12	-0.767851225585	-0.62350911061	-0.0997883120445	-0.3916015625	0.82568359375	0.20654296875	-2.5625	6.3125	-13.1875
19	03	08	12	07	12	-0.767347619812	-0.623679736488	-0.103326136987	-0.34326171875	0.84423828125	0.142578125	3.125	8.4375	6.5625
19	03	08	12	07	12	-0.768656199823	-0.622114708972	-0.101742884318	-0.08740234375	0.69091796875	0.18896484375	-10.0625	-3.5	14.125
19	03	08	12	07	12	-0.765737143353	-0.625602241301	-0.102171527018	-0.03564453125	0.7763671875	0.1337890625	24.25	2.0	4.4375
19	03	08	12	07	12	-0.762058106953	-0.629555451964	-0.105159868515	-0.01513671875	0.78955078125	0.0751953125	27.125	13.25	-5.5625
19	03	08	12	07	12	-0.760024851373	-0.631553614551	-0.106866097708	0.02099609375	0.82958984375	0.02294921875	7.875	11.25	-2.25
19	03	08	12	07	12	-0.760724474292	-0.630356416118	-0.107053171366	0.19970703125	0.958984375	0.091796875	-14.875	10.375	-9.3125
19	03	08	12	07	12	-0.762654547929	-0.627651998311	-0.107416133511	0.31005859375	0.93701171875	0.11474609375	-24.0625	12.4375	-19.5625
19	03	08	12	07	12	-0.763158460739	-0.626444213134	-0.111080326179	0.24658203125	0.9052734375	0.134765625	-7.75	19.125	-34.0625
19	03	08	12	07	12	-0.762836254127	-0.626186092275	-0.115411101412	0.15576171875	0.97900390625	0.10107421875	-2.5625	19.0625	-32.0625
19	03	08	12	07	12	-0.764179421595	-0.624111394077	-0.118951017705	0.03466796875	0.9453125	0.1298828125	-14.75	12.0	-25.9375
19	03	08	12	07	12	-0.766022428823	-0.62204609948	-0.118708758191	0.13427734375	1.14453125	0.2041015625	-17.1875	-1.5625	-18.375
19	03	08	12	07	12	-0.766838444295	-0.621087870833	-0.120299154227	0.12890625	1.197265625	0.095703125	-15.0	2.125	-28.9375
19	03	08	12	07	12	-0.769630206132	-0.616558631431	-0.128169978817	-0.12109375	0.943359375	0.05810546875	-32.625	23.3125	-42.1875
19	03	08	12	07	12	-0.773352981019	-0.610760262099	-0.136409431977	-0.7919921875	0.77099609375	0.40283203125	-15.125	13.75	-3.25
19	03	08	12	07	12	-0.770412874643	-0.615024204846	-0.130121227025	-0.45654296875	0.7880859375	0.55712890625	48.5625	-15.4375	75.375
19	03	08	12	07	12	-0.759371589712	-0.628150811873	-0.117183206257	0.7470703125	1.15576171875	0.10498046875	68.625	11.75	81.3125
19	03	08	12	07	12	-0.760779770629	-0.624492467957	-0.115291856135	0.70947265625	1.09423828125	0.22509765625	-29.6875	43.375	2.3125
19	03	08	12	07	12	-0.764796470064	-0.619600491908	-0.121210261715	-0.361328125	0.8720703125	0.1748046875	-28.0625	2.5	-28.3125
19	03	08	12	07	12	-0.771654620885	-0.61259965434	-0.117917956778	-0.115234375	1.38525390625	0.287109375	-56.1875	-30.875	-12.9375
19	03	08	12	07	12	-0.785126190707	-0.595375154722	-0.111262830042	0.3193359375	1.2353515625	0.18115234375	-134.4375	-6.0	20.1875
19	03	08	12	07	12	-0.802157879236	-0.571819004075	-0.106563772133	-0.62109375	0.4892578125	0.70654296875	-162.5625	1.375	23.5625
19	03	08	12	07	12	-0.81271963698	-0.557417275799	-0.110897535325	-0.9873046875	0.4501953125	0.64404296875	-62.6875	-19.125	2.4375
19	03	08	12	07	12	-0.813971088992	-0.554589134413	-0.108574234634	0.19580078125	1.2158203125	0.48974609375	-21.5625	16.3125	17.75
19	03	08	12	07	12	-0.815918183616	-0.548909278438	-0.114005173685	0.21875	0.9453125	0.4013671875	-31.5625	56.5625	-6.9375
19	03	08	12	07	12	-0.813755952945	-0.548017303045	-0.124935006051	-0.01171875	0.87060546875	0.392578125	10.3125	74.6875	-4.3125
19	03	08	12	07	12	-0.805265576844	-0.556862446804	-0.135553649096	-0.013671875	1.07177734375	0.4140625	75.375	61.8125	-4.0625
19	03	08	12	07	12	-0.79096107133	-0.573812962396	-0.145802932053	0.2861328125	0.99609375	0.2861328125	130.125	53.5625	-0.9375
19	03	08	12	07	12	-0.778538043621	-0.58860308033	-0.153193045586	0.18505859375	0.8876953125	0.32275390625	115.625	33.1875	-3.375
19	03	08	12	07	12	-0.772124429864	-0.59635031256	-0.162957254584	-0.33837890625	1.06640625	0.1630859375	64.9375	11.4375	-37.6875
19	03	08	12	07	12	-0.778725524522	-0.588728459091	-0.165217493133	-0.181640625	1.23388671875	0.181640625	-57.625	-14.9375	-45.9375
19	03	08	12	07	12	-0.788952950962	-0.575159945066	-0.168385641812	-0.0712890625	0.724609375	0.10693359375	-95.375	-0.9375	-53.8125
19	03	08	12	07	12	-0.797500401166	-0.562345503661	-0.174855640112	-0.35302734375	0.67041015625	0.13671875	-81.875	10.0	-43.625
19	03	08	12	07	12	-0.806608458715	-0.548562108575	-0.178764843794	-0.25341796875	0.728515625	0.06982421875	-99.5	5.5625	-36.125
19	03	08	12	07	12	-0.81891899176	-0.530240587301	-0.178516772313	-0.36865234375	0.61767578125	0.09130859375	-125.3125	-4.375	-25.4375
19	03	08	12	07	12	-0.831370254725	-0.511870674378	-0.174671976877	-0.38232421875	0.51416015625	0.14208984375	-128.1875	-19.9375	-12.8125
19	03	08	12	07	12	-0.841264666248	-0.497349518663	-0.167715851919	-0.271484375	0.61376953125	0.21240234375	-106.8125	-28.625	10.25
19	03	08	12	07	12	-0.850132207871	-0.483871645057	-0.159296795358	-0.15966796875	0.6748046875	0.25830078125	-102.0625	-29.0	23.1875
19	03	08	12	07	12	-0.862607638901	-0.462795650614	-0.151234026404	-0.08740234375	0.6943359375	0.3359375	-148.5625	-23.4375	12.6875
19	03	08	12	07	12	-0.875001291368	-0.440155493712	-0.143483855479	0.01220703125	0.81640625	0.484375	-155.9375	-18.9375	10.1875
19	03	08	12	07	12	-0.884658345417	-0.421364692429	-0.138908754341	0.076171875	0.6005859375	0.6103515625	-121.9375	-9.5	-5.5
19	03	08	12	07	12	-0.891373546706	-0.409403201048	-0.132805808807	0.05419921875	0.73095703125	0.7529296875	-72.5625	-20.25	-15.3125
19	03	08	12	07	13	-0.896380140668	-0.400920619871	-0.126458749334	-0.0263671875	0.896484375	0.75244140625	-59.75	-28.375	-9.375
19	03	08	12	07	13	-0.903419146026	-0.38853981108	-0.118161023288	-0.08935546875	0.85888671875	0.74853515625	-86.25	-43.3125	-13.75
19	03	08	12	07	13	-0.909058669116	-0.377172378324	-0.11223624656	-0.06982421875	0.65576171875	0.73974609375	-70.3125	-24.9375	-2.8125
19	03	08	12	07	13	-0.909489195081	-0.376563436696	-0.110100557504	-0.03515625	0.5849609375	0.81005859375	6.125	-6.125	4.375
19	03	08	12	07	13	-0.908089675049	-0.379494697187	-0.109979003591	0.0634765625	0.6259765625	0.7822265625	26.6875	9.0625	2.625
19	03	08	12	07	13	-0.906637402749	-0.381941222915	-0.112910077084	-0.00048828125	0.86669921875	0.677734375	10.9375	19.9375	-7.5
19	03	08	12	07	13	-0.910470327591	-0.373696863912	-0.114251270495	0.03564453125	0.6875	0.638671875	-49.625	9.125	-37.875
19	03	08	12	07	13	-0.915573666635	-0.362481968278	-0.112302882915	0.11083984375	0.74462890625	0.81982421875	-66.6875	2.0625	-30.625
19	03	08	12	07	13	-0.921229023138	-0.349290691627	-0.11242241027	0.06298828125	0.3935546875	0.7001953125	-65.5625	7.8125	-40.0625
19	03	08	12	07	13	-0.92304919	-0.34538054524	-0.119500814204	-0.23388671875	0.6376953125	0.6572265625	-15.125	14.75	-61.625
19	03	08	12	07	13	-0.926416056778	-0.336595596095	-0.125605391979	-0.6201171875	0.47412109375	0.7255859375	-35.8125	-2.9375	-36.3125
19	03	08	12	07	13	-0.923791889563	-0.344041680858	-0.126276785115	0.04833984375	0.84716796875	0.55517578125	28.8125	6.125	-15.1875
19	03	08	12	07	13	-0.923075184493	-0.346305778684	-0.121640362516	0.36572265625	0.4228515625	0.70166015625	18.5	8.3125	11.5625
19	03	08	12	07	13	-0.916797689278	-0.361604733655	-0.130543886125	-0.43798828125	-0.13623046875	0.57568359375	112.4375	24.1875	-34.0
19	03	08	12	07	13	-0.906647742195	-0.385302402994	-0.142939684431	-0.9013671875	1.34765625	0.4931640625	153.3125	22.875	-61.375
19	03	08	12	07	13	-0.908704357782	-0.378520009871	-0.144523602608	-0.474609375	0.984375	0.55419921875	-61.375	6.125	27.3125
19	03	08	12	07	13	-0.910258744407	-0.372611615569	-0.144406074109	-0.07177734375	0.20361328125	0.7802734375	-11.9375	25.3125	36.0625
19	03	08	12	07	13	-0.904549284367	-0.384132865246	-0.14690305158	-0.25341796875	0.60302734375	0.6494140625	75.6875	15.75	34.9375
19	03	08	12	07	13	-0.899557617324	-0.394880099334	-0.14244979163	-0.12451171875	1.064453125	0.66552734375	42.9375	-6.0625	58.875
19	03	08	12	07	13	-0.900153272633	-0.393530971723	-0.133353779965	-0.0234375	1.13818359375	0.6376953125	-41.9375	-19.0625	60.5625
19	03	08	12	07	13	-0.907952534186	-0.376095960988	-0.125426355052	-0.04052734375	0.6728515625	0.6494140625	-117.3125	-21.125	24.0625
19	03	08	12	07	13	-0.914193315134	-0.361429522146	-0.119255874075	0.1025390625	0.4072265625	0.67041015625	-84.8125	-7.3125	7.5
19	03	08	12	07	13	-0.916761067269	-0.355328069612	-0.117364458582	0.0087890625	0.42236328125	0.63671875	-30.0625	-0.4375	-4.0
19	03	08	12	07	13	-0.918096002304	-0.353738245653	-0.118278937211	-0.19775390625	0.3466796875	0.548828125	2.0625	-11.3125	-27.0625
19	03	08	12	07	13	-0.917552551695	-0.357768595054	-0.119805484833	-0.3203125	0.34326171875	0.521484375	36.9375	-23.6875	-33.3125
19	03	08	12	07	13	-0.914278799078	-0.368396984729	-0.120723862789	-0.298828125	0.56689453125	0.5205078125	66.5	-26.875	-24.9375
19	03	08	12	07	13	-0.910404736561	-0.378943689033	-0.11846186188	-0.11767578125	0.71044921875	0.57958984375	57.5625	-19.1875	8.3125
19	03	08	12	07	13	-0.906943249232	-0.387617535388	-0.116694178501	-0.03125	0.564453125	0.61865234375	56.75	-8.3125	9.8125
19	03	08	12	07	13	-0.900478638945	-0.40220646812	-0.118464757909	-0.0185546875	0.61474609375	0.650390625	98.3125	6.125	0.5
19	03	08	12	07	13	-0.892913911872	-0.418198641432	-0.122798550286	-0.00634765625	0.83642578125	0.5654296875	103.125	12.0	-9.75
19	03	08	12	07	13	-0.887930144137	-0.428799037233	-0.125234219243	-0.126953125	0.90771484375	0.59130859375	64.375	1.5625	-12.5
19	03	08	12	07	13	-0.883145499281	-0.43919246806	-0.126399055218	-0.076171875	0.9365234375	0.35791015625	50.125	-6.625	-16.375
19	03	08	12	07	13	-0.877812828477	-0.449007090253	-0.123893488271	0.1455078125	0.8837890625	0.58984375	55.6875	11.0	31.125
19	03	08	12	07	13	-0.877222913298	-0.448895465616	-0.130732030911	-0.2841796875	0.28759765625	0.642578125	32.75	22.5625	-17.6875
19	03	08	12	07	13	-0.866372906391	-0.468128227687	-0.138546424622	-0.4560546875	0.86669921875	0.7919921875	135.75	23.0	-13.875
19	03	08	12	07	13	-0.860270664483	-0.478199408033	-0.142757934319	-0.30126953125	1.4580078125	0.51416015625	48.625	12.0625	-0.9375
19	03	08	12	07	13	-0.861051773577	-0.475324015638	-0.143671383258	-0.42041015625	0.705078125	0.779296875	1.5	13.0	38.9375
19	03	08	12	07	13	-0.850797102053	-0.491313964959	-0.147027992744	-0.1513671875	0.6484375	0.6689453125	109.6875	28.8125	35.8125
19	03	08	12	07	13	-0.840202023193	-0.506794334321	-0.15117167222	0.04296875	0.85205078125	0.4697265625	104.0625	35.3125	31.5625
19	03	08	12	07	13	-0.834236797981	-0.514982083647	-0.155690838514	-0.2333984375	0.91064453125	0.4404296875	59.9375	21.375	8.5625
19	03	08	12	07	13	-0.831114865099	-0.519431533034	-0.157031762954	-0.28662109375	1.0283203125	0.48974609375	31.875	4.375	14.0
19	03	08	12	07	13	-0.828450331903	-0.523289608497	-0.156486418963	-0.16943359375	0.6904296875	0.52587890625	38.0	4.25	22.4375
19	03	08	12	07	13	-0.820462261695	-0.534402109901	-0.159478382043	-0.04541015625	0.82080078125	0.20068359375	68.0625	19.75	11.25
19	03	08	12	07	13	-0.816909313749	-0.538909917101	-0.161856070233	-0.0751953125	0.9306640625	0.23193359375	24.0	13.8125	0.0625
19	03	08	12	07	13	-0.815876055324	-0.539645128753	-0.16435923227	-0.18603515625	0.87548828125	0.22900390625	0.5625	10.5	-1.0625
19	03	08	12	07	13	-0.817705063546	-0.537019469633	-0.164480903587	-0.15869140625	0.8095703125	0.30712890625	-18.4375	-3.0	-5.375
19	03	08	12	07	13	-0.817152145422	-0.538176683721	-0.164052951445	-0.14990234375	0.74609375	0.33056640625	9.875	-5.5	1.875
19	03	08	12	07	13	-0.81479254496	-0.541852300686	-0.163874006234	-0.13818359375	0.83740234375	0.29931640625	22.8125	-2.8125	5.75
19	03	08	12	07	13	-0.81263198523	-0.545009660391	-0.163808054702	-0.10986328125	0.89208984375	0.28515625	17.5	0.75	5.5
19	03	08	12	07	13	-0.812088417404	-0.545990003164	-0.163565080313	-0.15966796875	0.9619140625	0.33837890625	4.875	-3.5625	1.8125
19	03	08	12	07	14	-0.812147897251	-0.546355149635	-0.162466198428	-0.16650390625	0.8505859375	0.3515625	3.25	-8.125	4.3125
19	03	08	12	07	14	-0.810709386479	-0.548936250997	-0.161128719439	-0.142578125	0.865234375	0.35498046875	17.875	-7.9375	8.1875
19	03	08	12	07	14	-0.809049491856	-0.551735622086	-0.160332906993	-0.17236328125	0.9287109375	0.3291015625	17.375	-7.0	6.9375
19	03	08	12	07	14	-0.809086326806	-0.552146337679	-0.159107494454	-0.15283203125	0.9697265625	0.3349609375	0.125	-8.5	3.5
19	03	08	12	07	14	-0.810443277175	-0.550691293769	-0.158133785011	-0.1650390625	0.896484375	0.36181640625	-8.625	-9.5	-1.5
19	03	08	12	07	14	-0.811175589581	-0.550202989999	-0.156730036419	-0.13232421875	0.86572265625	0.3427734375	-3.25	-9.5625	0.8125
19	03	08	12	07	14	-0.811626427962	-0.550157965232	-0.155391854835	-0.1806640625	0.91015625	0.32080078125	-2.8125	-12.0	3.125
19	03	08	12	07	14	-0.812862187432	-0.549089353579	-0.153552163344	-0.18798828125	0.916015625	0.30517578125	-11.8125	-14.375	3.1875
19	03	08	12	07	14	-0.814748208892	-0.54699029501	-0.151975656614	-0.21337890625	0.87451171875	0.318359375	-16.75	-14.125	2.625
19	03	08	12	07	14	-0.818991948036	-0.541539276766	-0.152397562728	-0.572265625	0.4228515625	0.47021484375	-15.125	-23.9375	1.5625
19	03	08	12	07	14	-0.817349229872	-0.546181172201	-0.152398523521	-0.767578125	0.46044921875	0.57763671875	61.9375	-49.6875	-1.125
19	03	08	12	07	14	-0.802937328207	-0.570283246789	-0.144523836515	-0.0908203125	0.666015625	0.26708984375	159.6875	-57.5625	25.25
19	03	08	12	07	14	-0.791520295789	-0.588345720673	-0.140189846513	-0.4013671875	0.81494140625	0.18408203125	123.8125	-48.5625	2.5625
19	03	08	12	07	14	-0.78580828269	-0.597336362151	-0.140743603874	-0.71728515625	0.68896484375	0.21044921875	71.125	-45.375	0.625
19	03	08	12	07	14	-0.784182341051	-0.601761840047	-0.137379908919	-0.609375	0.75146484375	0.248046875	38.25	-68.375	-8.9375
19	03	08	12	07	14	-0.786229991653	-0.601787588705	-0.132869328662	-0.61181640625	0.8779296875	0.310546875	11.5	-93.25	-37.0
19	03	08	12	07	14	-0.789029954545	-0.600866329092	-0.125361040117	-0.55322265625	0.921875	0.2744140625	-0.625	-103.125	-55.3125
19	03	08	12	07	14	-0.792195908597	-0.598846398702	-0.117425649317	-0.50732421875	0.80029296875	0.28173828125	-4.875	-113.6875	-66.3125
19	03	08	12	07	14	-0.79470966071	-0.597024030494	-0.107784137994	-0.41845703125	0.79052734375	0.20654296875	-1.25	-128.875	-73.1875
19	03	08	12	07	14	-0.795243513217	-0.596646245987	-0.0967963324606	-0.2900390625	0.89697265625	0.1689453125	13.3125	-146.0625	-87.1875
19	03	08	12	07	14	-0.794267319055	-0.596158227488	-0.0856885904375	-0.1787109375	1.0126953125	0.103515625	19.125	-162.375	-113.0
19	03	08	12	07	14	-0.792377925938	-0.59377993079	-0.0751303417415	-0.0732421875	1.052734375	0.126953125	15.9375	-178.0	-142.875
19	03	08	12	07	14	-0.788184171981	-0.590802445778	-0.0653056422502	0.00146484375	1.05908203125	0.15087890625	22.625	-185.625	-165.0625
19	03	08	12	07	14	-0.780102161082	-0.589562421848	-0.0560877707741	0.01025390625	1.1162109375	0.10546875	41.8125	-182.0	-174.0
19	03	08	12	07	14	-0.767559320509	-0.59111100661	-0.0499255346833	0.04052734375	1.1875	0.02978515625	64.1875	-159.9375	-185.1875
19	03	08	12	07	14	-0.75176193304	-0.595025337762	-0.0518793247612	-0.0263671875	1.09619140625	-0.1611328125	70.875	-106.625	-196.5
19	03	08	12	07	14	-0.736165921664	-0.601102484038	-0.063717229499	-0.30517578125	1.16064453125	-0.572265625	54.125	-25.3125	-176.0
19	03	08	12	07	14	-0.72896748804	-0.602692058305	-0.0891679085756	-0.67236328125	1.52978515625	-0.86865234375	-29.8125	76.0625	-135.4375
19	03	08	12	07	14	-0.738010423747	-0.590554818076	-0.11761049343	-0.48046875	2.09423828125	-0.3544921875	-152.1875	112.875	-69.3125
19	03	08	12	07	14	-0.754726743968	-0.581150578688	-0.124506110116	-0.478515625	0.76953125	0.0166015625	-129.9375	89.8125	112.9375
19	03	08	12	07	14	-0.766263140465	-0.578649210255	-0.127680007157	1.00390625	0.83984375	0.27880859375	-76.25	106.5	111.6875
19	03	08	12	07	14	-0.763278842409	-0.58658827398	-0.144404105321	0.689453125	1.0322265625	0.17626953125	3.9375	155.875	12.375
19	03	08	12	07	14	-0.771990561467	-0.575895559965	-0.15288452498	-0.66015625	0.74267578125	0.837890625	-60.0	57.375	19.9375
19	03	08	12	07	14	-0.778795538282	-0.566274686848	-0.150998445275	-0.162109375	0.46923828125	0.80908203125	-24.9375	-9.875	-10.75
19	03	08	12	07	14	-0.771303444645	-0.572572415463	-0.149780695826	0.087890625	0.53662109375	0.53173828125	82.4375	-4.5625	-70.375
19	03	08	12	07	14	-0.757699702009	-0.588949023309	-0.152272312244	-0.6845703125	1.43603515625	0.0595703125	92.25	27.25	-34.25
19	03	08	12	07	14	-0.755281694786	-0.59543662338	-0.152338029106	-0.42041015625	1.04833984375	-0.0341796875	8.4375	31.9375	27.5625
19	03	08	12	07	14	-0.754499253944	-0.598863183926	-0.152218179852	-0.22607421875	0.65673828125	-0.0244140625	-0.1875	21.8125	20.6875
19	03	08	12	07	14	-0.755343194718	-0.599648261805	-0.151788827187	0.1484375	0.83056640625	0.0234375	-15.375	18.0	-13.3125
19	03	08	12	07	14	-0.749546643762	-0.60434906494	-0.153314971837	-0.6279296875	0.529296875	0.0390625	37.375	-11.4375	-15.625
19	03	08	12	07	14	-0.743992277733	-0.608682115327	-0.152887666589	-0.45849609375	0.64013671875	0.265625	50.3125	-13.0	-27.875
19	03	08	12	07	14	-0.729915747798	-0.623226833411	-0.140929464141	-3.4033203125	-0.05517578125	1.01171875	138.8125	-66.75	-21.375
19	03	08	12	07	14	-0.723361044684	-0.632178003783	-0.120722928315	-1.54736328125	0.22314453125	0.720703125	104.4375	-91.4375	61.0
19	03	08	12	07	14	-0.704252981483	-0.654450534747	-0.106257426186	-0.8125	0.31689453125	0.43115234375	190.625	-26.6875	34.3125
19	03	08	12	07	14	-0.689567251226	-0.664054849827	-0.111448911377	-1.13037109375	0.880859375	0.146484375	97.125	-7.125	-49.8125
19	03	08	12	07	14	-0.687101295051	-0.662139096643	-0.118463635965	-0.81787109375	0.68798828125	0.140625	-0.0625	-4.4375	-40.0
19	03	08	12	07	14	-0.683508174369	-0.66165837292	-0.12823025934	-0.63232421875	0.69873046875	-0.0966796875	-10.375	11.0625	-55.4375
19	03	08	12	07	14	-0.682305213749	-0.656853807171	-0.143675326341	-0.923828125	0.5517578125	-0.11328125	-44.1875	17.6875	-59.25
19	03	08	12	07	14	-0.686178663261	-0.645165405082	-0.162649305131	-0.71826171875	0.599609375	-0.12353515625	-97.4375	14.625	-87.75
19	03	08	12	07	14	-0.691745108428	-0.629918939835	-0.181999639433	-0.6162109375	0.69921875	-0.103515625	-108.375	11.1875	-109.625
19	03	08	12	07	15	-0.700541340155	-0.608258842654	-0.203241214734	-0.642578125	0.5693359375	0.048828125	-145.0625	-1.6875	-123.8125
19	03	08	12	07	15	-0.705604728191	-0.589092365409	-0.223564580864	-0.6640625	0.4375	0.25927734375	-116.4375	3.125	-126.8125
19	03	08	12	07	15	-0.703886426505	-0.576755981138	-0.243091965384	-0.6943359375	0.58740234375	0.35009765625	-63.625	20.5625	-131.5625
19	03	08	12	07	15	-0.699000550272	-0.567537423992	-0.261217353983	-0.72119140625	0.84912109375	0.30224609375	-39.3125	23.5625	-134.6875
19	03	08	12	07	15	-0.6960850594	-0.554976014478	-0.278922290351	-0.7216796875	1.0869140625	0.21484375	-59.875	10.625	-138.4375
19	03	08	12	07	15	-0.698347245208	-0.535570448934	-0.299370148378	-0.62109375	1.10546875	0.20751953125	-116.4375	11.0625	-135.1875
19	03	08	12	07	15	-0.702603254765	-0.511145088487	-0.326095308392	-0.46044921875	0.8642578125	0.2421875	-162.5	37.4375	-139.375
19	03	08	12	07	15	-0.700187536897	-0.491205482649	-0.357601009299	-0.50146484375	0.56494140625	0.28173828125	-136.6875	83.4375	-149.625
19	03	08	12	07	15	-0.688325654371	-0.481547208103	-0.390059341824	-0.68408203125	0.388671875	0.2099609375	-70.9375	128.25	-146.9375
19	03	08	12	07	15	-0.671429737495	-0.483019265752	-0.41649273054	-0.83935546875	0.921875	0.06005859375	-6.9375	142.75	-117.1875
19	03	08	12	07	15	-0.656952727751	-0.489418796343	-0.429362917106	-1.1044921875	0.34912109375	0.22998046875	44.75	93.4375	-61.1875
19	03	08	12	07	15	-0.651819045326	-0.492770315727	-0.436682141321	-1.037109375	0.51123046875	0.10791015625	-0.9375	55.8125	-20.0625
19	03	08	12	07	15	-0.650975767197	-0.501872654572	-0.431562877353	-0.94140625	0.76953125	0.095703125	31.4375	13.9375	24.25
19	03	08	12	07	15	-0.650046305052	-0.503509718964	-0.431431539801	-0.85107421875	0.46923828125	0.056640625	5.125	3.0625	-6.6875
19	03	08	12	07	15	-0.648731835699	-0.499930611178	-0.437980962741	-1.2587890625	-0.263671875	0.04736328125	-21.5	14.375	17.625
19	03	08	12	07	15	-0.641950485864	-0.511399802344	-0.434253442377	-0.86865234375	0.02587890625	0.16015625	74.875	30.125	41.5
19	03	08	12	07	15	-0.629264651305	-0.533257542042	-0.424372174639	-0.60546875	0.732421875	0.10498046875	144.125	36.0	39.5
19	03	08	12	07	15	-0.629723995836	-0.544768015781	-0.412390486515	-0.69921875	0.8603515625	0.0390625	53.25	-7.8125	42.9375
19	03	08	12	07	15	-0.629322545454	-0.550954768481	-0.405144317401	-0.80419921875	0.41064453125	0.12060546875	39.375	-6.5	33.8125
19	03	08	12	07	15	-0.621191155782	-0.561012881111	-0.404341855675	-0.99072265625	0.16162109375	0.0302734375	62.9375	37.4375	27.9375
19	03	08	12	07	15	-0.618980810836	-0.57278001476	-0.394385131101	-0.986328125	0.73876953125	0.318359375	68.9375	24.5	49.5
19	03	08	12	07	15	-0.617882609801	-0.579432783233	-0.389563877752	-0.93798828125	0.53955078125	0.0947265625	31.3125	15.25	35.0625
19	03	08	12	07	15	-0.618220514602	-0.580867275888	-0.391537624758	-0.9853515625	0.275390625	-0.12353515625	-15.5	16.8125	28.375
19	03	08	12	07	15	-0.62016014385	-0.578169180464	-0.394946982665	-1.03955078125	0.0654296875	-0.005859375	-29.1875	9.625	24.0625
19	03	08	12	07	15	-0.615019901357	-0.582672918354	-0.396097961676	-0.44970703125	-0.28076171875	-0.1201171875	27.8125	15.75	25.875
19	03	08	12	07	15	-0.609709973907	-0.59359751814	-0.38944537973	-1.1337890625	0.84716796875	0.03076171875	67.5	19.1875	24.1875
19	03	08	12	07	15	-0.606059359015	-0.597514715484	-0.387926816304	-1.25244140625	0.8271484375	0.03369140625	34.0625	9.625	-10.5625
19	03	08	12	07	15	-0.606822788071	-0.601940376018	-0.383757587387	-0.9189453125	0.77001953125	0.0068359375	12.875	9.0625	22.1875
19	03	08	12	07	15	-0.609980187662	-0.602533961636	-0.381161323989	-0.6416015625	0.71484375	0.11572265625	-7.125	5.875	6.25
19	03	08	12	07	15	-0.616292242589	-0.59993590262	-0.382237900113	-0.974609375	0.8095703125	-0.1513671875	-54.875	3.5	13.6875
19	03	08	12	07	15	-0.61788628305	-0.597379586971	-0.385904283655	-0.81982421875	0.2939453125	-0.19140625	-33.4375	2.25	3.4375
19	03	08	12	07	15	-0.614985811614	-0.599605062852	-0.386593899441	-0.9541015625	0.33154296875	-0.13671875	13.4375	4.0	6.8125
19	03	08	12	07	15	-0.613762427312	-0.603813811993	-0.382014621375	-0.7861328125	0.6396484375	-0.013671875	28.25	-4.875	10.25
19	03	08	12	07	15	-0.615408620873	-0.606070376403	-0.377802178241	-0.642578125	0.67529296875	-0.021484375	5.5625	-6.625	11.6875
19	03	08	12	07	15	-0.619044143501	-0.606837811183	-0.373513768927	-0.591796875	0.83154296875	-0.05810546875	-10.125	-12.75	5.625
19	03	08	12	07	15	-0.62263680033	-0.606951870151	-0.371372763184	-0.33984375	0.40966796875	-0.173828125	-23.625	-9.375	18.5
19	03	08	12	07	15	-0.622587129154	-0.601164907575	-0.377848928203	-1.08447265625	0.50634765625	-0.09716796875	-28.6875	-4.4375	-39.6875
19	03	08	12	07	15	-0.62760504691	-0.59269402028	-0.382312361553	-1.04833984375	0.357421875	-0.00634765625	-54.875	-14.1875	-12.3125
19	03	08	12	07	15	-0.632343567106	-0.586020937299	-0.385106448069	-0.7783203125	0.34912109375	-0.01513671875	-47.0	-13.4375	-8.5625
19	03	08	12	07	15	-0.634387935719	-0.580922106232	-0.388603808613	-0.97509765625	0.40380859375	-0.06640625	-32.875	-10.375	-14.75
19	03	08	12	07	15	-0.637723010283	-0.575470405202	-0.390482516967	-1.0400390625	0.4140625	-0.0185546875	-34.0625	-17.375	-6.4375
19	03	08	12	07	15	-0.642066451551	-0.570779986208	-0.390244571409	-0.884765625	0.4208984375	0.03271484375	-31.0625	-20.3125	2.125
19	03	08	12	07	15	-0.645492333977	-0.565965432391	-0.390615633269	-0.9189453125	0.43701171875	0.0361328125	-27.875	-20.375	-6.375
19	03	08	12	07	15	-0.648170384646	-0.561869732679	-0.391160451525	-0.984375	0.47412109375	0.02490234375	-23.5	-18.25	-7.0625
19	03	08	12	07	15	-0.651724637551	-0.554802112319	-0.394281809195	-1.09912109375	0.38818359375	0.08544921875	-40.1875	-14.1875	-12.3125
19	03	08	12	07	15	-0.654809255741	-0.549468517983	-0.396645107005	-0.95703125	0.27587890625	0.10791015625	-32.375	-6.9375	-0.125
19	03	08	12	07	15	-0.655958325062	-0.545919912326	-0.398408629141	-1.0087890625	0.31103515625	0.13134765625	-15.0	-5.375	-4.625
19	03	08	12	07	15	-0.656824038714	-0.542755638012	-0.39902579122	-1.06982421875	0.25341796875	0.1572265625	-6.5625	-11.0625	-0.25
19	03	08	12	07	15	-0.656835792446	-0.541361594406	-0.398605701586	-1.044921875	0.298828125	0.158203125	4.625	-9.875	1.5
19	03	08	12	07	15	-0.656149618135	-0.544095790686	-0.395484096876	-0.88134765625	0.466796875	0.1474609375	21.375	-3.25	10.4375
19	03	08	12	07	16	-0.655282880418	-0.547747401672	-0.392242066913	-0.794921875	0.54541015625	0.10400390625	21.5625	-0.5625	9.375
19	03	08	12	07	16	-0.654943480584	-0.550272148071	-0.38957266206	-0.86474609375	0.57373046875	0.09619140625	14.1875	-2.8125	6.625
19	03	08	12	07	16	-0.655067492286	-0.551677542418	-0.387315597321	-0.8544921875	0.52734375	0.10888671875	9.5625	-4.875	4.625
19	03	08	12	07	16	-0.654868094529	-0.55282341102	-0.386024296169	-0.8427734375	0.52587890625	0.0830078125	6.8125	-2.3125	0.8125
19	03	08	12	07	16	-0.655433242439	-0.552287495189	-0.386094672844	-0.87646484375	0.52197265625	0.09228515625	-4.9375	-1.0625	-3.125
19	03	08	12	07	16	-0.656451516201	-0.550745489234	-0.387059828537	-0.88916015625	0.48046875	0.0947265625	-12.375	0.1875	-3.6875
19	03	08	12	07	16	-0.657774129323	-0.548521490232	-0.388487736211	-0.89111328125	0.474609375	0.10546875	-16.5	0.625	-5.375
19	03	08	12	07	16	-0.658604866287	-0.547464150737	-0.389328184788	-0.86279296875	0.490234375	0.09375	-10.4375	1.625	-2.8125
19	03	08	12	07	16	-0.659339448136	-0.547221835785	-0.388902245999	-0.8515625	0.48779296875	0.10546875	-3.625	-1.1875	1.0625
19	03	08	12	07	16	-0.659034675947	-0.54862592166	-0.387437685026	-0.7900390625	0.46533203125	0.08837890625	8.5625	-2.25	3.9375
19	03	08	12	07	16	-0.657786836185	-0.552081992961	-0.384919426222	-0.7607421875	0.5322265625	0.06201171875	19.75	-0.1875	6.1875
19	03	08	12	07	16	-0.657136271668	-0.554906936194	-0.382917522842	-0.701171875	0.59130859375	0.033203125	11.375	0.5	2.1875
19	03	08	12	07	16	-0.657625940944	-0.55435883263	-0.38340660427	-0.8232421875	0.5625	0.037109375	-8.375	-1.6875	-7.0
19	03	08	12	07	16	-0.658172961372	-0.553441433023	-0.383954571587	-0.884765625	0.546875	0.0322265625	-9.125	-4.125	-6.75
19	03	08	12	07	16	-0.659936882065	-0.552093686781	-0.384256229491	-0.7890625	0.58056640625	0.05322265625	-16.9375	-2.0625	-4.3125
19	03	08	12	07	16	-0.663016561445	-0.547966739267	-0.386591816275	-0.8369140625	0.54638671875	0.10205078125	-34.75	0.8125	-9.0625
19	03	08	12	07	16	-0.665609451735	-0.544034719674	-0.388953698506	-0.9208984375	0.47265625	0.14599609375	-29.625	2.5625	-4.625
