18	12	13	19	47	41	0.24103960659	0.00256360179204	0.532313600676	-0.2998046875	0.90087890625	0.44873046875	5.625	-0.625	2.8125
18	12	13	19	47	41	0.24097839383	0.00183114281026	0.532252176848	-0.33837890625	0.890625	0.466796875	0.0625	1.3125	2.6875
18	12	13	19	47	41	0.24072425026	0.00158692457068	0.5320469801	-0.2734375	0.92041015625	0.451171875	-2.875	1.5625	0.875
18	12	13	19	47	41	0.240730476394	0.0012207427809	0.531267258248	-0.25341796875	0.85302734375	0.478515625	-2.6875	1.1875	-0.5
18	12	13	19	47	41	0.241400652373	0.000366220964409	0.530410030119	-0.16943359375	0.78076171875	0.43408203125	-4.0	3.375	-9.0
18	12	13	19	47	41	0.242258309239	-6.10376188559e-05	0.53084417119	-0.1376953125	0.75341796875	0.43310546875	6.125	3.5	-11.1875
18	12	13	19	47	41	0.243056358116	-0.000671426403636	0.5305489364	-0.14111328125	0.73681640625	0.38525390625	-1.5625	2.8125	-10.5
18	12	13	19	47	41	0.242743113501	-0.000122073479256	0.529798899973	-0.1611328125	0.7666015625	0.3740234375	-5.375	-1.0625	-0.1875
18	12	13	19	47	41	0.24238894637	0.0	0.528116132962	-0.20654296875	0.72412109375	0.3603515625	-12.0625	-1.75	3.125
18	12	13	19	47	41	0.242441510613	-0.000244150564565	0.52785352059	-0.2626953125	0.72900390625	0.3603515625	-2.8125	-1.125	1.75
18	12	13	19	47	41	0.242503836155	-0.000366227791828	0.529321235122	-0.32958984375	0.83935546875	0.37890625	6.1875	-0.875	2.75
18	12	13	19	47	41	0.24195069231	0.0	0.530716768323	-0.375	0.9462890625	0.42529296875	6.125	-2.0625	8.125
18	12	13	19	47	41	0.241222304452	0.000183114097509	0.531213996873	-0.38671875	0.9677734375	0.46728515625	1.375	-1.375	9.875
18	12	13	19	47	41	0.241040739912	0.000549345824059	0.532499218788	-0.31689453125	0.953125	0.51416015625	11.0625	0.1875	3.0625
18	12	13	19	47	41	0.242072847488	0.0	0.534379167867	-0.34814453125	0.9306640625	0.56591796875	19.3125	1.75	-4.5625
18	12	13	19	47	41	0.242684978549	-6.10374694539e-05	0.536031056744	-0.263671875	0.97021484375	0.54248046875	15.3125	2.6875	-6.6875
18	12	13	19	47	41	0.24286986081	-6.10379142522e-05	0.53713364542	-0.23046875	0.93212890625	0.54833984375	13.3125	4.375	-5.0625
18	12	13	19	47	41	0.243172236457	-0.00140385578276	0.536089797391	-0.2197265625	0.82568359375	0.50244140625	-2.75	6.3125	-6.6875
18	12	13	19	47	41	0.243302212372	-0.00219741084932	0.535435776951	-0.16455078125	0.79345703125	0.47265625	-0.3125	6.1875	-7.3125
18	12	13	19	47	41	0.243844268489	-0.00378431655728	0.534015896123	-0.1904296875	0.72021484375	0.4326171875	-6.75	6.0	-8.125
18	12	13	19	47	41	0.243784121649	-0.00445574383584	0.532736057524	-0.19873046875	0.73291015625	0.390625	-7.9375	2.9375	-2.625
18	12	13	19	47	41	0.242817284203	-0.00488320330222	0.531170439199	-0.2353515625	0.74853515625	0.3662109375	-12.9375	2.25	5.125
18	12	13	19	47	41	0.241351728809	-0.00518839073059	0.529032734848	-0.27099609375	0.74169921875	0.3388671875	-18.4375	0.8125	11.0
18	12	13	19	47	41	0.239694944015	-0.00555442829269	0.527853800826	-0.28857421875	0.7685546875	0.3251953125	-14.0	2.0	11.3125
18	12	13	19	47	41	0.238235635602	-0.00634806715413	0.527438925758	-0.3076171875	0.876953125	0.31591796875	-13.5625	3.625	8.0625
18	12	13	19	47	41	0.236773293249	-0.00811829028154	0.525125197685	-0.35302734375	0.9248046875	0.35107421875	-27.25	4.8125	7.875
18	12	13	19	47	41	0.235365942127	-0.0096441438942	0.522126625766	-0.32666015625	0.8955078125	0.41796875	-26.8125	4.3125	8.125
18	12	13	19	47	41	0.234444801384	-0.00976599016441	0.52064935064	-0.2626953125	0.91748046875	0.462890625	-12.6875	1.5	4.25
18	12	13	19	47	41	0.233772452436	-0.00958283943406	0.521440747039	-0.23388671875	0.94482421875	0.46826171875	2.75	3.3125	0.125
18	12	13	19	47	41	0.233466751552	-0.0089724477067	0.523697968187	-0.22802734375	0.9658203125	0.4814453125	13.5625	2.5	-2.375
18	12	13	19	47	41	0.2335942975	-0.00866746544158	0.525236198062	-0.2373046875	0.93896484375	0.4716796875	9.3125	1.625	-3.875
18	12	13	19	47	41	0.234256630727	-0.00860609299961	0.526131359267	-0.2138671875	0.869140625	0.47265625	7.9375	0.625	-6.9375
18	12	13	19	47	41	0.23572281487	-0.00909443278498	0.527355028605	-0.2587890625	0.8173828125	0.46435546875	11.125	0.125	-9.8125
18	12	13	19	47	41	0.237134284253	-0.0095830328514	0.528653805898	-0.279296875	0.818359375	0.439453125	10.4375	-0.75	-8.1875
18	12	13	19	47	41	0.238051446433	-0.0100714073491	0.529633948896	-0.28466796875	0.8115234375	0.4375	7.875	0.4375	-5.3125
18	12	13	19	47	41	0.238724038737	-0.0108649651995	0.530246925213	-0.29248046875	0.80322265625	0.42724609375	4.625	1.75	-4.125
18	12	13	19	47	42	0.239325099771	-0.0119021664002	0.530470400945	-0.3017578125	0.8115234375	0.42578125	1.4375	2.25	-3.875
18	12	13	19	47	42	0.240000442204	-0.013245192258	0.530112879081	-0.314453125	0.810546875	0.4306640625	-2.375	2.3125	-3.8125
18	12	13	19	47	42	0.240359593144	-0.0142824136099	0.529303806945	-0.30712890625	0.8037109375	0.43115234375	-5.375	1.5625	-1.6875
18	12	13	19	47	42	0.240730866524	-0.0151372350147	0.528521443517	-0.27880859375	0.78466796875	0.43408203125	-4.1875	1.5	-2.75
18	12	13	19	47	42	0.241408733769	-0.0156259509089	0.528352465109	-0.2578125	0.7919921875	0.4345703125	0.125	0.625	-5.0625
18	12	13	19	47	42	0.2418953432	-0.0159920716423	0.52840978705	-0.2548828125	0.814453125	0.4130859375	0.125	0.625	-4.5
18	12	13	19	47	42	0.24213946088	-0.0161751845559	0.528104516141	-0.25048828125	0.8173828125	0.3994140625	-3.8125	-0.125	-2.75
18	12	13	19	47	42	0.242447931088	-0.0162364425149	0.527379185448	-0.24951171875	0.77685546875	0.39306640625	-5.25	-1.625	-1.6875
18	12	13	19	47	42	0.242997532021	-0.01623645906	0.527501801489	-0.27392578125	0.76904296875	0.39111328125	0.9375	-2.4375	-2.0625
18	12	13	19	47	42	0.243592253707	-0.015991272982	0.528444433123	-0.3046875	0.79931640625	0.3818359375	5.0625	-3.375	-0.5625
18	12	13	19	47	42	0.243973306229	-0.0155649720011	0.52933112625	-0.3115234375	0.82177734375	0.38232421875	4.4375	-3.875	0.9375
18	12	13	19	47	42	0.243912649713	-0.0150156436009	0.53030858376	-0.3056640625	0.837890625	0.3857421875	4.5	-2.5	2.6875
18	12	13	19	47	42	0.243793096454	-0.0147716397951	0.531290713954	-0.29345703125	0.85302734375	0.40087890625	4.6875	-0.5625	1.25
18	12	13	19	47	42	0.244086102277	-0.0147098651285	0.5320576528	-0.28515625	0.85595703125	0.41650390625	4.375	-0.4375	-2.1875
18	12	13	19	47	42	0.244456356595	-0.0145269944743	0.532615772198	-0.27685546875	0.859375	0.4326171875	4.0625	-1.0625	-2.1875
18	12	13	19	47	42	0.244765479528	-0.0140999565514	0.532929526624	-0.25048828125	0.81982421875	0.43798828125	4.625	-1.0	-1.875
18	12	13	19	47	42	0.245185985215	-0.0137333449523	0.533891414657	-0.25341796875	0.79736328125	0.44384765625	9.875	-0.4375	-2.625
18	12	13	19	47	42	0.245365378346	-0.0132448475376	0.53540922857	-0.275390625	0.80908203125	0.427734375	12.5	-0.4375	-0.25
18	12	13	19	47	42	0.245617372679	-0.0126959278124	0.53646398819	-0.28564453125	0.80615234375	0.435546875	10.1875	-1.6875	0.8125
18	12	13	19	47	42	0.246040533331	-0.0122684562638	0.537309554679	-0.287109375	0.806640625	0.43896484375	9.375	-1.875	-0.5625
18	12	13	19	47	42	0.246228629906	-0.0122687046632	0.538297046887	-0.29736328125	0.8271484375	0.4267578125	8.0	0.625	-0.5625
18	12	13	19	47	42	0.246112709633	-0.0126352507178	0.538676751615	-0.30078125	0.85302734375	0.42236328125	2.5625	2.1875	0.375
18	12	13	19	47	42	0.24585429826	-0.0129396999084	0.538035163646	-0.2919921875	0.84814453125	0.42919921875	-4.1875	1.125	1.5625
18	12	13	19	47	42	0.245800749848	-0.0130011322865	0.537013905429	-0.27197265625	0.81201171875	0.42333984375	-5.5625	-0.5	1.1875
18	12	13	19	47	42	0.245923542698	-0.013001170165	0.537137546723	-0.2763671875	0.7890625	0.4072265625	2.1875	-0.1875	-0.25
18	12	13	19	47	42	0.245981779027	-0.0126958337562	0.538413219057	-0.29541015625	0.83740234375	0.392578125	8.0625	-0.625	0.625
18	12	13	19	47	42	0.246043646726	-0.0123906872452	0.539391641309	-0.3115234375	0.8408203125	0.3916015625	6.125	-1.5	1.75
18	12	13	19	47	42	0.245983239828	-0.0118413768056	0.540247557249	-0.31103515625	0.84375	0.392578125	5.375	-2.3125	3.0625
18	12	13	19	47	42	0.246167214172	-0.0115362269969	0.541165018807	-0.29296875	0.8251953125	0.38818359375	6.3125	-1.5625	0.6875
18	12	13	19	47	42	0.246530057615	-0.0112308815551	0.542561446432	-0.28173828125	0.83837890625	0.38916015625	9.375	-0.5625	-1.875
18	12	13	19	47	42	0.24634893519	-0.0109257828045	0.54354243505	-0.265625	0.85546875	0.3984375	6.8125	0.625	-0.1875
18	12	13	19	47	42	0.245989127282	-0.0105598310223	0.543861817391	-0.24755859375	0.837890625	0.39404296875	2.0	0.625	1.0
18	12	13	19	47	42	0.245797660557	-0.0102542853175	0.543904383715	-0.2587890625	0.81103515625	0.39111328125	1.125	-0.125	1.5
18	12	13	19	47	42	0.245556137413	-0.00994920467272	0.544276429857	-0.28173828125	0.81591796875	0.380859375	2.625	-0.75	2.5625
18	12	13	19	47	42	0.245547219891	-0.00970469996588	0.544867022613	-0.302734375	0.81201171875	0.37646484375	3.875	-1.4375	2.6875
18	12	13	19	47	42	0.24550037692	-0.00927798540323	0.545814114972	-0.3115234375	0.841796875	0.37353515625	5.875	-1.9375	2.8125
18	12	13	19	47	42	0.245551823528	-0.00897243799616	0.546647310841	-0.31591796875	0.857421875	0.3818359375	5.25	-1.6875	2.3125
18	12	13	19	47	42	0.245680914668	-0.00878957806515	0.547273312029	-0.3017578125	0.8681640625	0.3828125	3.5	-1.3125	0.375
18	12	13	19	47	42	0.245618370585	-0.008545370746	0.547758264819	-0.28857421875	0.88330078125	0.3876953125	2.3125	-0.625	0.5625
18	12	13	19	47	42	0.245431037416	-0.00830107463035	0.547687813662	-0.2529296875	0.8671875	0.3837890625	-1.125	-0.1875	0.0
18	12	13	19	47	42	0.245624199038	-0.00817933465982	0.54746606391	-0.2275390625	0.8349609375	0.396484375	-0.4375	-0.0625	-2.9375
18	12	13	19	47	42	0.245677848336	-0.00781286076697	0.54757167141	-0.24609375	0.8447265625	0.390625	1.25	-0.6875	-0.75
18	12	13	19	47	42	0.245437862075	-0.00738572029622	0.54739784807	-0.2646484375	0.8359375	0.3779296875	-1.1875	-1.5625	2.3125
18	12	13	19	47	42	0.245377361082	-0.00701950162299	0.54733800916	-0.28466796875	0.830078125	0.38232421875	0.125	-2.0625	2.4375
18	12	13	19	47	42	0.245437432288	-0.00689739613245	0.547763122943	-0.31494140625	0.841796875	0.37890625	2.875	-1.6875	2.4375
18	12	13	19	47	42	0.245619367588	-0.00695840156686	0.548309835747	-0.3388671875	0.876953125	0.38037109375	2.4375	-1.4375	2.0625
18	12	13	19	47	42	0.245557861018	-0.00677527282452	0.548430867822	-0.31884765625	0.8857421875	0.39306640625	0.125	-1.8125	2.5
18	12	13	19	47	42	0.245742708751	-0.00671428165988	0.548251616991	-0.2919921875	0.87060546875	0.40625	-0.375	-1.25	0.25
18	12	13	19	47	42	0.245988068261	-0.0065922360725	0.548315339252	-0.25830078125	0.87109375	0.40576171875	1.375	-0.5	-2.1875
18	12	13	19	47	42	0.246107415605	-0.00647008582691	0.548187177467	-0.23291015625	0.85888671875	0.40869140625	0.5625	0.375	-3.0
18	12	13	19	47	43	0.246289776056	-0.0064090276297	0.54757511301	-0.240234375	0.8466796875	0.421875	-1.875	-0.125	-1.9375
18	12	13	19	47	43	0.246232390286	-0.00598184785524	0.546606607589	-0.24609375	0.822265625	0.40478515625	-4.6875	-2.1875	1.1875
18	12	13	19	47	43	0.246474699702	-0.005737647789	0.546419393693	-0.2666015625	0.78515625	0.396484375	1.3125	-2.0	0.75
18	12	13	19	47	43	0.246651875577	-0.00573750960263	0.547260756353	-0.31396484375	0.83642578125	0.38671875	6.3125	-0.625	1.25
18	12	13	19	47	43	0.24654002263	-0.00598190696156	0.547527606583	-0.322265625	0.87353515625	0.3818359375	-0.0625	0.25	2.125
18	12	13	19	47	43	0.246235454495	-0.00647024248301	0.546674449791	-0.3046875	0.87890625	0.40185546875	-7.125	1.25	1.875
18	12	13	19	47	43	0.245793955117	-0.00714126961727	0.544872768148	-0.27587890625	0.88720703125	0.4150390625	-13.3125	2.3125	1.3125
18	12	13	19	47	43	0.2456213749	-0.00805716239731	0.54245456231	-0.25390625	0.87939453125	0.4365234375	-16.625	2.125	-1.625
18	12	13	19	47	43	0.245618493208	-0.00891160536987	0.540189777557	-0.2392578125	0.896484375	0.42822265625	-16.6875	2.3125	-3.6875
18	12	13	19	47	43	0.245498542993	-0.00988830531202	0.538302250288	-0.251953125	0.9013671875	0.4150390625	-15.375	2.875	-3.1875
18	12	13	19	47	43	0.245618587463	-0.0109258765298	0.536771833536	-0.27685546875	0.86669921875	0.3974609375	-13.1875	1.875	-3.0
18	12	13	19	47	43	0.24646273467	-0.0119019894157	0.535955738766	-0.291015625	0.8115234375	0.38916015625	-6.875	-0.125	-5.3125
18	12	13	19	47	43	0.247626756101	-0.0126346409941	0.536575502314	-0.31298828125	0.80810546875	0.3798828125	3.1875	-1.0625	-6.0
18	12	13	19	47	43	0.248427499078	-0.0129402038832	0.537628848127	-0.310546875	0.81201171875	0.38134765625	6.1875	-0.9375	-3.6875
18	12	13	19	47	43	0.248725724933	-0.013000878383	0.538163120672	-0.29345703125	0.81640625	0.39306640625	3.6875	-0.6875	-1.0
18	12	13	19	47	43	0.248913980327	-0.012940108835	0.538235281638	-0.28564453125	0.806640625	0.41357421875	1.75	-1.0	-0.125
18	12	13	19	47	43	0.24934334105	-0.0129402174548	0.538117722081	-0.283203125	0.80419921875	0.4296875	1.75	-0.8125	-1.1875
18	12	13	19	47	43	0.249641396469	-0.0130619214779	0.538102335275	-0.29296875	0.814453125	0.44482421875	2.8125	-0.1875	-1.0625
18	12	13	19	47	43	0.249577205112	-0.0126955389248	0.537973461937	-0.287109375	0.8564453125	0.45458984375	1.6875	-0.875	1.5625
18	12	13	19	47	43	0.249525499782	-0.0122687439961	0.537505271791	-0.27783203125	0.84130859375	0.451171875	-0.375	-1.875	1.875
18	12	13	19	47	43	0.249836774453	-0.0120859226342	0.537518357155	-0.28662109375	0.8330078125	0.4453125	3.125	-1.1875	-0.625
18	12	13	19	47	43	0.250188758269	-0.0118410878517	0.538342241505	-0.2861328125	0.85546875	0.4287109375	6.8125	-0.6875	-1.875
18	12	13	19	47	43	0.250315693188	-0.0116582046815	0.538902037346	-0.28125	0.8544921875	0.41357421875	3.9375	-0.1875	-1.1875
18	12	13	19	47	43	0.250381140392	-0.0116584099987	0.538850489365	-0.26025390625	0.83203125	0.40478515625	-0.5	0.1875	-1.1875
18	12	13	19	47	43	0.250319983152	-0.0116584044823	0.538606079331	-0.2578125	0.81494140625	0.396484375	-1.5	0.1875	-0.5
18	12	13	19	47	43	0.250381097014	-0.0117804855494	0.538301046944	-0.251953125	0.78271484375	0.388671875	-2.0	0.5625	-1.0625
18	12	13	19	47	43	0.250196706856	-0.0119025025218	0.538481421783	-0.25927734375	0.79736328125	0.37646484375	0.0	1.125	-0.1875
18	12	13	19	47	43	0.249648816221	-0.0119636107529	0.53836248388	-0.2890625	0.82470703125	0.365234375	-3.5625	0.8125	3.5
18	12	13	19	47	43	0.249215479907	-0.0120243569781	0.537677972693	-0.31103515625	0.806640625	0.380859375	-6.0625	-1.0	4.8125
18	12	13	19	47	43	0.249105469319	-0.0119028587398	0.537398812028	-0.32763671875	0.81689453125	0.3984375	-2.0	-2.4375	4.625
18	12	13	19	47	43	0.249221162782	-0.0114142438012	0.538300620762	-0.3193359375	0.8525390625	0.400390625	5.75	-2.6875	2.25
18	12	13	19	47	43	0.2495166039	-0.0106203251171	0.539866526784	-0.29931640625	0.88916015625	0.4130859375	10.75	-2.6875	-0.25
18	12	13	19	47	43	0.249648066543	-0.009583067591	0.541412799568	-0.2685546875	0.912109375	0.439453125	12.125	-1.875	-0.875
18	12	13	19	47	43	0.249640480847	-0.00842307734886	0.542556047493	-0.23681640625	0.90869140625	0.4453125	10.1875	-1.375	-1.3125
18	12	13	19	47	43	0.249890070485	-0.00756872709823	0.543239283663	-0.23583984375	0.8681640625	0.45556640625	8.75	-1.5	-2.1875
18	12	13	19	47	43	0.250257013413	-0.0070804423307	0.543973293544	-0.25537109375	0.83984375	0.4453125	9.0625	-1.0	-2.3125
18	12	13	19	47	43	0.250504388827	-0.006836377083	0.544834837882	-0.28955078125	0.859375	0.42626953125	7.625	-0.3125	-0.75
18	12	13	19	47	43	0.250495740184	-0.00701925197883	0.544877064478	-0.30615234375	0.8525390625	0.40673828125	0.625	0.375	1.0625
18	12	13	19	47	43	0.250385632203	-0.00762998635431	0.544414786353	-0.3232421875	0.833984375	0.40771484375	-3.25	1.375	1.8125
18	12	13	19	47	43	0.25013212433	-0.00842319013117	0.543845101948	-0.32763671875	0.8427734375	0.3935546875	-5.25	2.0	2.375
18	12	13	19	47	43	0.249948718637	-0.0091556307193	0.542928901655	-0.3115234375	0.83251953125	0.40673828125	-6.75	1.8125	1.75
18	12	13	19	47	43	0.249646575112	-0.00939989549321	0.54250825418	-0.30126953125	0.8564453125	0.39599609375	-4.25	0.625	2.1875
18	12	13	19	47	43	0.24933724341	-0.00927766487105	0.541949910461	-0.27197265625	0.83544921875	0.3916015625	-4.375	-0.4375	2.0
18	12	13	19	47	43	0.249333459084	-0.00891130600398	0.542246866708	-0.26953125	0.8251953125	0.38427734375	1.9375	-1.3125	0.875
18	12	13	19	47	43	0.249103506312	-0.00811829608908	0.543559599047	-0.29443359375	0.8603515625	0.36328125	7.0625	-2.3125	3.0625
18	12	13	19	47	43	0.248787730494	-0.00708031813967	0.544757236177	-0.30029296875	0.84375	0.37255859375	7.75	-3.4375	5.375
18	12	13	19	47	43	0.248849421789	-0.00604270119133	0.546528752194	-0.30078125	0.845703125	0.373046875	12.3125	-3.5625	2.8125
18	12	13	19	47	43	0.24915373664	-0.00512712245902	0.548541065943	-0.32568359375	0.8857421875	0.39404296875	14.6875	-3.3125	1.875
18	12	13	19	47	43	0.249091286129	-0.00408946732925	0.550002837371	-0.30712890625	0.908203125	0.40966796875	11.0	-2.9375	3.125
18	12	13	19	47	43	0.249031280052	-0.00329600223598	0.550737558802	-0.27978515625	0.9091796875	0.423828125	7.0625	-1.6875	1.5
18	12	13	19	47	44	0.249286695898	-0.00292991219469	0.551189731625	-0.27587890625	0.8876953125	0.43408203125	6.0	-1.0	-0.9375
18	12	13	19	47	44	0.249578707187	-0.00256353771138	0.551648900844	-0.271484375	0.88037109375	0.43701171875	6.5625	-0.9375	-1.5625
18	12	13	19	47	44	0.249772018962	-0.0020142904755	0.552220785813	-0.265625	0.85693359375	0.41943359375	7.125	-1.25	-0.4375
18	12	13	19	47	44	0.249958234225	-0.00152599654594	0.553265307696	-0.27392578125	0.83544921875	0.3994140625	9.8125	-1.1875	0.25
18	12	13	19	47	44	0.250253700747	-0.00103763729578	0.555013878265	-0.27099609375	0.8271484375	0.36572265625	13.25	-0.8125	-1.3125
18	12	13	19	47	44	0.250807982118	-0.0010986964415	0.556917018459	-0.2958984375	0.82763671875	0.3427734375	12.4375	0.4375	-2.8125
18	12	13	19	47	44	0.250746848137	-0.00103765735597	0.558503812185	-0.3095703125	0.8798828125	0.3330078125	8.0	0.5625	0.6875
18	12	13	19	47	44	0.25044019828	-0.000976613008159	0.558561602354	-0.28466796875	0.85595703125	0.34033203125	-1.125	-0.0625	2.25
18	12	13	19	47	44	0.250617410782	-0.0011597006344	0.558853632032	-0.2861328125	0.82373046875	0.35888671875	2.25	0.125	-0.375
18	12	13	19	47	44	0.250625612588	-0.000915583095183	0.559848543268	-0.298828125	0.8642578125	0.3544921875	6.3125	-0.625	1.0625
18	12	13	19	47	44	0.251236194143	-0.000915583797897	0.560520401072	-0.2509765625	0.8486328125	0.365234375	5.9375	-0.25	-5.125
18	12	13	19	47	44	0.251529736184	-0.000915541383829	0.561898265302	-0.28076171875	0.91650390625	0.37109375	8.8125	1.125	-3.6875
18	12	13	19	47	44	0.250739704988	-0.000610369291598	0.561722859058	-0.32177734375	0.9462890625	0.3701171875	-3.0625	0.0	6.125
18	12	13	19	47	44	0.250311240252	-0.000122073270057	0.560804602641	-0.3134765625	0.86572265625	0.38818359375	-4.5625	-2.375	7.0625
18	12	13	19	47	44	0.250805650721	0.000427266866646	0.562100082135	-0.333984375	0.84130859375	0.3916015625	12.625	-3.5625	2.1875
18	12	13	19	47	44	0.251791782482	0.000915606481754	0.565112320539	-0.357421875	0.91845703125	0.375	22.4375	-2.4375	-2.5
18	12	13	19	47	44	0.252276805267	0.00122079267006	0.567363393409	-0.349609375	0.966796875	0.3837890625	16.125	-0.8125	-1.3125
18	12	13	19	47	44	0.252328571109	0.0011597104139	0.567464616739	-0.30419921875	0.93798828125	0.392578125	1.5	0.5	-0.5
18	12	13	19	47	44	0.252697241322	0.000671417790951	0.566615577582	-0.2578125	0.84521484375	0.3984375	-2.3125	1.25	-3.125
18	12	13	19	47	44	0.253182609743	6.10372733227e-05	0.566242784615	-0.25439453125	0.81640625	0.37841796875	-0.0625	1.6875	-4.5625
18	12	13	19	47	44	0.253241728488	-0.000244147243662	0.566055384431	-0.25830078125	0.8076171875	0.3583984375	0.375	1.6875	-1.3125
18	12	13	19	47	44	0.252578911576	0.0	0.565891515036	-0.26904296875	0.8203125	0.328125	-1.625	0.5625	4.25
18	12	13	19	47	44	0.252089793225	-0.000122077381707	0.565096199921	-0.27490234375	0.765625	0.314453125	-6.25	0.1875	4.75
18	12	13	19	47	44	0.251834570455	-0.000366216050104	0.565681725394	-0.30322265625	0.8134765625	0.31005859375	2.3125	1.5	2.375
18	12	13	19	47	44	0.250924750865	-0.000610373998698	0.566060846392	-0.3349609375	0.9033203125	0.29443359375	-3.125	2.0	6.0
18	12	13	19	47	44	0.250442464244	-0.00103766070976	0.564975737032	-0.2978515625	0.87646484375	0.32421875	-10.625	0.8125	3.3125
18	12	13	19	47	44	0.250501541311	-0.0010376525834	0.564788197308	-0.26171875	0.876953125	0.34326171875	-2.0625	-0.4375	-1.4375
18	12	13	19	47	44	0.250559955156	-0.000488301983252	0.565453696606	-0.263671875	0.89501953125	0.34423828125	4.25	-1.375	-0.75
18	12	13	19	47	44	0.250193014199	0.000610375736031	0.566550758184	-0.24267578125	0.90966796875	0.3544921875	7.8125	-1.3125	1.4375
18	12	13	19	47	44	0.249829949183	0.00152595864392	0.567961807268	-0.24072265625	0.9072265625	0.3486328125	9.75	-0.1875	0.25
18	12	13	19	47	44	0.249889733462	0.00164802706485	0.569118679727	-0.28125	0.90283203125	0.3486328125	7.75	1.0	-1.375
18	12	13	19	47	44	0.250076768191	0.00122077992771	0.569860070253	-0.31640625	0.92822265625	0.3515625	3.5625	1.4375	-1.6875
18	12	13	19	47	44	0.250200048239	0.000610392896411	0.5698017688	-0.3203125	0.92822265625	0.365234375	-1.0625	1.4375	-1.0625
18	12	13	19	47	44	0.250436582288	-0.000122074863411	0.569479237813	-0.32763671875	0.9150390625	0.37451171875	-2.25	1.625	-1.0625
18	12	13	19	47	44	0.250920210955	-0.000976580728603	0.56928552848	-0.30419921875	0.8798828125	0.3720703125	-0.4375	2.125	-3.8125
18	12	13	19	47	44	0.251786951099	-0.00201429560879	0.56943526468	-0.28125	0.857421875	0.36865234375	2.25	2.3125	-7.8125
18	12	13	19	47	44	0.25250843729	-0.00286872046233	0.569410493469	-0.2783203125	0.8623046875	0.3564453125	0.5	1.875	-6.8125
18	12	13	19	47	44	0.25276275996	-0.00354026565507	0.568578872017	-0.27685546875	0.8251953125	0.3408203125	-5.75	1.25	-2.1875
18	12	13	19	47	44	0.252874103456	-0.00415048009534	0.568066444814	-0.28173828125	0.78369140625	0.333984375	-2.9375	1.1875	-0.8125
18	12	13	19	47	44	0.252998938514	-0.00463882251558	0.568499906712	-0.30810546875	0.7919921875	0.31298828125	2.125	1.4375	0.3125
18	12	13	19	47	44	0.253119142822	-0.00518811843257	0.569289183771	-0.3427734375	0.80810546875	0.3037109375	3.8125	0.9375	1.3125
18	12	13	19	47	44	0.253067058608	-0.00543245736037	0.569858673218	-0.35205078125	0.83935546875	0.31103515625	2.3125	-0.0625	3.125
18	12	13	19	47	44	0.252754994769	-0.00543230971612	0.570026297065	-0.33740234375	0.84765625	0.318359375	-0.3125	-0.5	4.75
18	12	13	19	47	44	0.252451784868	-0.00537131457165	0.570152834248	-0.3173828125	0.85986328125	0.3330078125	0.4375	0.125	3.375
18	12	13	19	47	44	0.252146019752	-0.00549337733665	0.570456717648	-0.3017578125	0.89794921875	0.33251953125	0.3125	1.625	0.9375
18	12	13	19	47	44	0.251596563913	-0.00561544975255	0.570029187381	-0.2841796875	0.91357421875	0.34033203125	-5.0	1.6875	1.4375
18	12	13	19	47	44	0.25104690797	-0.0057375174688	0.56892979071	-0.2646484375	0.89892578125	0.33740234375	-9.625	1.125	1.125
18	12	13	19	47	44	0.250928674932	-0.00598175873104	0.568206041095	-0.28173828125	0.8759765625	0.33056640625	-6.8125	0.4375	0.0625
18	12	13	19	47	44	0.250928582846	-0.00604279486786	0.568205832575	-0.3056640625	0.85693359375	0.33056640625	-0.1875	-1.0	0.125
18	12	13	19	47	44	0.251228133795	-0.00585954831009	0.569108629617	-0.3212890625	0.875	0.32470703125	5.375	-1.75	0.25
18	12	13	19	47	45	0.251606064883	-0.00579878121394	0.570233832638	-0.3291015625	0.8837890625	0.3232421875	6.5625	-1.375	-0.8125
18	12	13	19	47	45	0.251969343202	-0.00592079125257	0.570837523649	-0.33203125	0.90185546875	0.3291015625	2.75	-1.0	-1.125
18	12	13	19	47	45	0.252210582327	-0.0064090298026	0.570403652431	-0.31640625	0.86962890625	0.33642578125	-3.6875	0.125	-0.5
18	12	13	19	47	45	0.252460672908	-0.00677541941316	0.569928748294	-0.29931640625	0.8515625	0.35400390625	-2.4375	0.3125	-1.25
18	12	13	19	47	45	0.252457300337	-0.0068363679008	0.569860095731	-0.29736328125	0.82958984375	0.35888671875	0.3125	0.1875	-0.8125
18	12	13	19	47	45	0.252638538095	-0.0068363170492	0.570038972522	-0.302734375	0.84130859375	0.35302734375	2.625	-0.375	0.0625
18	12	13	19	47	45	0.253057845461	-0.00695817520081	0.570387256593	-0.3046875	0.83837890625	0.34375	3.5	-0.75	-1.4375
18	12	13	19	47	45	0.25348583843	-0.00708026902429	0.570694098079	-0.322265625	0.86376953125	0.34912109375	2.9375	-0.6875	-0.875
18	12	13	19	47	45	0.253493159892	-0.0073856663489	0.570405388681	-0.322265625	0.87255859375	0.34326171875	-2.5	0.0	0.6875
18	12	13	19	47	45	0.253550997981	-0.00769076209571	0.569970924204	-0.296875	0.8642578125	0.3427734375	-3.1875	0.5	-0.6875
18	12	13	19	47	45	0.253669011681	-0.00805685985127	0.569595576758	-0.30810546875	0.876953125	0.34423828125	-3.125	0.6875	-0.6875
18	12	13	19	47	45	0.253785852624	-0.00842290708565	0.568973477192	-0.30322265625	0.8671875	0.345703125	-4.625	-0.0625	-0.75
18	12	13	19	47	45	0.254162072851	-0.00866739057274	0.568507576017	-0.2998046875	0.84765625	0.35498046875	-1.9375	-0.6875	-1.5
18	12	13	19	47	45	0.254529883314	-0.0087284828091	0.568755264442	-0.31201171875	0.8642578125	0.35009765625	2.0625	-0.625	-1.4375
18	12	13	19	47	45	0.254719635756	-0.00885079012332	0.568892165168	-0.31884765625	0.86474609375	0.35400390625	1.625	-0.4375	-0.375
18	12	13	19	47	45	0.254776575844	-0.00891168664909	0.56888301075	-0.32373046875	0.86376953125	0.35498046875	0.0	-0.3125	0.375
18	12	13	19	47	45	0.255013950733	-0.00927767365042	0.569050996335	-0.31396484375	0.869140625	0.34814453125	1.1875	0.6875	-1.75
18	12	13	19	47	45	0.255135907522	-0.00970493045358	0.568989696152	-0.31787109375	0.88134765625	0.3466796875	-1.4375	1.0625	-1.1875
18	12	13	19	47	45	0.25501354743	-0.0103152918898	0.568195575162	-0.296875	0.8642578125	0.3525390625	-5.9375	2.25	-0.6875
18	12	13	19	47	45	0.254831462977	-0.0109867457092	0.567587490832	-0.28759765625	0.85498046875	0.33349609375	-6.125	2.5625	-1.125
18	12	13	19	47	45	0.254713152547	-0.0118414453856	0.566680303918	-0.29296875	0.84033203125	0.326171875	-8.5625	2.5	-1.375
18	12	13	19	47	45	0.254644609389	-0.0126956085218	0.565625981593	-0.2998046875	0.82861328125	0.31640625	-9.875	1.75	-0.875
18	12	13	19	47	45	0.254347945709	-0.0133064200059	0.564607270893	-0.3173828125	0.83544921875	0.310546875	-10.25	0.8125	2.0625
18	12	13	19	47	45	0.254279736517	-0.0137333031004	0.563553722338	-0.32275390625	0.81396484375	0.310546875	-9.5625	-1.125	2.0
18	12	13	19	47	45	0.254530665188	-0.0137947075138	0.5633245825	-0.33203125	0.8125	0.32080078125	-2.5	-2.375	1.625
18	12	13	19	47	45	0.254709823114	-0.0134282676935	0.563865167968	-0.3251953125	0.8515625	0.31640625	2.4375	-2.9375	1.4375
18	12	13	19	47	45	0.254703863959	-0.0129396643085	0.564584409686	-0.31689453125	0.875	0.3310546875	3.5625	-2.0	1.4375
18	12	13	19	47	45	0.254468456265	-0.012268687865	0.565092100769	-0.287109375	0.884765625	0.337890625	2.75	-1.5625	1.4375
18	12	13	19	47	45	0.254650874632	-0.0119634639089	0.565273669695	-0.265625	0.86767578125	0.35888671875	2.125	-0.6875	-2.3125
18	12	13	19	47	45	0.254647826862	-0.0116581339719	0.565633128362	-0.2763671875	0.8681640625	0.3671875	3.5625	0.0625	-1.125
18	12	13	19	47	45	0.254348582044	-0.0115363287752	0.565829458974	-0.2822265625	0.849609375	0.35888671875	1.8125	1.5	1.0
18	12	13	19	47	45	0.253802965845	-0.0115364984475	0.566142979369	-0.29541015625	0.8310546875	0.36669921875	3.1875	2.5	2.6875
18	12	13	19	47	45	0.253488942596	-0.0120243972288	0.56673364604	-0.314453125	0.84716796875	0.359375	4.0625	3.875	0.625
18	12	13	19	47	45	0.253789171178	-0.0126955621946	0.567027753787	-0.33935546875	0.8916015625	0.36572265625	1.5625	2.0	-2.1875
18	12	13	19	47	45	0.253860699341	-0.0130623201873	0.566013528489	-0.34619140625	0.91455078125	0.365234375	-7.875	-1.125	0.9375
18	12	13	19	47	45	0.253785981204	-0.0131226517458	0.564579203015	-0.3076171875	0.8837890625	0.365234375	-9.875	-1.4375	1.4375
18	12	13	19	47	45	0.25404273224	-0.0130622644641	0.564240993953	-0.29541015625	0.8447265625	0.359375	-1.125	-1.5	-0.8125
18	12	13	19	47	45	0.254836666761	-0.0130622866316	0.564730261288	-0.28173828125	0.8310546875	0.34375	4.25	-1.4375	-5.0
18	12	13	19	47	45	0.255264121847	-0.0126960634491	0.565646249917	-0.27978515625	0.8623046875	0.3310546875	5.8125	-1.75	-3.0
18	12	13	19	47	45	0.255015178231	-0.0121464864691	0.565452515828	-0.2724609375	0.8564453125	0.3291015625	-2.0625	-1.875	1.1875
18	12	13	19	47	45	0.255027025157	-0.0119639293755	0.564807339344	-0.28466796875	0.81298828125	0.3408203125	-3.8125	-1.8125	1.25
18	12	13	19	47	45	0.255326328309	-0.0120246920098	0.564611173047	-0.318359375	0.8203125	0.3466796875	-0.5	-1.6875	0.4375
18	12	13	19	47	45	0.255810468558	-0.0120855339476	0.564663002776	-0.3369140625	0.8330078125	0.35791015625	1.5	-1.8125	0.0
18	12	13	19	47	45	0.256055971112	-0.0120245593109	0.564971172494	-0.33984375	0.87939453125	0.369140625	3.125	-1.3125	0.5625
18	12	13	19	47	45	0.256113866849	-0.0119023365194	0.56453697676	-0.3212890625	0.90625	0.3876953125	-1.875	-1.3125	0.9375
18	12	13	19	47	45	0.256294905792	-0.0117801659485	0.563616851652	-0.28466796875	0.88037109375	0.40478515625	-3.5	-1.125	-1.375
18	12	13	19	47	45	0.256542927073	-0.0117193057335	0.562892903513	-0.26025390625	0.87841796875	0.40625	-2.0625	0.0625	-3.1875
18	12	13	19	47	45	0.256964742283	-0.011841130642	0.562209558472	-0.2568359375	0.86962890625	0.3974609375	-2.3125	0.1875	-4.8125
18	12	13	19	47	45	0.257336776947	-0.0118413981802	0.561672917805	-0.26806640625	0.86376953125	0.38916015625	-1.875	-0.6875	-3.5625
18	12	13	19	47	45	0.257456199144	-0.0117802386048	0.561117790122	-0.28662109375	0.83837890625	0.3720703125	-2.1875	-1.0	-0.375
18	12	13	19	47	45	0.257525367473	-0.0118416499857	0.561135506798	-0.3173828125	0.83203125	0.357421875	0.1875	-0.3125	0.375
18	12	13	19	47	46	0.257573348528	-0.0119020860102	0.561168096296	-0.341796875	0.84814453125	0.34765625	0.875	0.875	0.25
18	12	13	19	47	46	0.257949241337	-0.0128791504785	0.561189144546	-0.36279296875	0.86669921875	0.3486328125	-1.875	1.375	-1.625
18	12	13	19	47	46	0.258193262136	-0.0137947227524	0.560456390765	-0.34130859375	0.8623046875	0.36572265625	-6.25	1.0625	-1.5
18	12	13	19	47	46	0.258372135695	-0.0143438346063	0.55934851205	-0.29638671875	0.841796875	0.388671875	-6.25	0.8125	-1.6875
18	12	13	19	47	46	0.258621282915	-0.0146493056171	0.558687892972	-0.26708984375	0.84521484375	0.39453125	-2.5625	1.3125	-3.8125
18	12	13	19	47	46	0.258803402703	-0.0148323648248	0.558258471964	-0.26708984375	0.8525390625	0.38427734375	-2.0625	0.75	-3.625
18	12	13	19	47	46	0.258744002494	-0.0147714198168	0.557590578623	-0.26806640625	0.85302734375	0.3779296875	-4.125	0.0625	-1.0
18	12	13	19	47	46	0.258681675476	-0.014466153159	0.55685533869	-0.27490234375	0.8681640625	0.36962890625	-5.0625	-1.3125	-0.375
18	12	13	19	47	46	0.258974685029	-0.0148927228723	0.555547391736	-0.30908203125	0.84619140625	0.37109375	-9.375	-1.25	-1.1875
18	12	13	19	47	46	0.259052222442	-0.0157482265292	0.555155504975	-0.35400390625	0.87841796875	0.36572265625	-5.0	1.25	-0.5
18	12	13	19	47	46	0.259291565621	-0.0166024731283	0.554778964202	-0.35107421875	0.8955078125	0.37939453125	-4.6875	1.3125	-1.9375
18	12	13	19	47	46	0.259831713865	-0.0177005395868	0.554271034439	-0.3466796875	0.8876953125	0.37841796875	-5.125	1.875	-4.375
18	12	13	19	47	46	0.260632202641	-0.0186776238895	0.553919728095	-0.31640625	0.84375	0.3916015625	-2.0	1.25	-6.625
18	12	13	19	47	46	0.261545614587	-0.01922680714	0.553915158081	-0.2802734375	0.79833984375	0.396484375	2.875	0.8125	-7.25
18	12	13	19	47	46	0.261790868585	-0.0191658504863	0.554405796074	-0.2822265625	0.796875	0.38330078125	5.4375	0.9375	-2.25
18	12	13	19	47	46	0.26142090804	-0.0188603923849	0.554519950863	-0.291015625	0.7734375	0.37841796875	2.75	0.5625	2.875
18	12	13	19	47	46	0.261175288409	-0.0186771765022	0.55482200786	-0.30419921875	0.75830078125	0.361328125	3.5625	0.1875	3.0625
18	12	13	19	47	46	0.26105711437	-0.0187384928949	0.555379631437	-0.3369140625	0.79052734375	0.35107421875	3.8125	0.5	2.6875
18	12	13	19	47	46	0.260513778499	-0.0186778857124	0.555697619366	-0.36279296875	0.8544921875	0.34765625	-0.1875	0.1875	5.375
18	12	13	19	47	46	0.259532033212	-0.018128178237	0.555503535809	-0.3359375	0.890625	0.3603515625	-3.875	-1.125	7.375
18	12	13	19	47	46	0.258624442465	-0.0172741839079	0.555398584374	-0.30126953125	0.90087890625	0.36669921875	-2.1875	-1.1875	5.875
18	12	13	19	47	46	0.258255172954	-0.0166025542528	0.556124528665	-0.291015625	0.9140625	0.36181640625	2.9375	-0.625	0.9375
18	12	13	19	47	46	0.258375739219	-0.0159310342396	0.557219967713	-0.29638671875	0.9072265625	0.36865234375	6.8125	-1.375	-1.1875
18	12	13	19	47	46	0.258305013309	-0.0148928221284	0.558358757503	-0.28857421875	0.90380859375	0.37939453125	8.5625	-2.0	0.1875
18	12	13	19	47	46	0.258130467928	-0.0137335907505	0.55929285354	-0.2724609375	0.86865234375	0.37646484375	8.0625	-2.0625	1.4375
18	12	13	19	47	46	0.258321519173	-0.0132456922638	0.560469798924	-0.28564453125	0.8310546875	0.37451171875	10.1875	-0.4375	-1.1875
18	12	13	19	47	46	0.258322520155	-0.013001582418	0.561753816869	-0.30517578125	0.8720703125	0.3720703125	9.4375	1.0625	-0.75
18	12	13	19	47	46	0.257951767481	-0.0131844727345	0.561682954179	-0.3193359375	0.8681640625	0.37353515625	-0.625	1.6875	2.0
18	12	13	19	47	46	0.257513533925	-0.0133059849243	0.560987648803	-0.3037109375	0.859375	0.38330078125	-4.375	1.3125	2.4375
18	12	13	19	47	46	0.257161998118	-0.013428824967	0.560226161577	-0.31494140625	0.8544921875	0.39111328125	-4.0625	0.6875	2.8125
18	12	13	19	47	46	0.256973142207	-0.013428525246	0.559908464005	-0.310546875	0.85693359375	0.3818359375	-1.25	0.375	1.9375
18	12	13	19	47	46	0.256722951883	-0.0132450976126	0.56013945065	-0.3046875	0.87451171875	0.3681640625	1.1875	0.125	1.125
18	12	13	19	47	46	0.256421129451	-0.0130011189177	0.560268875799	-0.31201171875	0.89501953125	0.35595703125	-0.5	-0.3125	1.9375
18	12	13	19	47	46	0.255991759176	-0.0125127111662	0.560142196938	-0.3017578125	0.87890625	0.353515625	-2.0625	-1.25	3.4375
18	12	13	19	47	46	0.255995009517	-0.0120856013077	0.560393462656	-0.30126953125	0.85693359375	0.353515625	1.5625	-1.75	1.1875
18	12	13	19	47	46	0.255924752903	-0.0113527317052	0.561594002256	-0.32275390625	0.89697265625	0.357421875	8.0	-2.0625	2.0
18	12	13	19	47	46	0.255752296673	-0.0105597010321	0.562410897742	-0.3115234375	0.89697265625	0.361328125	5.625	-2.0	2.8125
18	12	13	19	47	46	0.255744315863	-0.0101321137072	0.563308900025	-0.27978515625	0.88427734375	0.36279296875	6.4375	-0.1875	-1.25
18	12	13	19	47	46	0.25575630308	-0.0101325886185	0.563762581205	-0.27197265625	0.89404296875	0.3720703125	3.25	1.875	-2.6875
18	12	13	19	47	46	0.255694930905	-0.0105598527206	0.563273531246	-0.25537109375	0.86376953125	0.37646484375	-2.9375	2.875	-3.25
18	12	13	19	47	46	0.255503662911	-0.0109867795805	0.562278963865	-0.25244140625	0.83837890625	0.38427734375	-5.5625	2.5625	-1.9375
18	12	13	19	47	46	0.255017398127	-0.01098686732	0.561550996354	-0.2900390625	0.84326171875	0.365234375	-4.8125	0.6875	2.9375
18	12	13	19	47	46	0.254963405525	-0.0110482107733	0.560772996542	-0.29833984375	0.794921875	0.3671875	-3.4375	-0.5625	2.25
18	12	13	19	47	46	0.255496823759	-0.0115358097684	0.561531480789	-0.33447265625	0.810546875	0.34912109375	5.4375	0.3125	-2.0
18	12	13	19	47	46	0.255928348349	-0.011902224643	0.562334336595	-0.36181640625	0.88720703125	0.33837890625	3.25	-0.5	-0.9375
18	12	13	19	47	46	0.25605632981	-0.0119635376979	0.561736925684	-0.32568359375	0.87451171875	0.361328125	-4.25	-1.625	0.9375
18	12	13	19	47	46	0.256053310971	-0.0117802834368	0.561242001043	-0.2783203125	0.84130859375	0.36376953125	-2.8125	-1.125	0.125
18	12	13	19	47	46	0.256235743055	-0.0115361018193	0.561850884903	-0.2509765625	0.84326171875	0.34326171875	4.25	0.25	-3.3125
18	12	13	19	47	46	0.256305619231	-0.0112923409283	0.562724816312	-0.25537109375	0.87353515625	0.34521484375	5.125	0.9375	-3.625
18	12	13	19	47	47	0.256058402373	-0.0111701281607	0.563023290462	-0.26904296875	0.8515625	0.345703125	1.375	0.9375	-0.4375
18	12	13	19	47	47	0.255694264034	-0.0108039829873	0.563272062187	-0.2861328125	0.8486328125	0.3525390625	1.8125	0.25	2.25
18	12	13	19	47	47	0.255747246647	-0.0109257176968	0.563620543088	-0.31103515625	0.828125	0.35205078125	2.9375	0.375	0.5
18	12	13	19	47	47	0.256051585286	-0.0113529427564	0.564412159509	-0.34228515625	0.84228515625	0.3505859375	5.0	0.8125	-0.6875
18	12	13	19	47	47	0.256117906924	-0.0115362927571	0.565034190752	-0.35888671875	0.884765625	0.34912109375	3.3125	0.25	1.5
18	12	13	19	47	47	0.255996978094	-0.0115363445064	0.564914647654	-0.330078125	0.86865234375	0.36279296875	-0.625	-0.5625	2.0625
18	12	13	19	47	47	0.255987957254	-0.01141386457	0.565383034822	-0.2880859375	0.8603515625	0.37451171875	4.5625	1.0	-0.5625
18	12	13	19	47	47	0.255990559404	-0.0114750179227	0.565877080647	-0.27978515625	0.88330078125	0.37060546875	4.1875	2.0	-2.5
18	12	13	19	47	47	0.255809044701	-0.0115361272843	0.565697500903	-0.24853515625	0.87451171875	0.36865234375	-0.9375	2.375	-2.875
18	12	13	19	47	47	0.255258034898	-0.0115360517924	0.565022388582	-0.23388671875	0.86669921875	0.36279296875	-5.0	2.625	-0.8125
18	12	13	19	47	47	0.25471007838	-0.011780264828	0.563560544857	-0.26123046875	0.83740234375	0.361328125	-9.8125	1.6875	1.5
18	12	13	19	47	47	0.254405165985	-0.0120244284307	0.562157288562	-0.2763671875	0.8046875	0.3720703125	-8.25	0.5	1.8125
18	12	13	19	47	47	0.254041378297	-0.0120855821487	0.561369186977	-0.30029296875	0.82958984375	0.37109375	-4.375	0.625	3.25
18	12	13	19	47	47	0.253542360228	-0.0120850715756	0.560613042537	-0.32421875	0.8466796875	0.37548828125	-4.75	-0.0625	5.0625
18	12	13	19	47	47	0.253131963739	-0.0118417171366	0.559612694373	-0.31103515625	0.86669921875	0.38525390625	-6.0625	-1.4375	4.3125
18	12	13	19	47	47	0.253060311284	-0.011780183328	0.558917817276	-0.328125	0.8916015625	0.380859375	-4.75	-1.4375	2.625
18	12	13	19	47	47	0.252765617233	-0.0117196325788	0.558574779835	-0.30419921875	0.9140625	0.36474609375	-4.3125	-0.25	1.25
18	12	13	19	47	47	0.252516503811	-0.0119025183087	0.558014473735	-0.30126953125	0.89599609375	0.36865234375	-5.375	0.4375	0.625
18	12	13	19	47	47	0.252279231763	-0.0121470039005	0.557480334792	-0.30078125	0.873046875	0.35986328125	-5.1875	0.8125	1.0625
18	12	13	19	47	47	0.251837803496	-0.0120852848018	0.557571094265	-0.298828125	0.8544921875	0.3486328125	-1.0625	0.4375	2.5
18	12	13	19	47	47	0.251727236602	-0.0122689560031	0.558084899188	-0.32861328125	0.8291015625	0.349609375	2.75	0.6875	2.1875
18	12	13	19	47	47	0.251723102002	-0.0123908316456	0.559052349961	-0.3349609375	0.8359375	0.32666015625	4.25	0.125	1.5625
18	12	13	19	47	47	0.251545075222	-0.0120248434406	0.559979257482	-0.31787109375	0.86181640625	0.34814453125	5.625	-0.625	2.4375
18	12	13	19	47	47	0.251228307414	-0.0120242897378	0.560258657375	-0.2998046875	0.845703125	0.36767578125	2.25	1.375	2.1875
18	12	13	19	47	47	0.250928014909	-0.0117193332188	0.560635810494	-0.25390625	0.86328125	0.35400390625	1.9375	0.9375	-0.375
18	12	13	19	47	47	0.250626082741	-0.0112922126905	0.56076517831	-0.2548828125	0.8671875	0.38330078125	2.0	0.625	0.0
18	12	13	19	47	47	0.25018924481	-0.0112307443389	0.560316483863	-0.255859375	0.84716796875	0.369140625	-2.6875	1.3125	0.9375
18	12	13	19	47	47	0.249648617174	-0.0104986704533	0.560274977272	-0.2587890625	0.8671875	0.36474609375	0.0	-0.875	2.9375
18	12	13	19	47	47	0.249278572942	-0.0101322828375	0.560205372787	-0.28271484375	0.849609375	0.35205078125	-0.875	-0.75	2.875
18	12	13	19	47	47	0.249281823515	-0.0103765695391	0.560700986976	-0.31298828125	0.86474609375	0.33544921875	1.1875	0.6875	-0.125
18	12	13	19	47	47	0.249276613372	-0.010437390031	0.560811342719	-0.3212890625	0.90234375	0.337890625	-0.0625	-0.5	-0.0625
18	12	13	19	47	47	0.249155632574	-0.0102543229477	0.560691729745	-0.294921875	0.88623046875	0.36181640625	-1.375	-0.875	1.125
18	12	13	19	47	47	0.249411008621	-0.0106820671827	0.560778006901	-0.2978515625	0.853515625	0.3720703125	0.9375	1.3125	-2.1875
18	12	13	19	47	47	0.249649844947	-0.010376643922	0.561559553426	-0.25537109375	0.88134765625	0.36083984375	5.25	0.0	-3.625
18	12	13	19	47	47	0.250134852482	-0.0105596216397	0.562040439642	-0.26904296875	0.84033203125	0.37841796875	5.25	1.0	-4.3125
18	12	13	19	47	47	0.25025746515	-0.0107427594796	0.56240787412	-0.25732421875	0.84619140625	0.3505859375	2.5625	1.6875	-3.4375
18	12	13	19	47	47	0.25025746515	-0.0107427594796	0.56240787412	-0.2783203125	0.84423828125	0.35498046875	-0.3125	0.875	-0.5625
18	12	13	19	47	47	0.250194035804	-0.0111088837561	0.562097310495	-0.29638671875	0.814453125	0.34814453125	-2.3125	0.875	0.4375
18	12	13	19	47	47	0.250139409696	-0.0114143654498	0.562172758248	-0.31689453125	0.83349609375	0.34716796875	-0.1875	0.625	1.1875
18	12	13	19	47	47	0.249893004594	-0.0115363404661	0.562289779756	-0.32275390625	0.86572265625	0.33837890625	-0.8125	0.5	2.375
18	12	13	19	47	47	0.249827991297	-0.011841346277	0.562158758818	-0.33837890625	0.859375	0.36328125	-1.4375	0.25	2.5
18	12	13	19	47	47	0.24958359946	-0.0118413348729	0.56209717961	-0.31689453125	0.88427734375	0.35498046875	-1.3125	0.0625	1.875
18	12	13	19	47	47	0.249398356868	-0.0111698236189	0.562031343623	-0.29150390625	0.9013671875	0.3818359375	0.5625	-1.9375	2.3125
18	12	13	19	47	47	0.249712349367	-0.0110481386545	0.562112203696	-0.28662109375	0.86279296875	0.3837890625	2.3125	-0.875	-1.5625
18	12	13	19	47	47	0.249825099927	-0.0104373545291	0.562884698638	-0.2578125	0.87890625	0.365234375	6.375	-1.125	-1.875
18	12	13	19	47	47	0.249832972897	-0.0100104098595	0.563451789107	-0.27490234375	0.8759765625	0.37646484375	5.0625	-0.4375	-0.375
18	12	13	19	47	47	0.249705492737	-0.00970500448429	0.563622713257	-0.291015625	0.85888671875	0.36767578125	2.1875	-0.375	1.375
18	12	13	19	47	47	0.249524004906	-0.00946091505882	0.563870537506	-0.2900390625	0.87060546875	0.35546875	1.5625	-0.1875	1.4375
18	12	13	19	47	47	0.249402136721	-0.00970507580485	0.563748931658	-0.2890625	0.85546875	0.35498046875	-1.125	1.1875	0.125
18	12	13	19	47	47	0.249338004197	-0.0104374048268	0.563436748284	-0.30029296875	0.85009765625	0.3505859375	-3.375	2.75	-1.3125
18	12	13	19	47	48	0.248907412483	-0.0107424484053	0.562696771868	-0.26416015625	0.88232421875	0.35302734375	-6.75	2.3125	-0.125
18	12	13	19	47	48	0.248364128545	-0.0113530911549	0.56118451655	-0.271484375	0.83544921875	0.35888671875	-11.0625	2.75	1.4375
18	12	13	19	47	48	0.247689047519	-0.0118412210987	0.56019962497	-0.2578125	0.84521484375	0.32470703125	-10.25	2.75	1.1875
18	12	13	19	47	48	0.247145285423	-0.0123908355003	0.559540832668	-0.28173828125	0.83447265625	0.32080078125	-8.0	2.625	1.3125
18	12	13	19	47	48	0.246660754618	-0.0128793415551	0.55912212628	-0.298828125	0.849609375	0.3076171875	-7.375	1.5625	1.9375
18	12	13	19	47	48	0.246468366893	-0.0131230061619	0.558551764595	-0.314453125	0.84521484375	0.31591796875	-7.25	-0.875	2.6875
18	12	13	19	47	48	0.246230410079	-0.0127571035465	0.558809966355	-0.30712890625	0.86376953125	0.3203125	-1.1875	-2.0625	2.9375
18	12	13	19	47	48	0.245977133323	-0.0120852288829	0.559582719182	-0.302734375	0.89794921875	0.3408203125	3.5	-1.6875	2.6875
18	12	13	19	47	48	0.246105819257	-0.0117193247265	0.560452289786	-0.3017578125	0.900390625	0.35302734375	4.5625	-1.625	-0.4375
18	12	13	19	47	48	0.246592793232	-0.0109257697992	0.561120680244	-0.2724609375	0.92041015625	0.390625	6.8125	-3.375	-2.625
18	12	13	19	47	48	0.247444550165	-0.0103763131544	0.561541653064	-0.26171875	0.87353515625	0.41357421875	7.3125	-2.625	-4.9375
18	12	13	19	47	48	0.248053616195	-0.00970485358636	0.562576323934	-0.2470703125	0.89208984375	0.40869140625	10.9375	-1.3125	-4.75
18	12	13	19	47	48	0.248296838891	-0.00952170768609	0.563245631585	-0.267578125	0.8759765625	0.40283203125	7.5	0.625	-2.8125
18	12	13	19	47	48	0.248491364752	-0.0100104602848	0.563271509195	-0.283203125	0.8408203125	0.3896484375	2.25	2.375	-2.5625
18	12	13	19	47	48	0.248672591009	-0.0109870069665	0.562839951325	-0.29541015625	0.8310546875	0.38330078125	-1.75	3.5	-2.875
18	12	13	19	47	48	0.248914820993	-0.0122687295291	0.561858981666	-0.31640625	0.83984375	0.3818359375	-6.3125	3.5625	-2.4375
18	12	13	19	47	48	0.249157690535	-0.0134894291054	0.560269093929	-0.328125	0.8330078125	0.38330078125	-10.375	1.9375	-1.125
18	12	13	19	47	48	0.249218922733	-0.014343974245	0.558926690048	-0.29833984375	0.8310546875	0.3740234375	-8.9375	1.75	-1.25
18	12	13	19	47	48	0.249214615045	-0.0151372090451	0.558062509272	-0.28759765625	0.8291015625	0.36083984375	-6.75	2.4375	-1.625
18	12	13	19	47	48	0.249090475072	-0.0159305596652	0.557325441774	-0.26416015625	0.84033203125	0.34423828125	-7.6875	3.0	-3.1875
18	12	13	19	47	48	0.249034220215	-0.0164191679504	0.556359538543	-0.26220703125	0.84228515625	0.34130859375	-9.0	1.375	-2.0625
18	12	13	19	47	48	0.248788022458	-0.0165411074794	0.555256290555	-0.263671875	0.8154296875	0.3310546875	-9.375	-0.625	0.4375
18	12	13	19	47	48	0.249031043007	-0.0163579214524	0.555070663015	-0.2822265625	0.78369140625	0.32763671875	-1.625	-2.4375	0.25
18	12	13	19	47	48	0.249338794717	-0.0157477133505	0.556419205053	-0.30810546875	0.81494140625	0.3271484375	8.375	-3.125	0.625
18	12	13	19	47	48	0.249580977318	-0.0150761803369	0.558245932637	-0.3115234375	0.85986328125	0.3173828125	10.5625	-2.5	0.25
18	12	13	19	47	48	0.249150948279	-0.0147097938597	0.55958253156	-0.31298828125	0.89892578125	0.33251953125	5.8125	0.625	2.25
18	12	13	19	47	48	0.248540775982	-0.0145877321856	0.559338819032	-0.2880859375	0.88623046875	0.36376953125	-3.0625	1.0	2.625
18	12	13	19	47	48	0.248486190444	-0.0144660346685	0.558559844941	-0.2724609375	0.865234375	0.40380859375	-2.9375	-0.25	-0.375
18	12	13	19	47	48	0.248361163415	-0.0140386010286	0.558553208752	-0.26806640625	0.88330078125	0.40869140625	1.9375	0.0	0.0
18	12	13	19	47	48	0.248305195492	-0.0138557717248	0.558991883066	-0.27978515625	0.8759765625	0.408203125	5.3125	1.3125	-0.8125
18	12	13	19	47	48	0.248124636585	-0.0136727967024	0.559669075732	-0.28515625	0.88427734375	0.40185546875	6.3125	1.625	-0.1875
18	12	13	19	47	48	0.248184366508	-0.0139779193139	0.559727162046	-0.31103515625	0.8564453125	0.3876953125	1.5	1.375	-0.3125
18	12	13	19	47	48	0.248423941718	-0.0144049263503	0.55971684166	-0.3154296875	0.8388671875	0.3798828125	0.9375	0.875	-1.125
18	12	13	19	47	48	0.248489261291	-0.0145272523182	0.559665447501	-0.32177734375	0.830078125	0.37646484375	-0.5	0.6875	-0.875
18	12	13	19	47	48	0.248664934369	-0.0148320027128	0.559526620855	-0.29931640625	0.830078125	0.36376953125	-0.75	0.625	-1.0625
18	12	13	19	47	48	0.248664934369	-0.0148320027128	0.559526620855	-0.27490234375	0.84228515625	0.35888671875	-0.9375	0.5	-0.25
18	12	13	19	47	48	0.248737225687	-0.0151989126861	0.559002579838	-0.263671875	0.82373046875	0.3505859375	-4.0	1.3125	-2.375
18	12	13	19	47	48	0.24836752916	-0.0151987010963	0.55875064191	-0.26806640625	0.86181640625	0.3466796875	-3.6875	1.0	0.125
18	12	13	19	47	48	0.247818080647	-0.0151986950939	0.557956915073	-0.2919921875	0.8564453125	0.34375	-7.4375	0.0	3.25
18	12	13	19	47	48	0.247459070779	-0.0148939351924	0.55748487751	-0.29931640625	0.8359375	0.357421875	-3.375	-1.3125	3.875
18	12	13	19	47	48	0.247507886565	-0.0147711241797	0.558128758262	-0.3212890625	0.85693359375	0.34716796875	3.25	-1.0625	1.5625
18	12	13	19	47	48	0.247440524029	-0.0146486743382	0.558968998287	-0.3369140625	0.91455078125	0.35205078125	3.3125	-0.6875	1.25
18	12	13	19	47	48	0.247140183474	-0.0145879238949	0.558735796374	-0.328125	0.9208984375	0.37109375	-3.0625	-0.5	2.5625
18	12	13	19	47	48	0.247149675875	-0.0144664048364	0.558085820333	-0.27880859375	0.9013671875	0.38330078125	-4.625	-0.9375	-0.6875
18	12	13	19	47	48	0.24757118819	-0.014466067949	0.558011785611	-0.25927734375	0.90185546875	0.38916015625	0.0625	0.0625	-5.375
18	12	13	19	47	48	0.248057815512	-0.0148321971381	0.558313198446	-0.27392578125	0.89208984375	0.3779296875	1.5625	1.25	-5.5625
18	12	13	19	47	48	0.248182444596	-0.0145881958334	0.558685173484	-0.24755859375	0.88330078125	0.373046875	2.75	0.3125	-3.875
18	12	13	19	47	48	0.248299532134	-0.0144658281996	0.558918096301	-0.26416015625	0.83642578125	0.37939453125	3.25	0.4375	-1.8125
18	12	13	19	47	48	0.248604389124	-0.0147709948853	0.559466690574	-0.27978515625	0.80078125	0.36669921875	5.3125	1.6875	-2.75
18	12	13	19	47	48	0.248732274158	-0.0150765329367	0.560151185262	-0.310546875	0.83447265625	0.36181640625	4.75	1.75	-0.8125
18	12	13	19	47	49	0.248364307132	-0.0154426565997	0.559536889524	-0.314453125	0.84765625	0.36767578125	-4.875	1.125	2.3125
18	12	13	19	47	49	0.248063458679	-0.0159312408256	0.558081742792	-0.3076171875	0.83642578125	0.3759765625	-9.75	1.0625	2.5
18	12	13	19	47	49	0.247627131112	-0.015991695428	0.556840600724	-0.2822265625	0.8603515625	0.38818359375	-8.125	0.4375	2.1875
18	12	13	19	47	49	0.247450267755	-0.0161141762919	0.555755966431	-0.27685546875	0.86572265625	0.39599609375	-6.5625	0.5	0.0
18	12	13	19	47	49	0.24701867017	-0.0156255941595	0.555196892479	-0.2294921875	0.91162109375	0.369140625	-5.5625	-0.0625	-1.0625
18	12	13	19	47	49	0.246712764472	-0.0150151756705	0.554829052214	-0.24072265625	0.8984375	0.3828125	-2.6875	-0.9375	-0.0625
18	12	13	19	47	49	0.246592017845	-0.0147100683912	0.554709964894	-0.259765625	0.86083984375	0.3662109375	-1.3125	-0.6875	-0.375
18	12	13	19	47	49	0.246594124454	-0.0141608507112	0.555325085218	-0.28173828125	0.87109375	0.369140625	4.3125	-1.625	0.125
18	12	13	19	47	49	0.24671741316	-0.0137336511531	0.556060275578	-0.3056640625	0.87255859375	0.36572265625	4.6875	-1.875	0.6875
18	12	13	19	47	49	0.246836887496	-0.0133062417097	0.556725828599	-0.30908203125	0.888671875	0.37451171875	4.4375	-1.625	0.6875
18	12	13	19	47	49	0.246961998027	-0.0133674437884	0.556915785962	-0.29052734375	0.88232421875	0.38134765625	1.125	0.375	-1.5
18	12	13	19	47	49	0.24696622511	-0.0135507913926	0.556803239114	-0.27392578125	0.90625	0.404296875	-0.125	1.75	-2.625
18	12	13	19	47	49	0.2469580435	-0.0139165679481	0.555441966349	-0.26220703125	0.85986328125	0.40966796875	-7.6875	1.3125	-1.75
18	12	13	19	47	49	0.246900572203	-0.0138557305043	0.554229220173	-0.22509765625	0.81787109375	0.40966796875	-5.1875	0.3125	-1.625
18	12	13	19	47	49	0.246898037524	-0.0138555882615	0.553979379126	-0.23779296875	0.80322265625	0.37841796875	-0.5	1.0	-1.75
18	12	13	19	47	49	0.24665251882	-0.0140386239368	0.55391527055	-0.267578125	0.806640625	0.34912109375	-1.1875	1.3125	0.0625
18	12	13	19	47	49	0.246232826516	-0.0141000949244	0.553627103743	-0.30126953125	0.82958984375	0.33740234375	-4.5	0.0625	3.375
18	12	13	19	47	49	0.245801129893	-0.0136725734036	0.552884687007	-0.302734375	0.83447265625	0.34033203125	-6.9375	-2.75	5.5625
18	12	13	19	47	49	0.245558524305	-0.013245388957	0.552644016668	-0.2978515625	0.8212890625	0.35595703125	-1.9375	-2.3125	4.1875
18	12	13	19	47	49	0.245623357094	-0.013062474756	0.553568147487	-0.283203125	0.8720703125	0.35009765625	4.3125	-0.3125	-1.375
18	12	13	19	47	49	0.245677230965	-0.0128179424851	0.554284455749	-0.2705078125	0.92236328125	0.3642578125	3.0	-0.0625	-2.5
18	12	13	19	47	49	0.245366080825	-0.0125124493953	0.553843735674	-0.2470703125	0.92431640625	0.40087890625	-3.625	0.375	-1.0
18	12	13	19	47	49	0.24500534621	-0.0117802769852	0.552940565848	-0.2060546875	0.888671875	0.4091796875	-4.3125	-0.8125	-0.375
18	12	13	19	47	49	0.245124939908	-0.0113528981133	0.552996004871	-0.23974609375	0.83349609375	0.41796875	3.75	-0.4375	-1.625
18	12	13	19	47	49	0.245981850967	-0.0111698954657	0.554100060317	-0.27685546875	0.810546875	0.4111328125	11.75	-0.9375	-3.9375
18	12	13	19	47	49	0.246778354151	-0.0109869165835	0.555571748573	-0.31298828125	0.85498046875	0.40771484375	13.25	-1.0625	-3.1875
18	12	13	19	47	49	0.246836124676	-0.0108036582759	0.556174769547	-0.31103515625	0.9052734375	0.40283203125	4.9375	-0.1875	0.1875
18	12	13	19	47	49	0.246768718739	-0.0114137398972	0.555000732005	-0.306640625	0.8896484375	0.4189453125	-7.0	1.5625	0.0
18	12	13	19	47	49	0.247445543478	-0.013123036963	0.553059711262	-0.28955078125	0.8505859375	0.4228515625	-12.0	3.625	-6.9375
18	12	13	19	47	49	0.248298651952	-0.0148319991211	0.551408559916	-0.279296875	0.8515625	0.43310546875	-9.5	3.8125	-9.0
18	12	13	19	47	49	0.248666022441	-0.0162359258638	0.549518949444	-0.26953125	0.8388671875	0.43115234375	-11.1875	4.0	-5.8125
18	12	13	19	47	49	0.248666349467	-0.0167242463805	0.547993737241	-0.22607421875	0.80029296875	0.3974609375	-9.625	2.125	-3.375
18	12	13	19	47	49	0.249094996309	-0.0172736789893	0.547508482453	-0.27001953125	0.78466796875	0.39111328125	-1.5	1.0	-3.5
18	12	13	19	47	49	0.249098551202	-0.0173349641121	0.547577334682	-0.30419921875	0.81884765625	0.3623046875	0.3125	-0.25	0.0
18	12	13	19	47	49	0.248915069994	-0.0173959771821	0.547393415329	-0.30810546875	0.8212890625	0.35498046875	-3.0625	-0.5	2.125
18	12	13	19	47	49	0.24861187257	-0.0174571557955	0.547519886313	-0.32080078125	0.8408203125	0.35986328125	-1.5625	0.0	2.8125
18	12	13	19	47	49	0.247998406588	-0.0172738245298	0.547818286766	-0.3271484375	0.85791015625	0.369140625	0.0625	0.0	5.5
18	12	13	19	47	49	0.247384890425	-0.0169073808654	0.548299647344	-0.2919921875	0.859375	0.38232421875	2.3125	0.8125	3.375
18	12	13	19	47	49	0.246897592319	-0.0162360345011	0.549156400022	-0.28466796875	0.88134765625	0.39990234375	6.3125	0.25	2.75
18	12	13	19	47	49	0.24628483999	-0.0155644694417	0.549639401266	-0.28125	0.90380859375	0.40673828125	3.0	-0.125	3.0625
18	12	13	19	47	49	0.245862431976	-0.0147712781873	0.549650248249	-0.25634765625	0.89697265625	0.4052734375	0.75	-0.9375	1.8125
18	12	13	19	47	49	0.245618701393	-0.0141609191658	0.549773271234	-0.28271484375	0.88623046875	0.4111328125	1.75	-1.0	2.125
18	12	13	19	47	49	0.245374041155	-0.0137946600251	0.549894213125	-0.27978515625	0.86767578125	0.39990234375	1.4375	-0.4375	1.5
18	12	13	19	47	49	0.245369329128	-0.0136112836805	0.550188838994	-0.28955078125	0.87060546875	0.40283203125	2.75	-0.375	0.0625
18	12	13	19	47	49	0.245305524269	-0.0130618019889	0.550243667899	-0.29736328125	0.8837890625	0.3955078125	0.6875	-2.125	2.0625
18	12	13	19	47	49	0.245496468557	-0.0128180652404	0.549772922002	-0.2568359375	0.83349609375	0.390625	-1.8125	-1.6875	-1.125
18	12	13	19	47	49	0.245859011687	-0.012878910493	0.550069864281	-0.26904296875	0.83642578125	0.39111328125	3.1875	0.0625	-3.0
18	12	13	19	47	49	0.246041177725	-0.0129398982083	0.550433971898	-0.2900390625	0.8544921875	0.390625	2.75	0.1875	-1.1875
18	12	13	19	47	49	0.245982098861	-0.0125737747805	0.55019420326	-0.2734375	0.85498046875	0.41357421875	0.25	-0.9375	1.1875
18	12	13	19	47	49	0.24579120625	-0.0123902693988	0.550054718333	-0.2666015625	0.82861328125	0.408203125	1.25	0.625	0.9375
18	12	13	19	47	50	0.245930384035	-0.0123300912323	0.550886501841	-0.28466796875	0.8408203125	0.41259765625	7.9375	1.0625	-1.0
18	12	13	19	47	50	0.245731030497	-0.0119630606004	0.551765652184	-0.29541015625	0.8857421875	0.41064453125	6.9375	0.4375	1.25
18	12	13	19	47	50	0.245249901342	-0.0117192586007	0.551598645701	-0.29736328125	0.88916015625	0.4140625	-0.3125	0.5	3.5625
18	12	13	19	47	50	0.244712146834	-0.0114756506872	0.55125851785	-0.2900390625	0.87353515625	0.4091796875	-1.375	0.1875	3.6875
18	12	13	19	47	50	0.244578103691	-0.0114750894669	0.551109482961	-0.2685546875	0.853515625	0.40380859375	0.125	1.25	0.0
18	12	13	19	47	50	0.244704398361	-0.0119635974255	0.551729373108	-0.2841796875	0.8720703125	0.38916015625	3.3125	2.5625	-3.1875
18	12	13	19	47	50	0.244210656895	-0.0119022939501	0.551533990428	-0.26904296875	0.89501953125	0.37646484375	-3.1875	1.25	1.0625
18	12	13	19	47	50	0.244275781892	-0.0122687236782	0.550505566438	-0.26220703125	0.8125	0.376953125	-6.625	0.375	-0.6875
18	12	13	19	47	50	0.244635616073	-0.0120242555804	0.550735320316	-0.2880859375	0.794921875	0.375	3.0625	-2.125	0.125
18	12	13	19	47	50	0.245009013435	-0.0115362988389	0.551605992629	-0.2900390625	0.8173828125	0.3662109375	7.0	-2.8125	0.3125
18	12	13	19	47	50	0.245256398966	-0.0109260565991	0.553078205832	-0.27783203125	0.8193359375	0.36669921875	11.1875	-1.625	-0.375
18	12	13	19	47	50	0.245314153973	-0.0107427945009	0.5544746889	-0.29833984375	0.86474609375	0.3701171875	9.0625	0.4375	-0.3125
18	12	13	19	47	50	0.244946768817	-0.0104985906396	0.554472077731	-0.28759765625	0.8837890625	0.390625	-0.0625	0.125	2.25
18	12	13	19	47	50	0.244708045253	-0.0104988235928	0.553324627145	-0.27099609375	0.8330078125	0.4208984375	-4.625	0.3125	2.1875
18	12	13	19	47	50	0.244334451692	-0.0101933183694	0.553002780997	-0.2626953125	0.8486328125	0.41259765625	0.375	0.375	2.0625
18	12	13	19	47	50	0.244023333196	-0.0099489252904	0.553172453416	-0.2724609375	0.8662109375	0.39794921875	1.6875	0.6875	1.4375
18	12	13	19	47	50	0.243786608445	-0.00988818992692	0.553067215604	-0.29296875	0.884765625	0.38671875	-1.0625	0.3125	1.875
18	12	13	19	47	50	0.243426018957	-0.0098273794012	0.55240859367	-0.29345703125	0.88720703125	0.38232421875	-5.625	-0.5625	2.8125
18	12	13	19	47	50	0.243113834487	-0.00964398339163	0.551965454497	-0.29541015625	0.88916015625	0.3779296875	-4.4375	-1.1875	2.8125
18	12	13	19	47	50	0.243113690925	-0.00970501553028	0.551965128556	-0.29052734375	0.85986328125	0.3720703125	-0.5	-0.875	-0.125
18	12	13	19	47	50	0.243534953925	-0.00958270370082	0.552867070841	-0.287109375	0.8642578125	0.37451171875	6.125	-0.9375	-2.0625
18	12	13	19	47	50	0.243723040477	-0.00878941092631	0.553916001085	-0.2685546875	0.8798828125	0.38232421875	7.8125	-2.125	-0.4375
18	12	13	19	47	50	0.243720424994	-0.00799583663265	0.554642499854	-0.25048828125	0.8544921875	0.3818359375	6.5625	-1.9375	0.0625
18	12	13	19	47	50	0.2435986402	-0.00744651318075	0.555314564906	-0.27001953125	0.86181640625	0.38623046875	5.8125	-0.6875	1.4375
18	12	13	19	47	50	0.243361356996	-0.00708049094846	0.555391268449	-0.28515625	0.8544921875	0.38720703125	1.5	-1.0	2.75
18	12	13	19	47	50	0.243538200214	-0.00714134572056	0.55525488906	-0.29052734375	0.83447265625	0.39453125	1.25	-0.375	0.5
18	12	13	19	47	50	0.243422235185	-0.00714152495403	0.555451940869	-0.31396484375	0.87060546875	0.40478515625	2.6875	0.125	2.4375
18	12	13	19	47	50	0.242810292456	-0.00701940262253	0.555204228301	-0.30126953125	0.890625	0.3955078125	-1.6875	0.625	4.8125
18	12	13	19	47	50	0.242077444784	-0.00677523862103	0.554653994138	-0.27734375	0.88134765625	0.3994140625	-3.125	0.75	4.5
18	12	13	19	47	50	0.241711126066	-0.00683627427257	0.554287559547	-0.2607421875	0.87451171875	0.3896484375	-2.875	1.5625	1.0625
18	12	13	19	47	50	0.241531951219	-0.00720262073385	0.553991404919	-0.2587890625	0.87255859375	0.3701171875	-3.375	1.8125	-1.25
18	12	13	19	47	50	0.241347461556	-0.00756881265376	0.553194750654	-0.2666015625	0.8720703125	0.37158203125	-6.9375	1.5	-0.1875
18	12	13	19	47	50	0.2409179432	-0.00762978031416	0.552335056503	-0.27294921875	0.85498046875	0.3662109375	-7.1875	0.0625	2.625
18	12	13	19	47	50	0.240663713632	-0.00750738949449	0.551701574315	-0.2919921875	0.85009765625	0.36376953125	-5.375	-1.8125	3.75
18	12	13	19	47	50	0.240985768256	-0.00738583534927	0.551923332464	-0.3125	0.8525390625	0.3642578125	1.0625	-2.5625	1.1875
18	12	13	19	47	50	0.241468680467	-0.00714151557497	0.552887590411	-0.33837890625	0.8994140625	0.36669921875	5.5	-3.4375	0.8125
18	12	13	19	47	50	0.241715062841	-0.006897424773	0.553564117401	-0.31396484375	0.9091796875	0.35595703125	2.3125	-2.5625	0.4375
18	12	13	19	47	50	0.242136990867	-0.00738557496722	0.55410123597	-0.29833984375	0.87939453125	0.37939453125	3.0625	0.875	-3.125
18	12	13	19	47	50	0.242256861102	-0.00744654498727	0.554584489789	-0.298828125	0.90673828125	0.38671875	2.6875	0.125	-0.75
18	12	13	19	47	50	0.242386785266	-0.00738574691948	0.554053097422	-0.2529296875	0.8505859375	0.40966796875	-1.3125	-0.1875	-1.25
18	12	13	19	47	50	0.242437638974	-0.007324399969	0.55451811432	-0.25	0.8466796875	0.4013671875	5.0625	1.5	-1.875
18	12	13	19	47	50	0.242438168248	-0.00781271035643	0.554946582505	-0.28955078125	0.84228515625	0.390625	3.75	2.75	-0.625
18	12	13	19	47	50	0.242013461344	-0.007995905028	0.55537969351	-0.29052734375	0.88525390625	0.39306640625	2.5	2.625	1.4375
18	12	13	19	47	50	0.240858588857	-0.00811814301014	0.554719426137	-0.2958984375	0.91015625	0.40576171875	-5.0625	3.1875	6.375
18	12	13	19	47	50	0.239517331027	-0.00817923607483	0.553624411931	-0.2890625	0.8779296875	0.3916015625	-8.5625	2.8125	8.0
18	12	13	19	47	50	0.238715123568	-0.00842308541356	0.552688684201	-0.2861328125	0.85986328125	0.3974609375	-6.625	2.375	4.9375
18	12	13	19	47	50	0.238359971758	-0.00878971470758	0.552164994755	-0.29052734375	0.8525390625	0.39794921875	-3.1875	1.75	2.4375
18	12	13	19	47	50	0.237798653439	-0.00891134584244	0.552198259155	-0.2880859375	0.85205078125	0.39111328125	0.1875	1.9375	3.375
18	12	13	19	47	50	0.237253300067	-0.00903357046821	0.55214647605	-0.27685546875	0.84521484375	0.38671875	-0.3125	2.25	2.9375
18	12	13	19	47	50	0.236642249677	-0.00915561966767	0.552144903425	-0.2880859375	0.83203125	0.3837890625	-0.0625	2.0625	4.375
18	12	13	19	47	51	0.236223356573	-0.00933906293426	0.552103426408	-0.28759765625	0.8486328125	0.37451171875	-1.0	1.375	2.9375
18	12	13	19	47	51	0.236707078328	-0.0100103044986	0.550932978078	-0.31201171875	0.80126953125	0.38720703125	-6.5	-1.0625	-0.125
18	12	13	19	47	51	0.237249774674	-0.0101931341318	0.550551316582	-0.2900390625	0.82421875	0.390625	-1.1875	-1.75	-1.25
18	12	13	19	47	51	0.237005678518	-0.010437283293	0.550917654985	-0.29736328125	0.85009765625	0.388671875	2.4375	1.75	1.8125
18	12	13	19	47	51	0.236834940567	-0.0110482278976	0.550030837487	-0.310546875	0.837890625	0.39208984375	-6.125	1.125	2.25
18	12	13	19	47	51	0.237136820348	-0.0112311904618	0.549290668291	-0.28515625	0.8125	0.3994140625	-3.125	-1.375	0.0625
18	12	13	19	47	51	0.237690202801	-0.0111703408096	0.54929998331	-0.29541015625	0.81982421875	0.39599609375	2.3125	-2.6875	-0.4375
18	12	13	19	47	51	0.238481238557	-0.0108039875159	0.549599455327	-0.3046875	0.8330078125	0.39404296875	4.3125	-4.375	-0.6875
18	12	13	19	47	51	0.239025766587	-0.00982715741077	0.550381853248	-0.27978515625	0.86669921875	0.40380859375	7.875	-4.75	-0.125
18	12	13	19	47	51	0.239401003365	-0.00909504066839	0.551074007747	-0.271484375	0.876953125	0.408203125	7.0625	-3.375	-0.625
18	12	13	19	47	51	0.239570768967	-0.00848416226405	0.551958844272	-0.2578125	0.9130859375	0.40283203125	6.5	-1.25	-1.875
18	12	13	19	47	51	0.239515219669	-0.00842331812293	0.55239876096	-0.26220703125	0.923828125	0.40380859375	2.625	1.1875	-1.625
18	12	13	19	47	51	0.239397044787	-0.00860657402218	0.552163607125	-0.2568359375	0.90283203125	0.4091796875	-1.5	2.0	-1.8125
18	12	13	19	47	51	0.2395778631	-0.00933895873993	0.551731033008	-0.26708984375	0.859375	0.396484375	-2.8125	2.5625	-3.0625
18	12	13	19	47	51	0.239818662455	-0.0101323232292	0.551540196983	-0.287109375	0.82666015625	0.3955078125	-0.4375	2.5625	-2.5625
18	12	13	19	47	51	0.240000089464	-0.0109257416109	0.551719432519	-0.28662109375	0.83642578125	0.38134765625	0.5625	2.75	-2.4375
18	12	13	19	47	51	0.239937970617	-0.0115971036421	0.551472796878	-0.31396484375	0.83203125	0.3740234375	-2.3125	1.9375	1.0625
18	12	13	19	47	51	0.239754565478	-0.0121464252877	0.550922787171	-0.322265625	0.826171875	0.3623046875	-5.375	0.5625	3.0
18	12	13	19	47	51	0.239702471525	-0.012329997262	0.550455026283	-0.3203125	0.810546875	0.3505859375	-4.1875	-1.5625	3.5
18	12	13	19	47	51	0.240066631721	-0.012329890569	0.550572341247	-0.3115234375	0.79638671875	0.34326171875	0.25	-2.75	1.125
18	12	13	19	47	51	0.24049145412	-0.012024572706	0.551909575673	-0.296875	0.83447265625	0.33251953125	7.125	-2.5	-0.625
18	12	13	19	47	51	0.239885675652	-0.0110481697946	0.553140965077	-0.283203125	0.90380859375	0.3330078125	5.125	-1.9375	4.375
18	12	13	19	47	51	0.238903384357	-0.00982714483432	0.553616171722	-0.24072265625	0.90478515625	0.33447265625	-0.4375	-1.6875	5.3125
18	12	13	19	47	51	0.238838582236	-0.00903350630486	0.553851596016	-0.2080078125	0.86865234375	0.35791015625	1.25	-1.5625	-1.5625
18	12	13	19	47	51	0.23902021744	-0.0086061927117	0.555190985146	-0.26611328125	0.904296875	0.3671875	8.1875	-0.6875	-2.0625
18	12	13	19	47	51	0.238897518107	-0.00793476682523	0.556044044445	-0.30419921875	0.908203125	0.37353515625	5.25	-2.4375	2.875
18	12	13	19	47	51	0.239275268387	-0.00738579272316	0.556620197045	-0.30517578125	0.85009765625	0.40087890625	7.25	-3.3125	1.625
18	12	13	19	47	51	0.240123677122	-0.00714145150566	0.558376054477	-0.32177734375	0.8466796875	0.39990234375	15.5	-1.9375	-1.875
18	12	13	19	47	51	0.240975048244	-0.00744654404402	0.560443995182	-0.33642578125	0.88623046875	0.3994140625	16.3125	0.5625	-3.6875
18	12	13	19	47	51	0.241410247969	-0.00811822072815	0.561072819046	-0.31982421875	0.8984375	0.40380859375	5.1875	2.125	-3.0
18	12	13	19	47	51	0.241528758006	-0.00891159936035	0.559904800907	-0.2900390625	0.8623046875	0.40234375	-6.25	2.1875	-1.3125
18	12	13	19	47	51	0.241840440802	-0.0101936783478	0.558332789503	-0.2802734375	0.7978515625	0.39208984375	-9.0625	3.0625	-2.8125
18	12	13	19	47	51	0.242132235991	-0.0112917730422	0.557813588283	-0.30615234375	0.80078125	0.380859375	-2.5	2.8125	-1.875
18	12	13	19	47	51	0.242203997853	-0.0117195482832	0.557288936592	-0.31396484375	0.79931640625	0.3740234375	-2.0625	0.1875	1.75
18	12	13	19	47	51	0.242449921105	-0.0114144348556	0.557354035652	-0.283203125	0.802734375	0.35595703125	1.5625	-2.25	0.9375
18	12	13	19	47	51	0.242932853699	-0.0113531434141	0.557952064236	-0.2998046875	0.81396484375	0.34912109375	4.75	-1.8125	-1.0
18	12	13	19	47	51	0.24323727181	-0.011231030869	0.558865862156	-0.30859375	0.857421875	0.34326171875	5.375	-1.5	-0.1875
18	12	13	19	47	51	0.24317583904	-0.0109258220854	0.558987031608	-0.28369140625	0.85791015625	0.34814453125	0.0625	-1.5	1.125
18	12	13	19	47	51	0.243363838211	-0.0107429233823	0.559059291241	-0.26513671875	0.8544921875	0.35595703125	0.3125	-0.9375	-1.3125
18	12	13	19	47	51	0.243355533487	-0.010742556783	0.559101250751	-0.291015625	0.876953125	0.3486328125	0.1875	-0.9375	-0.25
18	12	13	19	47	51	0.24311752505	-0.0107428281217	0.559176411494	-0.30029296875	0.888671875	0.34912109375	-1.6875	0.125	1.625
18	12	13	19	47	51	0.242875547945	-0.0109260424936	0.559181426167	-0.30419921875	0.8837890625	0.3603515625	-1.375	0.75	1.3125
18	12	13	19	47	51	0.242924531355	-0.0109865365939	0.559214712632	-0.32373046875	0.89404296875	0.375	-0.5	-0.0625	-0.6875
18	12	13	19	47	51	0.243361857948	-0.0114753020552	0.559054742148	-0.33349609375	0.89306640625	0.38623046875	-0.625	-0.5	-1.125
18	12	13	19	47	51	0.243419109535	-0.0115361614098	0.559046044191	-0.32470703125	0.87841796875	0.3896484375	-0.375	-0.4375	-0.125
18	12	13	19	47	51	0.243783353282	-0.0116581423327	0.558980458027	-0.296875	0.85009765625	0.39990234375	2.0625	-0.375	-1.1875
18	12	13	19	47	51	0.244277616666	-0.0120246602906	0.559421378496	-0.27978515625	0.8427734375	0.38525390625	4.8125	1.25	-4.0
18	12	13	19	47	51	0.244829591876	-0.0126962241611	0.559671535255	-0.28369140625	0.833984375	0.369140625	2.25	1.875	-4.875
18	12	13	19	47	51	0.244949703767	-0.0130013174439	0.559361845332	-0.28955078125	0.8466796875	0.36328125	-2.375	0.5625	-1.0625
18	12	13	19	47	51	0.244763271319	-0.0130621795666	0.558072466251	-0.25927734375	0.78759765625	0.365234375	-7.1875	-0.5625	1.625
18	12	13	19	47	52	0.244817143681	-0.0130617972445	0.55799509537	-0.2763671875	0.77685546875	0.3662109375	0.8125	-0.4375	0.625
18	12	13	19	47	52	0.24451515387	-0.0128178188499	0.558551715693	-0.31396484375	0.84521484375	0.35888671875	3.4375	-0.5	3.875
18	12	13	19	47	52	0.244154697009	-0.0126350055702	0.558686985431	-0.31103515625	0.8583984375	0.359375	0.5625	-0.25	3.5625
18	12	13	19	47	52	0.243842523363	-0.0126956808159	0.558854103608	-0.3193359375	0.890625	0.3798828125	0.5625	0.8125	2.625
18	12	13	19	47	52	0.243240502096	-0.012696116546	0.558384971939	-0.31396484375	0.92578125	0.3798828125	-4.875	0.8125	3.6875
18	12	13	19	47	52	0.242993118512	-0.0128790625486	0.557461982259	-0.2744140625	0.89501953125	0.38916015625	-6.25	0.8125	-0.0625
18	12	13	19	47	52	0.243060927714	-0.013001501156	0.557050232625	-0.26513671875	0.89404296875	0.38330078125	-3.25	0.5625	-2.3125
18	12	13	19	47	52	0.243238800618	-0.0131232979003	0.556733023949	-0.26318359375	0.89697265625	0.3681640625	-3.6875	0.25	-3.1875
18	12	13	19	47	52	0.243548791022	-0.0133677155974	0.556133592732	-0.26220703125	0.89111328125	0.37060546875	-4.75	-0.375	-3.9375
18	12	13	19	47	52	0.244092157343	-0.0138556938527	0.555387481787	-0.2763671875	0.86669921875	0.37451171875	-5.6875	-0.25	-4.75
18	12	13	19	47	52	0.24464126779	-0.0143439865097	0.554959682322	-0.2890625	0.880859375	0.3671875	-4.0625	-0.25	-4.1875
18	12	13	19	47	52	0.245124954519	-0.0150151242061	0.554399890911	-0.2890625	0.84912109375	0.36376953125	-4.5625	0.5	-3.9375
18	12	13	19	47	52	0.245674405943	-0.0156865397087	0.554400156319	-0.302734375	0.84228515625	0.3701171875	-0.5	0.6875	-4.0
18	12	13	19	47	52	0.246163688773	-0.0161138640804	0.55434133931	-0.28955078125	0.82568359375	0.37255859375	-0.125	0.1875	-3.5
18	12	13	19	47	52	0.246897491136	-0.0166022540393	0.554344379356	-0.2939453125	0.8046875	0.38037109375	1.8125	0.0625	-4.0625
18	12	13	19	47	52	0.247263702128	-0.0167243284086	0.554527458364	-0.3046875	0.82470703125	0.3857421875	2.75	-0.375	-1.1875
18	12	13	19	47	52	0.247199905228	-0.0165410306955	0.554399194862	-0.306640625	0.84033203125	0.384765625	0.375	-0.875	1.9375
18	12	13	19	47	52	0.247449590603	-0.01678555437	0.554167447727	-0.29052734375	0.81640625	0.3994140625	0.5	0.4375	-1.0625
18	12	13	19	47	52	0.247685341272	-0.0172732754017	0.554697974736	-0.3134765625	0.87060546875	0.40478515625	4.625	2.25	-2.8125
18	12	13	19	47	52	0.247448463565	-0.0176400113395	0.554409076113	-0.30029296875	0.90576171875	0.40576171875	-2.5	2.5625	-0.6875
18	12	13	19	47	52	0.246963328054	-0.018067509912	0.553195413285	-0.27099609375	0.8779296875	0.4111328125	-7.75	3.0	0.0625
18	12	13	19	47	52	0.246591292074	-0.0186774592511	0.551961647085	-0.2705078125	0.84765625	0.40380859375	-8.25	3.3125	-0.375
18	12	13	19	47	52	0.246477485411	-0.0192884807801	0.551247689635	-0.28662109375	0.83984375	0.39208984375	-5.0625	2.5625	-1.4375
18	12	13	19	47	52	0.246472313994	-0.0199594964527	0.550808856236	-0.30029296875	0.83251953125	0.37353515625	-4.125	2.125	-1.25
18	12	13	19	47	52	0.246474704293	-0.0205700780948	0.550509003968	-0.31591796875	0.8359375	0.36474609375	-3.5625	1.375	-0.25
18	12	13	19	47	52	0.246412944343	-0.0208752110392	0.550263238359	-0.29541015625	0.822265625	0.35888671875	-3.1875	0.625	0.0
18	12	13	19	47	52	0.246590251201	-0.0211188680484	0.55055546184	-0.298828125	0.8134765625	0.36181640625	1.375	0.5	-1.1875
18	12	13	19	47	52	0.246408917812	-0.0208138322948	0.551169811208	-0.30859375	0.857421875	0.35546875	2.625	-0.5625	1.625
18	12	13	19	47	52	0.245857910703	-0.0202643560957	0.551532294219	-0.2841796875	0.85400390625	0.34716796875	0.3125	-1.0625	3.25
18	12	13	19	47	52	0.245252733424	-0.0197764772597	0.551971246479	-0.28173828125	0.84228515625	0.3525390625	1.25	0.5	3.625
18	12	13	19	47	52	0.244819144294	-0.0197149298446	0.552811515799	-0.29931640625	0.86083984375	0.3525390625	3.5	1.375	1.6875
18	12	13	19	47	52	0.2447656952	-0.0196545022081	0.55288969255	-0.28271484375	0.87646484375	0.36572265625	0.0	-0.0625	0.8125
18	12	13	19	47	52	0.244391203347	-0.0194707277392	0.552748935443	-0.28125	0.86767578125	0.37255859375	-2.0625	0.5625	1.375
18	12	13	19	47	52	0.243846559649	-0.0190438364481	0.552454370808	-0.29443359375	0.8681640625	0.3681640625	-3.375	-1.0	4.0625
18	12	13	19	47	52	0.243542601238	-0.018555626761	0.55233508737	-0.2978515625	0.86181640625	0.3759765625	-1.0	-1.875	3.25
18	12	13	19	47	52	0.243663458092	-0.0181893062403	0.553003740058	-0.31494140625	0.8564453125	0.37744140625	4.8125	-1.6875	1.125
18	12	13	19	47	52	0.244025775512	-0.0178838299713	0.554276655185	-0.32177734375	0.87353515625	0.38427734375	9.4375	-1.375	-0.4375
18	12	13	19	47	52	0.244156431279	-0.0173351066208	0.555333802944	-0.294921875	0.8857421875	0.3828125	7.875	-1.1875	-0.375
18	12	13	19	47	52	0.24403663932	-0.0168469515889	0.555827323075	-0.27392578125	0.8857421875	0.3916015625	4.0	-0.5	-0.0625
18	12	13	19	47	52	0.24396765206	-0.0167853651029	0.555809216826	-0.267578125	0.87939453125	0.392578125	0.0625	-0.375	0.875
18	12	13	19	47	52	0.243909737625	-0.0166024646231	0.555389064727	-0.27392578125	0.85009765625	0.3935546875	-1.125	0.0	0.25
18	12	13	19	47	52	0.243908839801	-0.0165413652618	0.555570135103	-0.29541015625	0.83544921875	0.38232421875	2.3125	0.0	0.625
18	12	13	19	47	52	0.244028671113	-0.0164801753878	0.556053325123	-0.31494140625	0.833984375	0.37841796875	4.0625	-0.4375	1.1875
18	12	13	19	47	52	0.244086735635	-0.0162968638196	0.556656921478	-0.31298828125	0.8408203125	0.37744140625	5.375	-0.9375	1.25
18	12	13	19	47	52	0.244031589092	-0.0159920651181	0.557097627225	-0.294921875	0.84716796875	0.3759765625	3.8125	-0.5	1.5
18	12	13	19	47	52	0.243785054416	-0.0157477576463	0.557397375294	-0.28125	0.8671875	0.369140625	2.0	0.3125	0.6875
18	12	13	19	47	52	0.243533290003	-0.0156862294564	0.557196843218	-0.27490234375	0.85888671875	0.3623046875	-2.1875	0.5	0.75
18	12	13	19	47	52	0.243539292622	-0.0156866160912	0.556905389946	-0.25634765625	0.82177734375	0.3564453125	-2.0625	0.25	-1.125
18	12	13	19	47	52	0.243850759215	-0.0157480590432	0.557347004354	-0.2587890625	0.83544921875	0.35400390625	2.9375	0.5625	-3.625
18	12	13	19	47	52	0.243785763307	-0.0158088414363	0.55782626211	-0.28466796875	0.87158203125	0.35009765625	1.625	0.8125	-0.9375
18	12	13	19	47	53	0.2434154603	-0.0158085767848	0.557572775787	-0.2900390625	0.87255859375	0.34765625	-3.9375	0.1875	1.5625
18	12	13	19	47	53	0.24329663583	-0.0159919013014	0.556908807153	-0.2890625	0.85009765625	0.3603515625	-5.375	0.0	0.6875
18	12	13	19	47	53	0.243602610742	-0.0162971428384	0.556849565973	-0.31201171875	0.84765625	0.36328125	-0.5	-0.375	-1.0625
18	12	13	19	47	53	0.243970697473	-0.0162362285533	0.557464193149	-0.318359375	0.875	0.375	4.0	-1.0	-0.8125
18	12	13	19	47	53	0.244038775158	-0.0158704556131	0.5578465148	-0.2958984375	0.8828125	0.376953125	3.25	-1.5	0.125
18	12	13	19	47	53	0.244401387204	-0.0156871020259	0.558143427722	-0.27392578125	0.8662109375	0.388671875	3.625	-0.6875	-2.625
18	12	13	19	47	53	0.244830595749	-0.0158093054847	0.558636153652	-0.26904296875	0.86083984375	0.388671875	4.8125	1.0625	-4.875
18	12	13	19	47	53	0.245130242688	-0.0161141394596	0.558867654893	-0.2744140625	0.86962890625	0.37841796875	1.9375	1.5625	-3.9375
18	12	13	19	47	53	0.245070654675	-0.0164804674377	0.558443691065	-0.265625	0.8408203125	0.3857421875	-1.9375	2.375	-1.875
18	12	13	19	47	53	0.24494606293	-0.0169686034125	0.557888615793	-0.28125	0.82080078125	0.3916015625	-2.125	2.3125	-0.625
18	12	13	19	47	53	0.244999670208	-0.0170291250593	0.557810659201	-0.30810546875	0.80859375	0.39111328125	0.4375	0.5	-0.4375
18	12	13	19	47	53	0.245498006543	-0.017273977089	0.557711408699	-0.3212890625	0.8310546875	0.388671875	1.5625	-0.875	-0.8125
18	12	13	19	47	53	0.245370862141	-0.0170905078108	0.557883004966	-0.3271484375	0.87060546875	0.373046875	1.0	-0.6875	2.6875
18	12	13	19	47	53	0.244889488161	-0.0170909911977	0.557715666332	-0.3076171875	0.86865234375	0.3701171875	-2.0625	0.5625	3.0
18	12	13	19	47	53	0.244754290908	-0.0171511111584	0.557746810553	-0.3115234375	0.85498046875	0.36669921875	0.0	0.5	1.5625
18	12	13	19	47	53	0.244573010238	-0.0170291664229	0.557995123433	-0.31005859375	0.875	0.3759765625	1.6875	-0.125	1.75
18	12	13	19	47	53	0.244458312909	-0.016358259141	0.558378188887	-0.28173828125	0.876953125	0.37060546875	3.125	-1.625	1.375
18	12	13	19	47	53	0.244580912515	-0.0156258331929	0.559294959166	-0.27783203125	0.857421875	0.3642578125	7.0625	-2.0625	-0.125
18	12	13	19	47	53	0.244651536397	-0.0147718742036	0.560537689306	-0.28173828125	0.86279296875	0.36181640625	9.5625	-2.1875	0.5625
18	12	13	19	47	53	0.244404869375	-0.0136729996853	0.561630670109	-0.2626953125	0.857421875	0.3583984375	8.5625	-1.875	2.125
18	12	13	19	47	53	0.244097372055	-0.0128793562149	0.562479940856	-0.265625	0.857421875	0.349609375	6.0	-0.9375	2.0
18	12	13	19	47	53	0.24372231498	-0.0125126658079	0.562947886566	-0.27490234375	0.8681640625	0.33740234375	2.0625	0.0	1.6875
18	12	13	19	47	53	0.243544751707	-0.0125739896871	0.562655519107	-0.27392578125	0.84765625	0.33984375	-3.375	0.4375	0.4375
18	12	13	19	47	53	0.243411867903	-0.0129396479427	0.562325360831	-0.28857421875	0.85546875	0.337890625	-3.9375	1.0	0.0
18	12	13	19	47	53	0.243117506481	-0.0130012625861	0.561801036819	-0.29345703125	0.875	0.34619140625	-5.125	0.25	1.8125
18	12	13	19	47	53	0.242753068587	-0.0128182409865	0.561438955207	-0.2919921875	0.86767578125	0.3515625	-3.5	-0.625	2.625
18	12	13	19	47	53	0.242815969218	-0.0127572995391	0.561748457695	-0.29931640625	0.8623046875	0.35009765625	1.5625	-0.5625	0.4375
18	12	13	19	47	53	0.243120153246	-0.0128182857599	0.562478587035	-0.31201171875	0.87451171875	0.361328125	5.125	-0.3125	-1.0625
18	12	13	19	47	53	0.243114454022	-0.0125738331731	0.563197857711	-0.31396484375	0.90869140625	0.36376953125	4.6875	-0.75	0.75
18	12	13	19	47	53	0.243233410045	-0.0123295229182	0.563251670739	-0.2978515625	0.8837890625	0.37158203125	0.75	-1.25	0.5
18	12	13	19	47	53	0.243604574757	-0.0123908114948	0.563324134411	-0.2978515625	0.86083984375	0.384765625	3.0	-0.6875	-1.6875
18	12	13	19	47	53	0.244089009035	-0.0123906148622	0.563986607522	-0.2919921875	0.88330078125	0.37841796875	5.625	0.0625	-3.125
18	12	13	19	47	53	0.244464286422	-0.0126962725533	0.564373730901	-0.29638671875	0.88427734375	0.37841796875	3.6875	1.0625	-3.25
18	12	13	19	47	53	0.244694018831	-0.0131838134367	0.564157349977	-0.28466796875	0.87060546875	0.38232421875	-0.4375	1.8125	-3.0
18	12	13	19	47	53	0.245313000094	-0.014282966415	0.563566790213	-0.29443359375	0.8203125	0.37939453125	-2.5	2.375	-5.0625
18	12	13	19	47	53	0.245983281984	-0.0150763947023	0.563258989119	-0.30908203125	0.81591796875	0.37744140625	-0.0625	1.125	-3.8125
18	12	13	19	47	53	0.246036784855	-0.015198005316	0.563180703016	-0.32373046875	0.8330078125	0.37841796875	-0.6875	-0.3125	0.9375
18	12	13	19	47	53	0.24561425413	-0.0149541481764	0.563008419506	-0.30322265625	0.8310546875	0.3525390625	-0.9375	-0.3125	3.9375
18	12	13	19	47	53	0.245737294672	-0.0154425075887	0.563193745141	-0.3125	0.806640625	0.33935546875	0.9375	1.25	0.0
18	12	13	19	47	53	0.245682133453	-0.0157480721567	0.563695528555	-0.31787109375	0.85595703125	0.34033203125	2.1875	1.1875	0.4375
18	12	13	19	47	53	0.245248318361	-0.0158086895111	0.563314268331	-0.3125	0.8720703125	0.3427734375	-4.375	0.5	2.875
18	12	13	19	47	53	0.244577990702	-0.0154425334783	0.562584312528	-0.30419921875	0.86279296875	0.34375	-6.25	-1.125	5.8125
18	12	13	19	47	53	0.244095089327	-0.0150156018941	0.562352602643	-0.31005859375	0.8525390625	0.34521484375	-2.0	-1.6875	5.25
18	12	13	19	47	53	0.244338247718	-0.0145882690993	0.563204849286	-0.302734375	0.84326171875	0.3369140625	5.875	-2.0	0.5625
18	12	13	19	47	53	0.244702392184	-0.014099838512	0.565031190933	-0.318359375	0.87353515625	0.337890625	12.3125	-1.8125	-0.5
18	12	13	19	47	53	0.24457868185	-0.0129400250941	0.56630921143	-0.2861328125	0.89453125	0.337890625	8.5	-3.0	2.1875
18	12	13	19	47	53	0.244327972913	-0.0118410259169	0.567148519688	-0.2685546875	0.865234375	0.353515625	7.4375	-2.4375	2.6875
18	12	13	19	47	53	0.244026592361	-0.0109256528346	0.568378096065	-0.28173828125	0.85205078125	0.3369140625	9.0	-1.5	3.3125
18	12	13	19	47	53	0.243969335408	-0.0103154410017	0.569912855817	-0.29248046875	0.83984375	0.33203125	11.3125	-0.6875	1.5
18	12	13	19	47	53	0.243963029849	-0.00976584557813	0.57154611246	-0.3115234375	0.85009765625	0.33740234375	12.375	-0.625	2.125
18	12	13	19	47	54	0.243913518043	-0.00927799167732	0.57261078898	-0.3212890625	0.84228515625	0.3486328125	9.3125	-1.0	3.5625
18	12	13	19	47	54	0.243728019709	-0.00866751284714	0.573459740837	-0.3046875	0.86181640625	0.3603515625	8.25	-1.1875	3.375
18	12	13	19	47	54	0.243359175964	-0.00805703818092	0.573636703214	-0.29638671875	0.873046875	0.3564453125	3.0625	-1.0	4.4375
18	12	13	19	47	54	0.242810717634	-0.00756876042901	0.573455679279	-0.28125	0.89111328125	0.35595703125	-0.125	-0.1875	3.75
18	12	13	19	47	54	0.242254954511	-0.00714130251392	0.572891157228	-0.2685546875	0.90478515625	0.34765625	-4.0	-0.375	3.3125
18	12	13	19	47	54	0.242011310515	-0.00689716975743	0.572159905364	-0.26123046875	0.90185546875	0.34619140625	-5.125	-0.5625	0.8125
18	12	13	19	47	54	0.241895654574	-0.0067752757148	0.571930931961	-0.27099609375	0.92578125	0.33837890625	-2.8125	-0.4375	-0.75
18	12	13	19	47	54	0.241532996453	-0.00677537594297	0.571817313817	-0.2666015625	0.96728515625	0.33154296875	-3.75	1.375	-0.875
18	12	13	19	47	54	0.241166706003	-0.00769096556731	0.571206791896	-0.29150390625	0.95849609375	0.33349609375	-8.5	4.0	-1.875
18	12	13	19	47	54	0.241226570731	-0.00903378858	0.56973907166	-0.306640625	0.93115234375	0.34130859375	-13.5	3.1875	-3.125
18	12	13	19	47	54	0.241886360265	-0.0108644390934	0.56745331602	-0.3125	0.8828125	0.35302734375	-17.375	2.25	-5.4375
18	12	13	19	47	54	0.242566278043	-0.0122687020349	0.56539794502	-0.31982421875	0.87109375	0.35400390625	-15.4375	0.375	-4.3125
18	12	13	19	47	54	0.243357577516	-0.0136114220682	0.563073401701	-0.29638671875	0.83984375	0.35888671875	-16.1875	0.1875	-5.1875
18	12	13	19	47	54	0.244400806705	-0.0152597906285	0.561438216802	-0.30029296875	0.8330078125	0.36083984375	-11.4375	1.4375	-8.125
18	12	13	19	47	54	0.245072651122	-0.0168468372876	0.559546947156	-0.298828125	0.861328125	0.3466796875	-15.5625	1.8125	-6.6875
18	12	13	19	47	54	0.24555670554	-0.0184335384224	0.556790521486	-0.2763671875	0.84423828125	0.35986328125	-20.625	1.8125	-6.25
18	12	13	19	47	54	0.245980095107	-0.0200202161774	0.554035067812	-0.279296875	0.8076171875	0.357421875	-20.25	1.875	-5.0
18	12	13	19	47	54	0.246768676911	-0.0216677913191	0.551887800303	-0.28662109375	0.7587890625	0.36474609375	-14.5	1.75	-6.125
18	12	13	19	47	54	0.247571110712	-0.0228283026149	0.551175327841	-0.3232421875	0.78564453125	0.35546875	-5.5	0.5625	-4.5
18	12	13	19	47	54	0.247814323328	-0.023255482066	0.550257666208	-0.33251953125	0.80517578125	0.3583984375	-6.75	-1.8125	0.625
18	12	13	19	47	54	0.24799478105	-0.0231331582619	0.54939724938	-0.32666015625	0.81103515625	0.35595703125	-6.5	-3.6875	2.3125
18	12	13	19	47	54	0.248236306317	-0.0228277301605	0.548781074527	-0.3447265625	0.82666015625	0.3740234375	-4.0	-4.375	3.375
18	12	13	19	47	54	0.248614757946	-0.0222794958631	0.548930154237	-0.3369140625	0.861328125	0.38818359375	1.6875	-4.625	1.375
18	12	13	19	47	54	0.249218860059	-0.0217295895618	0.549770823549	-0.333984375	0.91162109375	0.41015625	6.625	-3.625	-1.3125
18	12	13	19	47	54	0.249584202471	-0.0208139430283	0.550440288062	-0.30810546875	0.93359375	0.423828125	6.3125	-3.4375	-1.25
18	12	13	19	47	54	0.249830009219	-0.0200816205797	0.551054317915	-0.27734375	0.92333984375	0.42724609375	5.75	-1.75	-2.375
18	12	13	19	47	54	0.250134739254	-0.0198984687644	0.551541606612	-0.2783203125	0.88623046875	0.427734375	5.75	0.5625	-3.4375
18	12	13	19	47	54	0.250687317869	-0.0202039206756	0.551792878873	-0.30322265625	0.849609375	0.4267578125	4.5625	1.125	-4.3125
18	12	13	19	47	54	0.251597424398	-0.0206307446498	0.551475674293	-0.30517578125	0.828125	0.42578125	1.6875	-0.625	-4.9375
18	12	13	19	47	54	0.252399238595	-0.0211197428183	0.550700345974	-0.314453125	0.79443359375	0.4169921875	-1.75	-1.0625	-3.375
18	12	13	19	47	54	0.252827722388	-0.0216081636228	0.550214652247	-0.30419921875	0.77392578125	0.3994140625	-0.625	0.5	-1.9375
18	12	13	19	47	54	0.253004237257	-0.022217983682	0.550139249795	-0.31201171875	0.77880859375	0.376953125	0.25	1.75	-0.875
18	12	13	19	47	54	0.252819388398	-0.0225840593209	0.549952363464	-0.30615234375	0.79345703125	0.36669921875	-1.9375	1.6875	0.875
18	12	13	19	47	54	0.252392630656	-0.022767219162	0.549343089699	-0.3115234375	0.80029296875	0.36865234375	-4.5625	0.625	3.4375
18	12	13	19	47	54	0.251779722837	-0.0225228406611	0.548849277031	-0.3017578125	0.80078125	0.36181640625	-4.3125	-0.625	4.8125
18	12	13	19	47	54	0.251288214454	-0.0219121858122	0.549025379891	-0.318359375	0.8076171875	0.37353515625	1.6875	-1.625	5.9375
18	12	13	19	47	54	0.250619244074	-0.0206916521532	0.550251457702	-0.3037109375	0.87109375	0.36328125	7.375	-2.0	5.625
18	12	13	19	47	54	0.250074328502	-0.0195933266901	0.551665067368	-0.28857421875	0.90673828125	0.37451171875	7.9375	-1.125	3.0625
18	12	13	19	47	54	0.249455833802	-0.0186161070001	0.55280682328	-0.29638671875	0.953125	0.37548828125	5.4375	-0.9375	2.8125
18	12	13	19	47	54	0.249037162337	-0.0178232478927	0.553070031356	-0.30517578125	0.93505859375	0.39501953125	1.1875	-1.5	2.875
18	12	13	19	47	54	0.249032166543	-0.0176397784635	0.55336412301	-0.30078125	0.87744140625	0.40283203125	2.9375	-0.3125	0.0625
18	12	13	19	47	54	0.249467234256	-0.0176403304869	0.554358067412	-0.32080078125	0.8603515625	0.40625	8.75	0.3125	-1.875
18	12	13	19	47	54	0.250072725996	-0.0178230988506	0.555323812818	-0.322265625	0.85888671875	0.39501953125	8.125	0.0	-3.3125
18	12	13	19	47	54	0.250740370093	-0.0181890531373	0.555376491597	-0.3154296875	0.84765625	0.40478515625	2.6875	0.0	-3.5625
18	12	13	19	47	54	0.250994421218	-0.018494968295	0.554421772354	-0.30712890625	0.84033203125	0.3974609375	-5.3125	-0.5625	-1.0625
18	12	13	19	47	54	0.250985562914	-0.0189215769707	0.552876271614	-0.29052734375	0.8095703125	0.39501953125	-8.75	0.3125	0.4375
18	12	13	19	47	54	0.251048437654	-0.0195931311663	0.552025788997	-0.30126953125	0.79443359375	0.37841796875	-5.375	1.5625	-0.5
18	12	13	19	47	54	0.251115772311	-0.020204015711	0.551856513725	-0.314453125	0.80615234375	0.3681640625	-1.75	1.5	-0.5
18	12	13	19	47	54	0.250870157841	-0.0203870152601	0.551792269315	-0.302734375	0.83447265625	0.36376953125	-1.75	1.1875	0.5625
18	12	13	19	47	55	0.250319835798	-0.0205700523443	0.551423895781	-0.2958984375	0.85205078125	0.36328125	-4.5	1.625	2.1875
18	12	13	19	47	55	0.249584282439	-0.0204477218433	0.55080669228	-0.29296875	0.853515625	0.36083984375	-6.375	0.625	3.9375
18	12	13	19	47	55	0.249039708363	-0.0205091524534	0.550145806735	-0.2822265625	0.84912109375	0.36865234375	-6.5	0.9375	2.0625
18	12	13	19	47	55	0.248908400988	-0.0206915026814	0.550064372168	-0.30615234375	0.87060546875	0.3740234375	-2.1875	0.875	-0.3125
18	12	13	19	47	55	0.2486718614	-0.0206921357424	0.54995912401	-0.328125	0.90185546875	0.373046875	-3.1875	-0.6875	2.0
18	12	13	19	47	55	0.248543566777	-0.0204474692707	0.549701218663	-0.3173828125	0.88134765625	0.38427734375	-2.75	-1.75	1.9375
18	12	13	19	47	55	0.248788015507	-0.0202033447332	0.550129142238	-0.3193359375	0.85595703125	0.38671875	3.375	-1.75	0.0
18	12	13	19	47	55	0.249281597364	-0.020020657183	0.5513005356	-0.314453125	0.85595703125	0.39111328125	8.6875	-0.8125	-2.375
18	12	13	19	47	55	0.249705621119	-0.0199593591068	0.552269973084	-0.29736328125	0.8623046875	0.38232421875	6.9375	-0.0625	-2.9375
18	12	13	19	47	55	0.249889126918	-0.0200204283413	0.552270840341	-0.2822265625	0.84326171875	0.39599609375	1.3125	0.625	-2.375
18	12	13	19	47	55	0.250071599136	-0.0201424524567	0.551659046374	-0.287109375	0.826171875	0.39013671875	-2.9375	-0.375	-1.25
18	12	13	19	47	55	0.250442408726	-0.0202648987806	0.550936675885	-0.2861328125	0.78955078125	0.400390625	-2.1875	-0.9375	-1.25
18	12	13	19	47	55	0.250621491043	-0.0200814589754	0.551232996982	-0.30322265625	0.8212890625	0.390625	3.5	-0.8125	0.0
18	12	13	19	47	55	0.250554523834	-0.019958910912	0.551647207408	-0.32958984375	0.84423828125	0.380859375	3.0625	-0.75	2.0
18	12	13	19	47	55	0.250442440917	-0.0198376293683	0.552096485034	-0.3369140625	0.85400390625	0.38671875	3.25	-0.5	2.5625
18	12	13	19	47	55	0.25056251762	-0.0197764325722	0.55258038295	-0.33447265625	0.8544921875	0.380859375	3.375	-0.6875	1.0625
18	12	13	19	47	55	0.250748572244	-0.0194104298865	0.553197251764	-0.31591796875	0.8623046875	0.392578125	5.1875	-1.25	0.3125
18	12	13	19	47	55	0.250860567163	-0.0189823932817	0.553907456692	-0.28369140625	0.85546875	0.38525390625	5.8125	-0.625	-1.375
18	12	13	19	47	55	0.250860943797	-0.0184330912474	0.554884875927	-0.26611328125	0.86669921875	0.3779296875	7.25	0.0	-1.4375
18	12	13	19	47	55	0.250744279093	-0.0181282986589	0.555446187865	-0.265625	0.85107421875	0.37158203125	4.0625	0.6875	-1.375
18	12	13	19	47	55	0.250864512092	-0.0178840150956	0.555930407818	-0.27197265625	0.833984375	0.3720703125	4.0625	-0.1875	-1.4375
18	12	13	19	47	55	0.251049034851	-0.0176399637909	0.556543909499	-0.29296875	0.84912109375	0.3662109375	4.375	-0.5625	-1.3125
18	12	13	19	47	55	0.251046363632	-0.01733458966	0.557087323333	-0.31298828125	0.85595703125	0.3701171875	4.0	-0.9375	1.25
18	12	13	19	47	55	0.25099524276	-0.0172742348495	0.557414532316	-0.30908203125	0.84228515625	0.36962890625	2.5	0.1875	1.25
18	12	13	19	47	55	0.251114255706	-0.017212984956	0.557896037227	-0.32470703125	0.8515625	0.38037109375	4.3125	-0.375	0.25
18	12	13	19	47	55	0.251355913914	-0.0170296988786	0.557890493728	-0.318359375	0.87060546875	0.3876953125	0.9375	-1.75	0.3125
18	12	13	19	47	55	0.251657526405	-0.0168463442367	0.557516334267	-0.3056640625	0.85986328125	0.40673828125	0.375	-1.6875	-0.4375
18	12	13	19	47	55	0.251906296577	-0.0166635374281	0.557648637153	-0.30810546875	0.8623046875	0.39599609375	2.75	-0.9375	-0.75
18	12	13	19	47	55	0.252329066055	-0.0167242777211	0.55782180326	-0.2939453125	0.857421875	0.3955078125	3.1875	-0.3125	-2.9375
18	12	13	19	47	55	0.252881538601	-0.0168465615867	0.558072871694	-0.3037109375	0.85595703125	0.3994140625	4.125	0.0	-3.4375
18	12	13	19	47	55	0.253190284326	-0.0171519937068	0.558080706267	-0.2880859375	0.84619140625	0.3779296875	0.5	0.9375	-3.4375
18	12	13	19	47	55	0.253604673746	-0.0177614825656	0.557930282241	-0.291015625	0.8330078125	0.37353515625	-0.5	1.5	-4.1875
18	12	13	19	47	55	0.253858803938	-0.0184336039407	0.557402884723	-0.28173828125	0.8095703125	0.365234375	-3.25	2.3125	-3.5625
18	12	13	19	47	55	0.2539780662	-0.0194710413646	0.557152556664	-0.2744140625	0.806640625	0.373046875	-1.5625	4.6875	-4.5625
18	12	13	19	47	55	0.253672990875	-0.0202035033637	0.557091767977	-0.27880859375	0.8310546875	0.3603515625	-2.1875	4.75	-2.375
18	12	13	19	47	55	0.253247427119	-0.0213023263593	0.555935783612	-0.28662109375	0.82666015625	0.35205078125	-10.125	4.4375	-1.25
18	12	13	19	47	55	0.252820954344	-0.0224010840763	0.554777801552	-0.30810546875	0.79833984375	0.35400390625	-10.0625	4.3125	0.8125
18	12	13	19	47	55	0.252571146903	-0.0233161377759	0.554093975733	-0.3251953125	0.79736328125	0.35498046875	-6.0	3.125	0.75
18	12	13	19	47	55	0.252335056404	-0.0235610381645	0.554416864373	-0.33984375	0.8369140625	0.361328125	0.875	1.25	2.1875
18	12	13	19	47	55	0.251724079713	-0.0236220220293	0.554781804198	-0.35205078125	0.85791015625	0.35693359375	0.4375	0.875	4.9375
18	12	13	19	47	55	0.251350800466	-0.0233772114081	0.555254548772	-0.3251953125	0.87353515625	0.3779296875	2.5	0.5	2.4375
18	12	13	19	47	55	0.250997120601	-0.0232562993553	0.556319979853	-0.3232421875	0.9033203125	0.384765625	6.4375	2.3125	0.8125
18	12	13	19	47	55	0.250993267705	-0.0230728247064	0.556433518581	-0.3544921875	0.91650390625	0.4208984375	2.25	-1.125	1.8125
18	12	13	19	47	55	0.250810229479	-0.0214247725838	0.556494734037	-0.2900390625	0.91748046875	0.46044921875	6.125	-4.25	3.6875
18	12	13	19	47	55	0.250437770962	-0.0186775427527	0.557396471954	-0.27294921875	0.9169921875	0.466796875	13.5	-6.9375	6.6875
18	12	13	19	47	55	0.249887547504	-0.0150762638577	0.559225625361	-0.24755859375	0.91748046875	0.455078125	20.875	-8.6875	8.4375
18	12	13	19	47	55	0.249155203258	-0.0113529808442	0.562216701913	-0.26708984375	1.00439453125	0.4208984375	24.625	-8.3125	8.0
18	12	13	19	47	55	0.248109890899	-0.00775152672674	0.563969346103	-0.2646484375	1.02783203125	0.37890625	13.0	-9.125	10.5625
18	12	13	19	47	55	0.247020818146	-0.00415058454013	0.564357421442	-0.248046875	0.96435546875	0.38037109375	5.875	-11.0	12.625
18	12	13	19	47	55	0.246228501475	6.10382998202e-05	0.564543235037	-0.2255859375	0.939453125	0.37109375	5.5	-14.8125	13.3125
18	12	13	19	47	55	0.245857617598	0.00518815727305	0.564105288442	-0.19287109375	0.8955078125	0.3759765625	4.6875	-20.3125	13.6875
18	12	13	19	47	56	0.246710082002	0.0112917776275	0.565016137826	-0.17529296875	0.79443359375	0.36572265625	18.625	-26.875	11.0625
18	12	13	19	47	56	0.249337893655	0.0175787792834	0.567587043597	-0.177734375	0.76513671875	0.3583984375	32.9375	-31.1875	1.625
18	12	13	19	47	56	0.254038343479	0.0232553120772	0.572837542899	-0.16552734375	0.7021484375	0.28125	50.0625	-32.9375	-13.0
18	12	13	19	47	56	0.260446099605	0.0264291448627	0.581563261551	-0.28857421875	0.7666015625	0.23095703125	68.75	-25.875	-28.0
18	12	13	19	47	56	0.264602273831	0.0285660586281	0.589327555671	-0.41748046875	0.96240234375	0.13623046875	49.5625	-19.375	-14.9375
18	12	13	19	47	56	0.268021565076	0.0295428006142	0.592137828013	-0.42236328125	0.8955078125	0.1806640625	17.5	-17.625	-7.125
18	12	13	19	47	56	0.270881383494	0.0302132232604	0.592789544051	-0.41015625	0.89697265625	0.20947265625	3.375	-16.25	-4.0
18	12	13	19	47	56	0.273080446986	0.0301523783664	0.593647838039	-0.40625	0.85595703125	0.20166015625	3.5	-10.4375	-2.6875
18	12	13	19	47	56	0.273331582498	0.0293596451946	0.594944826844	-0.37158203125	0.8408203125	0.2021484375	4.0	0.6875	1.3125
18	12	13	19	47	56	0.273386222721	0.0268564273269	0.595602313308	-0.3603515625	0.80712890625	0.21337890625	-2.3125	8.625	-2.625
18	12	13	19	47	56	0.273811464274	0.023865421875	0.596391399336	-0.3486328125	0.79052734375	0.2802734375	2.75	11.0625	-7.0625
18	12	13	19	47	56	0.274062771817	0.0214855446948	0.595491403529	-0.3291015625	0.86083984375	0.3125	-7.375	7.875	-4.75
18	12	13	19	47	56	0.273145677305	0.0200815481192	0.59371798953	-0.28857421875	0.8310546875	0.32568359375	-12.375	7.4375	3.4375
18	12	13	19	47	56	0.271065108938	0.0192266402422	0.592302593366	-0.26416015625	0.84765625	0.34375	-9.25	10.3125	8.375
18	12	13	19	47	56	0.269659819399	0.0178226951708	0.590407295846	-0.26611328125	0.89208984375	0.3623046875	-13.0	9.875	3.4375
18	12	13	19	47	56	0.269539268456	0.0174565739987	0.589128853971	-0.30419921875	0.94189453125	0.412109375	-3.6875	2.0625	1.3125
18	12	13	19	47	56	0.26886933974	0.0187994907242	0.587728234361	-0.22705078125	1.013671875	0.37548828125	-6.1875	-2.8125	3.3125
18	12	13	19	47	56	0.268378099717	0.0192875777827	0.586440023217	-0.20361328125	0.9306640625	0.34765625	-7.125	0.0	-0.1875
18	12	13	19	47	56	0.268868347575	0.0186163101045	0.58662739808	-0.228515625	0.91162109375	0.32861328125	1.8125	3.25	-8.625
18	12	13	19	47	56	0.269177113601	0.0183113682722	0.586879353124	-0.25	0.92822265625	0.30419921875	0.75	1.25	-5.8125
18	12	13	19	47	56	0.269479757994	0.0186163819226	0.586263437267	-0.24169921875	0.896484375	0.29931640625	-4.375	-2.625	-2.6875
18	12	13	19	47	56	0.270279365392	0.0191661519271	0.586093601287	-0.279296875	0.8466796875	0.27783203125	-0.3125	-5.8125	-1.0625
18	12	13	19	47	56	0.271680250281	0.0200815102993	0.586697498472	-0.3017578125	0.83740234375	0.29248046875	7.6875	-8.6875	-2.375
18	12	13	19	47	56	0.273333715478	0.0209974984646	0.588174113966	-0.31005859375	0.89599609375	0.31298828125	13.9375	-7.5625	-5.6875
18	12	13	19	47	56	0.274915284566	0.0219736905959	0.589627364322	-0.31298828125	1.02099609375	0.3359375	13.125	-7.3125	-7.4375
18	12	13	19	47	56	0.275835799149	0.0227675930698	0.589149620134	-0.28173828125	1.0390625	0.34375	-1.375	-6.4375	-4.5625
18	12	13	19	47	56	0.276252002079	0.0225835706516	0.587661130361	-0.25439453125	0.93994140625	0.318359375	-10.3125	-2.0	-3.625
18	12	13	19	47	56	0.277234306206	0.0208139362431	0.586452490979	-0.27978515625	0.8544921875	0.2890625	-10.6875	2.5625	-9.125
18	12	13	19	47	56	0.27827193557	0.0187386453652	0.585475851281	-0.29931640625	0.8349609375	0.2900390625	-9.25	3.375	-9.0625
18	12	13	19	47	56	0.278335876015	0.0170907994044	0.583894953938	-0.27587890625	0.8408203125	0.2919921875	-13.8125	4.6875	-4.0
18	12	13	19	47	56	0.27783992971	0.0155644073102	0.581803648944	-0.279296875	0.84033203125	0.3037109375	-17.5625	5.1875	-0.25
18	12	13	19	47	56	0.277171762169	0.0142217618554	0.579491017405	-0.28466796875	0.84521484375	0.314453125	-18.6875	4.625	2.1875
18	12	13	19	47	56	0.276623688776	0.0126348419189	0.577113190065	-0.2890625	0.873046875	0.31298828125	-20.1875	4.875	0.1875
18	12	13	19	47	56	0.276137390299	0.0114752054324	0.575408306444	-0.31884765625	0.875	0.33251953125	-14.5625	3.625	2.0625
18	12	13	19	47	56	0.275830664379	0.0106816477686	0.573940194104	-0.3232421875	0.8642578125	0.3388671875	-10.875	1.625	2.625
18	12	13	19	47	56	0.275887236371	0.0106204378603	0.57393090345	-0.3134765625	0.845703125	0.337890625	-0.1875	0.25	0.125
18	12	13	19	47	56	0.276309007723	0.01055919115	0.5748960777	-0.29833984375	0.83056640625	0.330078125	7.875	0.125	-2.3125
18	12	13	19	47	56	0.276321101351	0.0110479609774	0.576142009201	-0.28173828125	0.87255859375	0.33251953125	9.625	0.125	-1.0
18	12	13	19	47	56	0.275894982365	0.0117804715921	0.576815837023	-0.2685546875	0.8857421875	0.32275390625	4.625	-0.3125	1.875
18	12	13	19	47	56	0.275708574538	0.0120855208675	0.576259608636	-0.296875	0.88037109375	0.328125	-3.5625	-1.625	2.5625
18	12	13	19	47	56	0.275344753763	0.0128180887365	0.575593222785	-0.31103515625	0.86474609375	0.33251953125	-3.5625	-3.4375	6.625
18	12	13	19	47	56	0.275279903077	0.0133062126099	0.575219025854	-0.30908203125	0.86328125	0.33544921875	-1.0625	-2.875	3.6875
18	12	13	19	47	56	0.275646397146	0.0136724519399	0.575768924774	-0.34716796875	0.87451171875	0.3515625	5.75	-2.875	2.1875
18	12	13	19	47	56	0.275647220763	0.0143439098493	0.576564138027	-0.32763671875	0.8994140625	0.35205078125	7.6875	-2.1875	3.125
18	12	13	19	47	56	0.275526227389	0.0147712332805	0.576932632097	-0.29150390625	0.87548828125	0.34765625	4.5625	-0.5625	1.375
18	12	13	19	47	56	0.275651610603	0.0148324493748	0.577427864549	-0.2744140625	0.88818359375	0.35302734375	4.75	0.875	-2.1875
18	12	13	19	47	56	0.275707508835	0.0149542483207	0.577417098423	-0.2705078125	0.89892578125	0.3427734375	0.75	0.25	-1.4375
18	12	13	19	47	56	0.275769984961	0.0150764024536	0.576809729501	-0.263671875	0.8642578125	0.33154296875	-3.1875	-1.125	-0.6875
18	12	13	19	47	56	0.275897665245	0.0153819052305	0.57688248545	-0.26708984375	0.826171875	0.32177734375	1.9375	-1.375	-0.0625
18	12	13	19	47	56	0.276261035549	0.015503823029	0.577853120535	-0.2900390625	0.8212890625	0.2978515625	7.0	-0.9375	-1.375
18	12	13	19	47	57	0.276439700218	0.0159918749077	0.579308720416	-0.306640625	0.8515625	0.30517578125	10.375	-1.125	0.4375
18	12	13	19	47	57	0.276256658162	0.0166022560805	0.580346510342	-0.28662109375	0.86962890625	0.30419921875	7.5	-0.9375	1.625
18	12	13	19	47	57	0.276260620239	0.0169076870981	0.580965219494	-0.28564453125	0.86376953125	0.29736328125	3.625	-0.75	0.1875
18	12	13	19	47	57	0.276444710835	0.0170298243151	0.581272462195	-0.2802734375	0.86767578125	0.314453125	2.75	-0.375	-1.25
18	12	13	19	47	57	0.276257324586	0.0173957882252	0.581446591694	-0.26708984375	0.88427734375	0.32861328125	2.0625	-0.0625	0.3125
18	12	13	19	47	57	0.275821570688	0.0178835406531	0.581428697139	-0.2607421875	0.8828125	0.330078125	1.0	0.3125	2.0625
18	12	13	19	47	57	0.275588074107	0.0181283849413	0.581573238116	-0.26025390625	0.87255859375	0.3193359375	1.6875	0.5	0.375
18	12	13	19	47	57	0.275705627578	0.0181891248657	0.582174070365	-0.2919921875	0.89453125	0.31298828125	3.75	-0.0625	-1.3125
18	12	13	19	47	57	0.275705627578	0.0181891248657	0.582174070365	-0.3046875	0.90966796875	0.3193359375	0.875	-0.125	0.5
18	12	13	19	47	57	0.275398759801	0.0181279768752	0.581926368782	-0.30029296875	0.9228515625	0.31640625	-3.0	0.625	1.8125
18	12	13	19	47	57	0.275399419009	0.0175786863197	0.581378427762	-0.28076171875	0.90478515625	0.3134765625	-5.5625	1.8125	-2.25
18	12	13	19	47	57	0.275838847877	0.0166028250991	0.58067159988	-0.2744140625	0.88232421875	0.3115234375	-6.625	1.8125	-5.4375
18	12	13	19	47	57	0.276208591335	0.0156874271764	0.579702318655	-0.2734375	0.8818359375	0.3203125	-7.875	1.6875	-5.0
18	12	13	19	47	57	0.276196689588	0.0149542959004	0.57863969443	-0.26708984375	0.8701171875	0.3134765625	-9.125	1.9375	-2.125
18	12	13	19	47	57	0.27637998876	0.0140387361782	0.577358284823	-0.28076171875	0.83203125	0.314453125	-9.875	1.375	-2.3125
