18	12	13	19	48	41	-0.660408966991	-0.301273443721	0.616951371381	0.7275390625	1.01953125	0.08251953125	158.6875	-125.0	30.5625
18	12	13	19	48	41	-0.641422740199	-0.306703708203	0.639530637721	0.89404296875	1.05908203125	0.12890625	135.8125	-124.4375	31.0
18	12	13	19	48	41	-0.624929324491	-0.310297947623	0.658009868868	0.89697265625	1.04052734375	0.203125	110.5625	-109.25	25.375
18	12	13	19	48	41	-0.613464152074	-0.312744036934	0.670226828567	0.82177734375	0.96142578125	0.29833984375	95.4375	-91.1875	16.5
18	12	13	19	48	41	-0.604982746155	-0.315736051842	0.678652457072	0.85791015625	1.015625	0.35107421875	86.9375	-71.3125	10.125
18	12	13	19	48	41	-0.601128394731	-0.317623328884	0.682426295207	0.876953125	1.01611328125	0.35400390625	59.8125	-44.25	4.4375
18	12	13	19	48	41	-0.602233154219	-0.318847268434	0.680541164441	0.7529296875	0.92431640625	0.37646484375	24.1875	-12.875	-7.375
18	12	13	19	48	41	-0.606749526517	-0.319640606616	0.674376372446	0.66064453125	0.97021484375	0.37158203125	-4.3125	9.5625	-13.6875
18	12	13	19	48	41	-0.614134817905	-0.317626475092	0.665160131736	0.63671875	0.94091796875	0.31103515625	-44.6875	24.5	-18.375
18	12	13	19	48	42	-0.624447572244	-0.314695697634	0.652157395116	0.529296875	0.681640625	0.2587890625	-75.0625	47.1875	-32.4375
18	12	13	19	48	42	-0.634809071842	-0.316153349884	0.636640075799	0.373046875	0.6083984375	0.23876953125	-63.6875	67.8125	-46.625
18	12	13	19	48	42	-0.642215280232	-0.321473852973	0.621951502145	0.115234375	0.62451171875	0.17041015625	-44.125	66.25	-46.875
18	12	13	19	48	42	-0.646350600266	-0.324334947102	0.611500157135	0.1083984375	0.82080078125	0.10400390625	-44.3125	37.9375	-28.125
18	12	13	19	48	42	-0.651866734162	-0.317388297532	0.603831236054	0.26171875	0.7744140625	0.076171875	-84.9375	14.1875	-1.125
18	12	13	19	48	42	-0.656053370856	-0.309991168535	0.596911523581	0.16455078125	0.537109375	0.1201171875	-83.625	2.75	-8.3125
18	12	13	19	48	42	-0.656621648654	-0.305605558172	0.592412132537	0.177734375	0.49755859375	0.123046875	-59.3125	-11.8125	-21.875
18	12	13	19	48	42	-0.653623289537	-0.307738222602	0.589841765813	0.26904296875	0.59228515625	0.1416015625	-15.25	-13.5625	-40.5
18	12	13	19	48	42	-0.648480971467	-0.316519747579	0.586531965722	0.3203125	0.62548828125	0.1494140625	15.3125	-2.1875	-68.3125
18	12	13	19	48	42	-0.642280016037	-0.328983111892	0.58032865081	0.25244140625	0.73388671875	0.16552734375	16.1875	7.0625	-91.5625
18	12	13	19	48	42	-0.635014320629	-0.343142109821	0.572330765526	0.33447265625	0.84375	0.09375	9.375	13.6875	-119.5
18	12	13	19	48	42	-0.625510238013	-0.36103562235	0.560871738593	0.359375	0.908203125	0.05224609375	6.25	20.125	-158.5625
18	12	13	19	48	42	-0.61199701755	-0.380430578477	0.54839864393	0.24462890625	0.998046875	-0.015625	3.6875	6.5	-187.6875
18	12	13	19	48	42	-0.597351113162	-0.395507838284	0.535034214568	0.25439453125	1.1962890625	-0.10791015625	-25.8125	-12.4375	-192.75
18	12	13	19	48	42	-0.583611138433	-0.405207524373	0.5173887911	0.29931640625	1.27587890625	-0.220703125	-77.0625	-21.6875	-205.4375
18	12	13	19	48	42	-0.573013432509	-0.412242514185	0.491895531806	0.33056640625	1.001953125	-0.1923828125	-125.0625	-1.0625	-221.625
18	12	13	19	48	42	-0.563224192898	-0.419183328655	0.463005930573	0.28759765625	0.9814453125	-0.2412109375	-134.5625	15.125	-223.375
18	12	13	19	48	42	-0.55425641139	-0.423458978331	0.432003840967	0.234375	1.09326171875	-0.11376953125	-149.625	16.9375	-216.8125
18	12	13	19	48	42	-0.543998027716	-0.425530601283	0.398736577479	0.166015625	1.05029296875	0.02490234375	-161.1875	11.4375	-224.375
18	12	13	19	48	42	-0.532089904465	-0.429004351742	0.365041261597	0.00341796875	1.02392578125	0.16015625	-146.5	19.9375	-224.125
18	12	13	19	48	42	-0.520438675224	-0.432610452678	0.333918141451	-0.2275390625	1.02783203125	0.2109375	-127.1875	24.1875	-200.0625
18	12	13	19	48	42	-0.51033421746	-0.43556332685	0.307323619772	-0.25634765625	0.9462890625	0.2744140625	-105.125	24.0625	-166.0
18	12	13	19	48	42	-0.499148588969	-0.441714152405	0.284120406169	-0.16552734375	0.72607421875	0.3212890625	-70.3125	36.5625	-155.8125
18	12	13	19	48	42	-0.48266490532	-0.455870533363	0.269469594966	-0.25048828125	0.76953125	0.35498046875	10.0	50.1875	-150.875
18	12	13	19	48	42	-0.46093824781	-0.475586709075	0.267883735387	-0.55419921875	1.55908203125	0.375	95.9375	42.8125	-130.875
18	12	13	19	48	42	-0.459528784334	-0.477533963159	0.282345617788	-0.4267578125	1.31298828125	0.68505859375	80.875	-7.375	34.5625
18	12	13	19	48	42	-0.462636032609	-0.477284139183	0.29686829322	0.39453125	1.12890625	0.5087890625	62.4375	11.9375	19.875
18	12	13	19	48	42	-0.454894573848	-0.494201175962	0.307616886112	0.2490234375	1.18115234375	0.27001953125	125.25	60.0625	-10.625
18	12	13	19	48	42	-0.442684706527	-0.510067019501	0.314755967401	-0.2353515625	1.2900390625	0.044921875	93.0	38.1875	-58.5625
18	12	13	19	48	42	-0.442384119373	-0.511842332376	0.307801202263	-0.3369140625	1.39306640625	0.04736328125	-50.75	12.25	-50.125
18	12	13	19	48	42	-0.458063508301	-0.499566930772	0.286861890608	-0.3525390625	1.07080078125	0.11279296875	-176.0625	9.1875	-2.375
18	12	13	19	48	42	-0.47569405097	-0.48716832369	0.26415240603	-0.29833984375	0.67431640625	0.2216796875	-182.5625	22.3125	7.3125
18	12	13	19	48	42	-0.486323930938	-0.481807368326	0.247251285671	-0.34326171875	0.494140625	0.30712890625	-113.75	33.9375	-3.6875
18	12	13	19	48	42	-0.487609286547	-0.483825111336	0.239806845268	-0.38427734375	0.54638671875	0.3955078125	-21.5625	30.1875	-13.9375
18	12	13	19	48	42	-0.483384991491	-0.491075207265	0.24150939537	-0.4423828125	0.70751953125	0.41064453125	45.75	25.6875	-11.0
18	12	13	19	48	42	-0.479003052403	-0.498229092351	0.24768022256	-0.46044921875	0.9033203125	0.43310546875	63.0	17.9375	0.75
18	12	13	19	48	42	-0.475816980886	-0.501206907008	0.252983759078	-0.52197265625	0.951171875	0.45654296875	42.0625	-1.4375	4.5625
18	12	13	19	48	42	-0.475342416651	-0.499756510984	0.255859708603	-0.4462890625	0.89892578125	0.4296875	9.5	-13.625	5.5625
18	12	13	19	48	42	-0.476264915301	-0.497749632741	0.256412778314	-0.38916015625	0.873046875	0.4013671875	-6.4375	-7.6875	2.5625
18	12	13	19	48	42	-0.476742403345	-0.497372147594	0.255003170039	-0.4326171875	0.80712890625	0.33056640625	-11.125	0.3125	-2.4375
18	12	13	19	48	42	-0.476992500352	-0.497378360252	0.25335839654	-0.4462890625	0.7587890625	0.30029296875	-10.3125	0.875	-2.3125
18	12	13	19	48	42	-0.475579075871	-0.498711066343	0.25457396374	-0.42724609375	0.77490234375	0.294921875	9.8125	-1.1875	-2.125
18	12	13	19	48	42	-0.472155648578	-0.501817960523	0.257927840084	-0.37255859375	0.74951171875	0.2490234375	28.125	-0.6875	-6.5
18	12	13	19	48	42	-0.466677324662	-0.507632135655	0.258546317979	-0.36572265625	0.71337890625	0.2685546875	32.875	14.625	-27.3125
18	12	13	19	48	42	-0.459101679622	-0.517084476171	0.257870858336	-0.39501953125	0.7099609375	0.2412109375	44.4375	30.8125	-40.9375
18	12	13	19	48	42	-0.449704938828	-0.528561993791	0.256407498374	-0.45166015625	0.79638671875	0.1787109375	48.375	36.375	-53.125
18	12	13	19	48	42	-0.441335966852	-0.536853984848	0.253412658605	-0.5126953125	0.9111328125	0.232421875	29.3125	24.75	-56.625
18	12	13	19	48	42	-0.435536139059	-0.541795726798	0.249993837666	-0.45849609375	0.88818359375	0.2861328125	13.6875	17.0	-48.75
18	12	13	19	48	42	-0.431830462101	-0.544747261378	0.246952091825	-0.43505859375	0.8779296875	0.32958984375	6.625	13.4375	-38.625
18	12	13	19	48	42	-0.427963765515	-0.546612019959	0.245474937949	-0.48193359375	0.8779296875	0.392578125	13.6875	5.75	-31.5
18	12	13	19	48	43	-0.423944107887	-0.548087833116	0.246761593462	-0.5322265625	0.884765625	0.3583984375	22.5	-2.625	-19.125
18	12	13	19	48	43	-0.42151482756	-0.548225627157	0.250369797662	-0.48583984375	0.92626953125	0.31591796875	22.125	-9.4375	-5.6875
18	12	13	19	48	43	-0.420721668715	-0.548164994448	0.252323136293	-0.46923828125	0.81640625	0.23388671875	7.5	-5.6875	-0.5625
18	12	13	19	48	43	-0.419794130278	-0.548881740853	0.251705582039	-0.5302734375	0.7802734375	0.1845703125	-2.3125	-1.0625	-6.5
18	12	13	19	48	43	-0.418697951739	-0.550044597824	0.250486354801	-0.57373046875	0.75146484375	0.171875	-3.3125	0.875	-6.125
18	12	13	19	48	43	-0.418587398997	-0.55030387713	0.248723192026	-0.5791015625	0.74951171875	0.205078125	-9.6875	0.3125	-3.6875
18	12	13	19	48	43	-0.418509046517	-0.55009800733	0.246881886126	-0.56982421875	0.72802734375	0.25048828125	-8.5625	-0.875	-3.5625
18	12	13	19	48	43	-0.417915540457	-0.550120164472	0.246586648671	-0.576171875	0.76806640625	0.29736328125	2.0625	-1.3125	-1.625
18	12	13	19	48	43	-0.416762422285	-0.550739211523	0.246285350604	-0.57470703125	0.7666015625	0.28662109375	4.6875	0.625	-4.4375
18	12	13	19	48	43	-0.415107770949	-0.551462830543	0.246647625703	-0.58251953125	0.81884765625	0.28662109375	8.25	-1.5625	-5.875
18	12	13	19	48	43	-0.414548102649	-0.551449073533	0.246824577019	-0.54248046875	0.83740234375	0.25732421875	0.75	-2.5	-4.3125
18	12	13	19	48	43	-0.41503974435	-0.550904225368	0.244324131858	-0.53564453125	0.75830078125	0.24853515625	-15.0625	0.5	-7.0625
18	12	13	19	48	43	-0.414788054264	-0.550466960184	0.242183490188	-0.5576171875	0.76806640625	0.26513671875	-10.75	-1.5625	-9.125
18	12	13	19	48	43	-0.415348061658	-0.549199391447	0.24164040795	-0.525390625	0.79736328125	0.24951171875	-10.0	-6.4375	-1.6875
18	12	13	19	48	43	-0.416691869664	-0.547369662685	0.240359247508	-0.4931640625	0.75927734375	0.2607421875	-15.9375	-5.5625	-1.125
18	12	13	19	48	43	-0.4167500504	-0.546938664563	0.239686210885	-0.53271484375	0.734375	0.255859375	-5.1875	-2.6875	-1.8125
18	12	13	19	48	43	-0.416632372719	-0.546578215309	0.239993918771	-0.54052734375	0.77783203125	0.24755859375	-1.8125	-4.375	0.25
18	12	13	19	48	43	-0.417407755969	-0.545455931437	0.239190085633	-0.54150390625	0.76220703125	0.26123046875	-10.4375	-4.5625	0.625
18	12	13	19	48	43	-0.41834711324	-0.544205261402	0.238532319601	-0.53857421875	0.7587890625	0.2861328125	-9.375	-4.1875	2.3125
18	12	13	19	48	43	-0.419364095174	-0.543018826191	0.237788169815	-0.54638671875	0.75537109375	0.28466796875	-9.8125	-3.8125	2.5625
18	12	13	19	48	43	-0.420296172203	-0.541575361017	0.236881998885	-0.5361328125	0.7431640625	0.3056640625	-10.0	-4.5625	1.75
18	12	13	19	48	43	-0.420703531642	-0.540817350048	0.236565630153	-0.53759765625	0.75439453125	0.2880859375	-5.25	-3.5	1.0
18	12	13	19	48	43	-0.420964230644	-0.539984130565	0.236147688613	-0.541015625	0.759765625	0.28369140625	-6.25	-4.625	-0.4375
18	12	13	19	48	43	-0.421374569117	-0.538924890688	0.235955110691	-0.53076171875	0.77001953125	0.29296875	-6.0625	-5.375	0.4375
18	12	13	19	48	43	-0.421790655362	-0.537995171033	0.236315065484	-0.50830078125	0.77978515625	0.2724609375	-4.6875	-5.8125	1.25
18	12	13	19	48	43	-0.422246389254	-0.537360105665	0.23645309511	-0.49951171875	0.7724609375	0.2685546875	-4.5625	-3.3125	0.75
18	12	13	19	48	43	-0.422604310236	-0.537044385581	0.236570523754	-0.5146484375	0.763671875	0.27294921875	-3.4375	-2.125	1.0625
18	12	13	19	48	43	-0.422899403694	-0.536848485336	0.237602450365	-0.52001953125	0.81591796875	0.28125	0.75	-2.125	3.3125
18	12	13	19	48	43	-0.423465988852	-0.536748328908	0.237978364159	-0.53564453125	0.814453125	0.27490234375	-2.5625	-0.8125	3.0625
18	12	13	19	48	43	-0.424862282595	-0.535701228895	0.236997592776	-0.57080078125	0.80810546875	0.30908203125	-11.625	-1.5625	3.8125
18	12	13	19	48	43	-0.426743303165	-0.534344625173	0.23619802392	-0.5751953125	0.81494140625	0.30126953125	-14.3125	-2.8125	7.3125
18	12	13	19	48	43	-0.429683002874	-0.532159957679	0.234677719609	-0.56884765625	0.8076171875	0.326171875	-21.4375	-3.0	10.125
18	12	13	19	48	43	-0.433893264453	-0.528801694081	0.232540911178	-0.55126953125	0.7890625	0.37890625	-28.25	-3.25	13.375
18	12	13	19	48	43	-0.437797955738	-0.525870233743	0.232784246924	-0.5029296875	0.81103515625	0.3818359375	-16.0625	-3.9375	19.0
18	12	13	19	48	43	-0.441656999847	-0.523018080664	0.234744723799	-0.4423828125	0.82861328125	0.37158203125	-9.0625	-5.5625	21.6875
18	12	13	19	48	43	-0.44555177243	-0.519281435593	0.238217612026	-0.3935546875	0.88818359375	0.38232421875	-6.8125	-11.5	23.4375
18	12	13	19	48	43	-0.44946633905	-0.515384813544	0.244325604999	-0.2353515625	0.98388671875	0.4443359375	5.875	-11.0	22.375
18	12	13	19	48	43	-0.450685667239	-0.512392494105	0.252198425925	-0.126953125	0.91796875	0.3154296875	17.0625	-18.5	12.4375
18	12	13	19	48	43	-0.449708631997	-0.507570166082	0.261048292488	-0.23583984375	1.0	0.3056640625	17.0625	-41.875	7.8125
18	12	13	19	48	43	-0.446402545271	-0.501943469006	0.275629463282	-0.31396484375	1.26025390625	0.19482421875	32.375	-67.9375	14.5
18	12	13	19	48	43	-0.449162138127	-0.49487792036	0.281374841251	-0.67724609375	0.95263671875	0.00390625	-28.3125	-57.75	46.625
18	12	13	19	48	43	-0.453850532223	-0.487968666638	0.273250246472	-0.89501953125	0.4248046875	0.25341796875	-68.125	-28.6875	32.5
18	12	13	19	48	43	-0.447453581991	-0.493901839514	0.279971297312	-0.630859375	0.90576171875	0.3115234375	59.8125	-2.8125	0.5
18	12	13	19	48	43	-0.450127403128	-0.490532059517	0.280147088862	-0.62646484375	1.1083984375	0.41650390625	-20.375	-14.75	18.125
18	12	13	19	48	43	-0.459967397486	-0.479620993822	0.277713861274	-0.46533203125	0.57763671875	0.59521484375	-50.0	-22.3125	54.5625
18	12	13	19	48	43	-0.458796127586	-0.477655779498	0.277584779601	-0.89453125	0.49609375	0.56640625	13.1875	-23.4375	29.9375
18	12	13	19	48	43	-0.456982340291	-0.473340196201	0.278388734348	-0.90771484375	0.58642578125	0.556640625	6.375	-42.125	27.625
18	12	13	19	48	43	-0.457815403649	-0.462515015178	0.276788808899	-0.67431640625	0.5576171875	0.59765625	-31.125	-60.5625	20.25
18	12	13	19	48	43	-0.457461527835	-0.45056450947	0.277284552495	-0.408203125	0.60302734375	0.435546875	-34.625	-71.3125	5.25
18	12	13	19	48	43	-0.456549640958	-0.438666078819	0.271000054259	-0.2529296875	0.48828125	0.31640625	-69.4375	-60.0625	-27.375
18	12	13	19	48	44	-0.450146369819	-0.429882153578	0.266608724525	-0.12744140625	0.7841796875	0.35888671875	-48.9375	-56.6875	-67.3125
18	12	13	19	48	44	-0.441522893325	-0.42339567473	0.263485530894	-0.01611328125	0.896484375	0.29296875	-39.6875	-49.5	-84.1875
18	12	13	19	48	44	-0.432615587971	-0.416380296436	0.261412607686	-0.0556640625	0.60498046875	0.4609375	-17.1875	-51.1875	-71.5625
18	12	13	19	48	44	-0.415773059584	-0.416810661172	0.277466871531	-0.38818359375	0.826171875	0.59326171875	106.5	-70.75	-44.6875
18	12	13	19	48	44	-0.403195216381	-0.422238042223	0.297300014985	-0.20703125	1.03662109375	0.06494140625	127.5625	-35.8125	-11.3125
18	12	13	19	48	44	-0.396787567849	-0.432859164927	0.310850497317	-0.51806640625	1.09228515625	0.162109375	88.3125	12.125	3.8125
18	12	13	19	48	44	-0.400763741689	-0.431220809478	0.310186009026	-0.482421875	1.53564453125	0.38525390625	-40.375	-0.4375	4.75
18	12	13	19	48	44	-0.412970167891	-0.420721751001	0.297123673854	-0.22216796875	0.9169921875	0.48876953125	-119.125	-3.1875	25.1875
18	12	13	19	48	44	-0.421268146525	-0.418277399034	0.282228906046	-0.9873046875	-0.0439453125	0.52197265625	-64.3125	14.0	52.8125
18	12	13	19	48	44	-0.414678799081	-0.423712131766	0.280765745624	-1.060546875	-0.23046875	0.50634765625	55.9375	-8.0	19.9375
18	12	13	19	48	44	-0.393070546585	-0.439762932942	0.30054027506	0.07861328125	1.65771484375	0.5595703125	180.0	5.3125	-72.1875
18	12	13	19	48	44	-0.396967254164	-0.437677149386	0.305904040263	0.06201171875	1.97021484375	0.177734375	-36.8125	0.125	-20.8125
18	12	13	19	48	44	-0.417111885848	-0.428952638826	0.301511957285	-0.451171875	0.3828125	0.556640625	-76.9375	18.875	103.5625
18	12	13	19	48	44	-0.4067939041	-0.436212458005	0.30828447256	-0.23388671875	0.8544921875	0.33544921875	66.9375	2.5	-47.0625
18	12	13	19	48	44	-0.404427574514	-0.439828720487	0.312323558525	-0.42236328125	1.005859375	0.13720703125	14.25	-0.6875	-4.375
18	12	13	19	48	44	-0.409422435604	-0.441587853547	0.30810442083	-1.26708984375	-0.3056640625	0.5615234375	18.4375	10.5625	92.125
18	12	13	19	48	44	-0.393068624663	-0.45434826739	0.329530668409	-0.72998046875	0.39990234375	0.3544921875	178.8125	-7.4375	-10.375
18	12	13	19	48	44	-0.382636381348	-0.46473016551	0.340948608424	-0.7900390625	0.74169921875	0.51416015625	113.3125	13.375	-13.0625
18	12	13	19	48	44	-0.386224784095	-0.465142079581	0.345637002581	-0.5576171875	0.74169921875	0.541015625	34.625	12.4375	48.6875
18	12	13	19	48	44	-0.394466507307	-0.465205588534	0.347591947875	-0.5439453125	0.802734375	0.4736328125	7.5	27.5	62.0
18	12	13	19	48	44	-0.406927247316	-0.464179048423	0.345647067879	-0.5595703125	0.75146484375	0.39453125	-25.75	37.125	74.4375
18	12	13	19	48	44	-0.421205741789	-0.462221574057	0.345582801045	-0.51611328125	0.5908203125	0.294921875	-24.6875	34.8125	94.8125
18	12	13	19	48	44	-0.433230942814	-0.46197872727	0.349551086151	-0.5029296875	0.61083984375	0.25244140625	3.625	31.8125	98.1875
18	12	13	19	48	44	-0.44446298338	-0.461736125964	0.359867309806	-0.46337890625	0.8408203125	0.2744140625	34.9375	27.625	105.5
18	12	13	19	48	44	-0.457711883622	-0.460702666699	0.370918137988	-0.34521484375	1.0380859375	0.3330078125	34.5	32.4375	119.625
18	12	13	19	48	44	-0.473270994276	-0.458378277923	0.380618767128	-0.26171875	1.01806640625	0.302734375	21.1875	38.375	129.1875
18	12	13	19	48	44	-0.488947938252	-0.456477547146	0.389522624132	-0.17724609375	0.9580078125	0.30517578125	21.4375	44.5	127.9375
18	12	13	19	48	44	-0.503050654022	-0.455443336607	0.399840431266	-0.08447265625	1.0205078125	0.29638671875	35.5	43.5625	126.6875
18	12	13	19	48	44	-0.515690649653	-0.454777018649	0.411563741343	-0.04150390625	1.01416015625	0.26513671875	47.875	40.0625	127.125
18	12	13	19	48	44	-0.52631633622	-0.453927240226	0.425362234387	-0.01904296875	0.93603515625	0.2197265625	60.75	29.6875	128.0625
18	12	13	19	48	44	-0.533946031545	-0.454110479503	0.440743517808	0.03759765625	0.8671875	0.18603515625	77.8125	22.4375	120.75
18	12	13	19	48	44	-0.538512153455	-0.456358990296	0.458006936363	0.0986328125	0.87158203125	0.1455078125	102.1875	19.4375	114.6875
18	12	13	19	48	44	-0.541191231657	-0.460259735867	0.475396244883	0.171875	0.95458984375	0.087890625	114.625	21.6875	107.375
18	12	13	19	48	44	-0.543833006273	-0.463875516013	0.490365249427	0.21435546875	1.00244140625	0.0283203125	102.875	25.1875	98.0625
18	12	13	19	48	44	-0.548087844346	-0.465020187758	0.502739373483	0.2080078125	1.00830078125	0.02392578125	76.5625	26.5625	91.6875
18	12	13	19	48	44	-0.553238572353	-0.463697422128	0.512160730429	0.224609375	0.9677734375	0.05126953125	51.1875	21.3125	83.1875
18	12	13	19	48	44	-0.559443534249	-0.460384309278	0.519587912619	0.32568359375	0.935546875	0.0830078125	32.75	18.875	73.875
18	12	13	19	48	44	-0.566017198348	-0.457379004143	0.525186326481	0.4140625	0.89306640625	0.08056640625	26.25	24.8125	61.6875
18	12	13	19	48	44	-0.572572257621	-0.455689636009	0.528138550815	0.4189453125	0.869140625	0.07080078125	19.0625	32.6875	47.0
18	12	13	19	48	44	-0.578428958312	-0.455260272243	0.529417831001	0.36962890625	0.84814453125	0.0634765625	16.4375	35.875	37.1875
18	12	13	19	48	44	-0.583131605476	-0.456483282118	0.530275004017	0.34814453125	0.857421875	0.03759765625	22.125	37.5625	30.4375
18	12	13	19	48	44	-0.586865068199	-0.458627573838	0.530650535926	0.337890625	0.87060546875	-0.00732421875	21.875	37.0625	23.0625
18	12	13	19	48	44	-0.591065548567	-0.460144895771	0.529664067582	0.3193359375	0.869140625	-0.00537109375	10.625	37.25	18.8125
18	12	13	19	48	44	-0.595823395207	-0.460508862614	0.527342156791	0.34326171875	0.83203125	0.01171875	-3.875	35.375	11.0
18	12	13	19	48	44	-0.599301951021	-0.462522678973	0.524167955532	0.35205078125	0.78955078125	0.001953125	0.0625	35.375	-4.0625
18	12	13	19	48	44	-0.600877961443	-0.466115286088	0.521350893514	0.35107421875	0.86181640625	-0.01953125	8.0625	30.9375	-12.0625
18	12	13	19	48	44	-0.60249672299	-0.468642471798	0.517960408398	0.33544921875	0.98583984375	-0.04736328125	-5.1875	26.4375	-14.25
18	12	13	19	48	44	-0.606076366231	-0.468808919338	0.51312024279	0.29736328125	0.93798828125	-0.0185546875	-25.125	26.9375	-11.0
18	12	13	19	48	44	-0.610599986329	-0.469424679614	0.50738881311	0.279296875	0.86962890625	0.03857421875	-22.1875	35.375	-9.3125
18	12	13	19	48	44	-0.614624735521	-0.471497128292	0.501831636093	0.27734375	0.8994140625	0.04931640625	-11.0625	40.4375	-9.375
18	12	13	19	48	45	-0.618693643104	-0.473251505241	0.496138958744	0.26611328125	0.95068359375	0.08251953125	-11.8125	38.625	-8.125
18	12	13	19	48	45	-0.622809682094	-0.473577060306	0.49030087968	0.24853515625	0.94091796875	0.111328125	-21.375	31.1875	-9.875
18	12	13	19	48	45	-0.626950486976	-0.472715296109	0.484678136398	0.25537109375	0.91552734375	0.154296875	-25.875	24.5625	-10.75
18	12	13	19	48	45	-0.630064905164	-0.471251683887	0.481078328248	0.26416015625	0.89208984375	0.2109375	-16.1875	13.25	-6.0
18	12	13	19	48	45	-0.631591265129	-0.46972616703	0.480224205067	0.29443359375	0.923828125	0.2490234375	-2.25	0.3125	-0.625
18	12	13	19	48	45	-0.631842158612	-0.469242901411	0.48041244498	0.3115234375	0.91796875	0.22021484375	6.6875	-2.4375	-2.625
18	12	13	19	48	45	-0.631771940428	-0.470334709008	0.479489939523	0.2490234375	0.92724609375	0.19970703125	9.5	3.9375	-6.9375
18	12	13	19	48	45	-0.631654322719	-0.472169083057	0.477540189483	0.185546875	0.93505859375	0.173828125	6.9375	8.25	-8.8125
18	12	13	19	48	45	-0.631874367234	-0.472761407185	0.475629956906	0.17724609375	0.95556640625	0.16748046875	-1.6875	3.75	-7.375
18	12	13	19	48	45	-0.632771862534	-0.471145558686	0.474868823238	0.23291015625	0.9404296875	0.166015625	-9.4375	-3.125	-1.125
18	12	13	19	48	45	-0.633174157372	-0.469112837244	0.475704586713	0.2548828125	0.919921875	0.15283203125	-5.4375	-9.25	3.6875
18	12	13	19	48	45	-0.633253421671	-0.467661466683	0.47681693784	0.26904296875	0.88134765625	0.12548828125	-1.6875	-7.8125	2.875
18	12	13	19	48	45	-0.632678423698	-0.46776456099	0.478140340657	0.2763671875	0.8935546875	0.11962890625	8.5625	-4.0	1.0
18	12	13	19	48	45	-0.631348332438	-0.469360854258	0.479370630604	0.2724609375	0.90478515625	0.0869140625	15.0625	-0.875	-2.75
18	12	13	19	48	45	-0.630534057531	-0.470077757342	0.48039236926	0.27880859375	0.93701171875	0.0888671875	8.9375	-1.6875	-1.375
18	12	13	19	48	45	-0.630550833132	-0.469601985299	0.481564812062	0.2998046875	0.95068359375	0.08740234375	2.875	-2.125	3.875
18	12	13	19	48	45	-0.631093472206	-0.468254266805	0.482414197709	0.29443359375	0.9306640625	0.07763671875	-4.5625	-3.375	4.5625
18	12	13	19	48	45	-0.631532620309	-0.467103425459	0.482606400772	0.271484375	0.873046875	0.08349609375	-6.5625	-2.5625	-0.1875
18	12	13	19	48	45	-0.631786451505	-0.466988517097	0.482918984089	0.28173828125	0.87548828125	0.0869140625	1.25	1.375	0.1875
18	12	13	19	48	45	-0.631637642206	-0.467640121227	0.48332577917	0.29248046875	0.95849609375	0.0859375	5.9375	2.75	-0.3125
18	12	13	19	48	45	-0.631757776294	-0.467638690171	0.484239802639	0.3115234375	0.98876953125	0.078125	4.1875	1.25	4.125
18	12	13	19	48	45	-0.632112923372	-0.467325350416	0.483987205015	0.28271484375	0.998046875	0.0751953125	-4.5625	1.3125	-1.0625
18	12	13	19	48	45	-0.632327278685	-0.467226382079	0.482912493143	0.2529296875	1.0009765625	0.0908203125	-7.0	1.3125	-5.6875
18	12	13	19	48	45	-0.63292930055	-0.466976092431	0.481685442617	0.25537109375	0.94140625	0.11279296875	-6.75	3.125	-5.4375
18	12	13	19	48	45	-0.633490445014	-0.466923779204	0.48010750944	0.23583984375	0.9345703125	0.12841796875	-6.3125	3.5	-6.5625
18	12	13	19	48	45	-0.633900884138	-0.466911396462	0.479240298696	0.25341796875	0.935546875	0.13671875	-1.875	2.9375	-4.0
18	12	13	19	48	45	-0.633970463987	-0.466856655342	0.479246758759	0.2666015625	0.91796875	0.11767578125	0.3125	-0.375	0.0
18	12	13	19	48	45	-0.634092274133	-0.465940939526	0.479185527406	0.2470703125	0.90673828125	0.1123046875	-5.4375	-4.25	-2.1875
18	12	13	19	48	45	-0.634274322846	-0.464963605797	0.479001624874	0.25732421875	0.88232421875	0.10986328125	-7.1875	-3.75	-3.5625
18	12	13	19	48	45	-0.634634865133	-0.463799801899	0.479058382038	0.2724609375	0.92333984375	0.1064453125	-6.75	-3.5	-1.0
18	12	13	19	48	45	-0.635422204296	-0.461964332371	0.479542047753	0.28955078125	0.916015625	0.09033203125	-9.8125	-3.875	3.4375
18	12	13	19	48	45	-0.63648170724	-0.459660887728	0.479741678069	0.27099609375	0.9013671875	0.10791015625	-12.8125	-4.5625	4.0
18	12	13	19	48	45	-0.637088097312	-0.458071102733	0.479860760784	0.24462890625	0.89892578125	0.10009765625	-10.1875	-4.125	2.75
18	12	13	19	48	45	-0.637422908999	-0.456766856659	0.480325382404	0.25732421875	0.9150390625	0.11279296875	-5.8125	-4.625	2.875
18	12	13	19	48	45	-0.637748506382	-0.45568287383	0.480462842592	0.26171875	0.89404296875	0.1220703125	-5.5625	-3.5625	0.25
18	12	13	19	48	45	-0.638010075066	-0.454718746699	0.48072011396	0.2919921875	0.9423828125	0.1318359375	-3.9375	-3.0625	-0.4375
18	12	13	19	48	45	-0.638165601014	-0.453966692841	0.481736905968	0.30419921875	0.93212890625	0.1240234375	1.0	-3.0625	3.625
18	12	13	19	48	45	-0.638247502311	-0.45318807542	0.481752657143	0.23291015625	0.912109375	0.1103515625	-5.8125	-3.3125	0.5625
18	12	13	19	48	45	-0.638232643528	-0.452689252849	0.480947999522	0.21728515625	0.87451171875	0.15087890625	-5.625	-3.0625	-5.3125
18	12	13	19	48	45	-0.638362270051	-0.452755647695	0.480709555304	0.2685546875	0.875	0.1513671875	2.0625	0.75	-3.0625
18	12	13	19	48	45	-0.638480648107	-0.452630961319	0.481072982351	0.271484375	0.93115234375	0.1376953125	1.9375	0.125	1.9375
18	12	13	19	48	45	-0.638900561887	-0.451344063351	0.481677802294	0.27880859375	0.90283203125	0.13525390625	-3.5	-4.375	3.5
18	12	13	19	48	45	-0.639035141153	-0.450559447181	0.481626198552	0.24169921875	0.8857421875	0.13720703125	-4.4375	-3.25	-0.6875
18	12	13	19	48	45	-0.639054523441	-0.450267929267	0.481762879992	0.26611328125	0.89599609375	0.12890625	-0.6875	-1.625	-0.875
18	12	13	19	48	45	-0.639257368601	-0.450116774244	0.48130452633	0.2626953125	0.8935546875	0.13037109375	-2.6875	0.9375	-3.1875
18	12	13	19	48	45	-0.639828707745	-0.449766073392	0.480710760488	0.28857421875	0.94091796875	0.13525390625	-4.5625	2.625	-2.4375
18	12	13	19	48	45	-0.640607925174	-0.449389877387	0.480333876822	0.29296875	0.91015625	0.1494140625	-1.5	3.625	0.125
18	12	13	19	48	45	-0.641167847088	-0.449458355636	0.479365280441	0.22802734375	0.89453125	0.138671875	-3.3125	4.5625	-1.4375
18	12	13	19	48	45	-0.640979924929	-0.450126351776	0.478385131555	0.203125	0.86083984375	0.142578125	-0.25	2.0625	-5.625
18	12	13	19	48	45	-0.640552007496	-0.451102419	0.478140488492	0.2421875	0.88818359375	0.146484375	5.875	2.0	-4.25
18	12	13	19	48	46	-0.640447490573	-0.45141996	0.478275663407	0.2734375	0.9111328125	0.1220703125	2.5625	1.1875	-1.5625
18	12	13	19	48	46	-0.640751395544	-0.450686635997	0.478762997394	0.283203125	0.8828125	0.13916015625	-0.8125	-1.9375	1.6875
18	12	13	19	48	46	-0.641223170286	-0.45000365834	0.478933772819	0.26904296875	0.8681640625	0.1513671875	-1.0625	-0.6875	1.625
18	12	13	19	48	46	-0.640948525667	-0.450452349245	0.478712435654	0.23583984375	0.86572265625	0.12890625	1.6875	0.5625	-3.5
18	12	13	19	48	46	-0.640341228089	-0.451614216627	0.478226434284	0.23388671875	0.8994140625	0.13037109375	4.25	2.0625	-6.4375
18	12	13	19	48	46	-0.640126730688	-0.45195828001	0.478508158714	0.275390625	0.94970703125	0.1240234375	2.875	0.5	-1.0
18	12	13	19	48	46	-0.640557862003	-0.450984472829	0.478999342639	0.28369140625	0.9189453125	0.126953125	-3.0625	-2.0	3.3125
18	12	13	19	48	46	-0.64099642374	-0.450015866714	0.478458480832	0.21875	0.88330078125	0.13623046875	-8.1875	-2.0	-0.375
18	12	13	19	48	46	-0.641039497572	-0.449698087985	0.478506108822	0.24658203125	0.87841796875	0.1484375	-0.1875	-1.8125	-0.6875
18	12	13	19	48	46	-0.640743580593	-0.450192860588	0.478635088494	0.24755859375	0.91259765625	0.1337890625	3.5	0.4375	-1.1875
18	12	13	19	48	46	-0.640786699359	-0.449875108199	0.478682739601	0.25390625	0.95458984375	0.13623046875	-1.875	-1.4375	0.3125
18	12	13	19	48	46	-0.641228381193	-0.448725590951	0.479364906329	0.28173828125	0.908203125	0.1591796875	-1.3125	-3.4375	4.125
18	12	13	19	48	46	-0.641285032031	-0.448173216922	0.479605765842	0.24658203125	0.90625	0.14990234375	-1.1875	-3.0	1.3125
18	12	13	19	48	46	-0.641162015674	-0.447928418185	0.479544022575	0.23828125	0.9013671875	0.14599609375	-1.125	-2.5	-1.5
18	12	13	19	48	46	-0.641182737442	-0.447881858862	0.47949848504	0.2275390625	0.8779296875	0.1591796875	0.25	-0.6875	-0.9375
18	12	13	19	48	46	-0.640996864314	-0.447452676851	0.480350916221	0.2666015625	0.9228515625	0.15673828125	3.1875	-4.5	2.5625
18	12	13	19	48	46	-0.640434733577	-0.446711313738	0.482599584332	0.29443359375	0.91357421875	0.15576171875	8.125	-8.9375	7.5
18	12	13	19	48	46	-0.639578373488	-0.446343796671	0.48412402505	0.25634765625	0.89990234375	0.12646484375	4.5625	-8.75	2.5
18	12	13	19	48	46	-0.63867563304	-0.446413759562	0.485293382865	0.2724609375	0.92626953125	0.11474609375	4.6875	-6.25	-0.125
18	12	13	19	48	46	-0.638298575738	-0.446833416808	0.485956517501	0.2861328125	0.921875	0.09033203125	3.375	0.25	0.25
18	12	13	19	48	46	-0.63842874041	-0.447083224045	0.485352327318	0.2568359375	0.92578125	0.0908203125	-3.75	2.9375	-2.875
18	12	13	19	48	46	-0.638840894187	-0.446645425017	0.485768097529	0.3125	0.9189453125	0.1259765625	0.4375	1.0	2.0
18	12	13	19	48	46	-0.63849381094	-0.447147085264	0.486942321354	0.30419921875	0.96533203125	0.10498046875	8.0625	0.0	3.75
18	12	13	19	48	46	-0.638239060531	-0.447322757448	0.486873193636	0.234375	0.94580078125	0.0947265625	-1.9375	-0.25	-0.125
18	12	13	19	48	46	-0.638720904901	-0.447196184445	0.486013814212	0.25341796875	0.8935546875	0.1298828125	-3.9375	2.6875	-2.5
18	12	13	19	48	46	-0.638856470304	-0.447815985729	0.485902012046	0.29541015625	0.99951171875	0.13623046875	4.0	4.1875	0.0
18	12	13	19	48	46	-0.639455095989	-0.447136397177	0.486930682047	0.3271484375	1.00439453125	0.1328125	2.4375	0.6875	8.25
18	12	13	19	48	46	-0.640456749238	-0.445994231076	0.486156295405	0.23876953125	0.94873046875	0.140625	-9.625	0.6875	3.5625
18	12	13	19	48	46	-0.64033320899	-0.447152901445	0.484263052152	0.18505859375	0.931640625	0.1591796875	-1.0625	4.75	-7.875
18	12	13	19	48	46	-0.640008776134	-0.448970489915	0.484309521135	0.2880859375	0.96630859375	0.13818359375	12.8125	7.4375	-1.125
18	12	13	19	48	46	-0.640198152189	-0.449829381412	0.483703914205	0.255859375	0.994140625	0.13671875	2.875	5.75	-0.125
18	12	13	19	48	46	-0.640817182975	-0.449042005443	0.48371046529	0.2705078125	0.953125	0.14404296875	-3.0	-0.125	3.625
18	12	13	19	48	46	-0.640852941376	-0.448902227031	0.484545857294	0.28076171875	0.94921875	0.1416015625	4.6875	-1.125	5.25
18	12	13	19	48	46	-0.640504732363	-0.44928104964	0.484498433914	0.24951171875	0.9208984375	0.0927734375	-0.125	0.125	-2.0625
18	12	13	19	48	46	-0.640452194416	-0.449592191372	0.484077609255	0.29296875	0.97119140625	0.1171875	-1.125	1.6875	-4.3125
18	12	13	19	48	46	-0.640811786557	-0.44928236602	0.484927102028	0.33935546875	0.9853515625	0.11083984375	1.875	1.25	4.5625
18	12	13	19	48	46	-0.641294652301	-0.448179940216	0.485899564763	0.32275390625	0.98681640625	0.08447265625	-4.25	-1.4375	6.5
18	12	13	19	48	46	-0.641371904759	-0.447886090324	0.485423559055	0.2548828125	0.92919921875	0.10009765625	-6.125	-0.5	-2.5625
18	12	13	19	48	46	-0.640849906019	-0.448900100835	0.484848728897	0.236328125	0.90576171875	0.111328125	2.1875	1.9375	-5.625
18	12	13	19	48	46	-0.640324506766	-0.449710319879	0.484927862573	0.2744140625	0.9970703125	0.10888671875	3.25	0.75	-1.9375
18	12	13	19	48	46	-0.640918106547	-0.448844086805	0.484610014854	0.283203125	0.94970703125	0.12109375	-6.875	0.1875	0.3125
18	12	13	19	48	46	-0.641831220955	-0.447804837215	0.484364070892	0.2900390625	0.91796875	0.13916015625	-5.75	0.6875	2.5
18	12	13	19	48	46	-0.642264138455	-0.44762569528	0.484002149382	0.27685546875	0.9033203125	0.15283203125	-0.5	2.125	-0.875
18	12	13	19	48	46	-0.642125118871	-0.449322794899	0.482768718779	0.24853515625	0.9228515625	0.13232421875	4.75	8.0625	-6.625
18	12	13	19	48	46	-0.642215735997	-0.45068627586	0.481509213199	0.2412109375	0.98779296875	0.134765625	2.4375	8.125	-4.1875
18	12	13	19	48	46	-0.642996309556	-0.450494139614	0.480950253375	0.263671875	0.94921875	0.134765625	-2.8125	4.5	2.3125
18	12	13	19	48	46	-0.643366200206	-0.450374650538	0.479671280468	0.2109375	0.9306640625	0.1201171875	-7.8125	2.3125	-3.0
18	12	13	19	48	46	-0.64343043835	-0.450621032663	0.478452969667	0.2080078125	0.89208984375	0.11669921875	-5.875	2.25	-5.4375
18	12	13	19	48	46	-0.643532687431	-0.451217484653	0.477461704645	0.22900390625	0.89697265625	0.12353515625	-1.75	4.3125	-4.3125
18	12	13	19	48	46	-0.643607989158	-0.451349557119	0.477228152416	0.25927734375	0.93896484375	0.1162109375	-1.3125	1.875	-1.0625
18	12	13	19	48	47	-0.643987132332	-0.450870338976	0.477664988876	0.28369140625	0.90087890625	0.1142578125	-1.375	0.3125	3.1875
18	12	13	19	48	47	-0.643805977688	-0.45105481372	0.477483329869	0.2236328125	0.908203125	0.126953125	-0.25	-0.25	-1.25
18	12	13	19	48	47	-0.64329951838	-0.451774481504	0.477042603004	0.22705078125	0.9189453125	0.12646484375	1.1875	0.0625	-4.6875
18	12	13	19	48	47	-0.642934896842	-0.452263868008	0.476616537824	0.244140625	0.9462890625	0.12158203125	-0.625	0.625	-4.6875
18	12	13	19	48	47	-0.643492765381	-0.451720568774	0.47576838719	0.24658203125	0.9365234375	0.140625	-7.0	1.1875	-2.0
18	12	13	19	48	47	-0.644347306799	-0.450683007806	0.475646354256	0.27734375	0.90087890625	0.14599609375	-5.3125	0.6875	2.25
18	12	13	19	48	47	-0.644701141457	-0.450613322671	0.474782749161	0.22607421875	0.88720703125	0.15771484375	-3.125	1.8125	-2.4375
18	12	13	19	48	47	-0.644275458131	-0.451529920354	0.473929417619	0.193359375	0.89111328125	0.13525390625	1.0625	1.9375	-5.3125
18	12	13	19	48	47	-0.643781894132	-0.452441712287	0.473376220221	0.20166015625	0.94970703125	0.15625	3.25	1.0	-3.5
18	12	13	19	48	47	-0.643880099728	-0.452040574328	0.473708735803	0.234375	0.95654296875	0.14697265625	-0.625	-1.9375	3.625
18	12	13	19	48	47	-0.644172289884	-0.451115917617	0.473638143784	0.22216796875	0.94189453125	0.162109375	-4.875	-3.4375	2.3125
18	12	13	19	48	47	-0.644033404365	-0.451043106355	0.473137504799	0.220703125	0.9140625	0.169921875	-1.25	-1.8125	-3.4375
18	12	13	19	48	47	-0.64380546083	-0.451786881026	0.473088370013	0.23974609375	0.900390625	0.1650390625	6.1875	1.75	-1.4375
18	12	13	19	48	47	-0.643481200446	-0.452505892071	0.472647103885	0.22216796875	0.9375	0.166015625	3.5	1.0	-3.1875
18	12	13	19	48	47	-0.643384183293	-0.452401438817	0.473275871099	0.26806640625	0.927734375	0.17041015625	4.75	-1.875	1.375
18	12	13	19	48	47	-0.643310008857	-0.452270129567	0.473815521704	0.25	0.92041015625	0.14404296875	2.375	-1.5	2.4375
18	12	13	19	48	47	-0.643130318825	-0.452272531318	0.473390789865	0.203125	0.8935546875	0.13671875	-2.375	-1.5	-2.5625
18	12	13	19	48	47	-0.642826507877	-0.452944883684	0.472903511492	0.22216796875	0.85888671875	0.13525390625	1.875	1.6875	-4.75
18	12	13	19	48	47	-0.6422786139	-0.453617282002	0.47351491843	0.2548828125	0.92626953125	0.13232421875	6.8125	-0.5625	-0.375
18	12	13	19	48	47	-0.641965766965	-0.453306688652	0.475157206296	0.2822265625	0.90771484375	0.12109375	5.5	-4.1875	5.1875
18	12	13	19	48	47	-0.641471178592	-0.453363264946	0.476129083178	0.24169921875	0.90673828125	0.11181640625	3.9375	-3.375	2.5625
18	12	13	19	48	47	-0.640756126664	-0.454230052833	0.476813379834	0.2255859375	0.8974609375	0.10498046875	6.875	-0.5	0.875
18	12	13	19	48	47	-0.640245437411	-0.455190702785	0.476796697527	0.22900390625	0.923828125	0.11962890625	5.25	1.4375	-2.125
18	12	13	19	48	47	-0.639951996927	-0.455382150603	0.477354751356	0.2646484375	0.9609375	0.1318359375	4.0625	-1.3125	1.1875
18	12	13	19	48	47	-0.640178687303	-0.454698371666	0.478013106965	0.27001953125	0.9423828125	0.13134765625	-0.5625	-2.375	3.875
18	12	13	19	48	47	-0.640378371204	-0.454466007623	0.477354102286	0.21875	0.89990234375	0.1376953125	-3.625	0.125	-2.0625
18	12	13	19	48	47	-0.640068593497	-0.455378256516	0.476801359054	0.2177734375	0.86767578125	0.12890625	3.125	2.5625	-4.3125
18	12	13	19	48	47	-0.639456428767	-0.456536612311	0.476616899135	0.22900390625	0.91650390625	0.138671875	6.8125	1.75	-4.0
18	12	13	19	48	47	-0.639344650277	-0.456666030871	0.476990782045	0.255859375	0.9130859375	0.12744140625	3.25	-0.3125	0.5
18	12	13	19	48	47	-0.639293128212	-0.456489717958	0.477425133557	0.24853515625	0.9248046875	0.12109375	0.6875	-1.5625	1.9375
18	12	13	19	48	47	-0.639281028665	-0.456481078231	0.477355062554	0.22119140625	0.87841796875	0.10595703125	-1.25	0.0625	-0.1875
18	12	13	19	48	47	-0.639054588912	-0.457287199631	0.47657480709	0.20703125	0.8798828125	0.09912109375	-0.375	3.1875	-4.75
18	12	13	19	48	47	-0.638903977179	-0.457999182723	0.476309384591	0.24267578125	0.943359375	0.1220703125	2.8125	2.9375	-2.0
18	12	13	19	48	47	-0.639090775259	-0.457940797132	0.476617311049	0.25439453125	0.93994140625	0.1015625	0.3125	1.0625	2.6875
18	12	13	19	48	47	-0.639083395103	-0.457996542532	0.476123537886	0.20068359375	0.9384765625	0.10107421875	-4.0625	0.625	-0.4375
18	12	13	19	48	47	-0.638965897826	-0.458304988707	0.475577636437	0.2001953125	0.8896484375	0.109375	-1.6875	0.6875	-2.6875
18	12	13	19	48	47	-0.638680172755	-0.459478625812	0.474615541221	0.20556640625	0.91162109375	0.123046875	2.4375	4.6875	-5.4375
18	12	13	19	48	47	-0.638728038256	-0.460079498555	0.474178512108	0.236328125	0.96728515625	0.12548828125	1.5625	3.8125	-1.4375
18	12	13	19	48	47	-0.639220106734	-0.460082227114	0.473815113967	0.21826171875	0.9189453125	0.13427734375	-0.375	3.25	2.1875
18	12	13	19	48	47	-0.63919042386	-0.460182927137	0.473671047415	0.173828125	0.92431640625	0.13623046875	-0.5625	0.625	-0.375
18	12	13	19	48	47	-0.638478996269	-0.460808376047	0.473503494222	0.18505859375	0.90771484375	0.12060546875	2.3125	-1.8125	-3.3125
18	12	13	19	48	47	-0.63770476166	-0.461676762748	0.473334650332	0.2080078125	0.95849609375	0.1201171875	3.3125	-0.875	-3.9375
18	12	13	19	48	47	-0.637809609691	-0.461481192237	0.473443937069	0.23486328125	0.95166015625	0.10791015625	-1.875	-0.125	1.1875
18	12	13	19	48	47	-0.638175564168	-0.460870666128	0.47344375012	0.21923828125	0.9013671875	0.103515625	-4.5625	-0.6875	2.1875
18	12	13	19	48	47	-0.637758616584	-0.460817069117	0.473695532903	0.201171875	0.91259765625	0.13330078125	1.0625	-3.75	0.25
18	12	13	19	48	47	-0.636766247502	-0.461477005402	0.474599285016	0.205078125	0.87646484375	0.09375	6.5	-3.625	-0.0625
18	12	13	19	48	47	-0.635616938347	-0.461728647839	0.475583559016	0.18408203125	0.927734375	0.09912109375	4.0	-7.3125	1.25
18	12	13	19	48	47	-0.634817130951	-0.460198170116	0.478081202456	0.21435546875	0.896484375	0.09375	0.875	-14.8125	9.375
18	12	13	19	48	47	-0.633280615522	-0.458481494198	0.481307915767	0.1953125	0.9462890625	0.0595703125	-0.1875	-20.6875	10.6875
18	12	13	19	48	47	-0.631705973132	-0.455316575803	0.48510135985	0.166015625	0.93603515625	0.06982421875	-6.0	-29.1875	14.8125
18	12	13	19	48	48	-0.631007148315	-0.450780423392	0.488192879328	0.18359375	0.92529296875	0.10693359375	-14.6875	-30.4375	14.4375
18	12	13	19	48	48	-0.631768019514	-0.446040062468	0.490839379087	0.32421875	0.99658203125	0.1533203125	-13.625	-20.75	15.25
18	12	13	19	48	48	-0.633904815886	-0.442683576894	0.491022938938	0.32568359375	0.9462890625	0.15576171875	-15.375	-2.625	10.0
18	12	13	19	48	48	-0.635692090865	-0.441535917938	0.488228615922	0.20068359375	0.91357421875	0.193359375	-16.0	6.0625	-2.9375
18	12	13	19	48	48	-0.635986816188	-0.442383151989	0.487182991057	0.212890625	0.89697265625	0.21533203125	6.25	4.9375	-1.5
18	12	13	19	48	48	-0.635328897305	-0.444284661685	0.487010209587	0.17578125	0.96484375	0.18017578125	13.8125	3.375	1.5625
18	12	13	19	48	48	-0.634580053889	-0.445493874516	0.486082095717	0.140625	0.98193359375	0.12744140625	0.9375	0.5625	-2.6875
18	12	13	19	48	48	-0.634414693491	-0.445750481678	0.485546362009	0.2119140625	0.96923828125	0.1337890625	-1.5	0.25	-1.5625
18	12	13	19	48	48	-0.635059682888	-0.444633329153	0.486197542901	0.28857421875	0.962890625	0.10205078125	-4.6875	-1.0	6.125
18	12	13	19	48	48	-0.635729518528	-0.443167437983	0.485647060189	0.25732421875	0.87109375	0.07568359375	-15.0	-1.5	-1.375
18	12	13	19	48	48	-0.635612798229	-0.443415304315	0.484857698208	0.25537109375	0.87060546875	0.10693359375	-4.25	1.25	-7.75
18	12	13	19	48	48	-0.635252289933	-0.444701016954	0.485777572596	0.3154296875	0.89111328125	0.0869140625	10.8125	5.3125	0.0
18	12	13	19	48	48	-0.634516778148	-0.445858509462	0.48669072614	0.267578125	0.9521484375	0.0537109375	6.4375	1.25	1.125
18	12	13	19	48	48	-0.633842232394	-0.446039387032	0.486749331087	0.2119140625	0.91845703125	0.06689453125	-3.4375	-2.75	-2.4375
18	12	13	19	48	48	-0.633538084664	-0.446528384143	0.486139773058	0.220703125	0.9033203125	0.0703125	-4.125	1.625	-4.8125
18	12	13	19	48	48	-0.633318548174	-0.44660676725	0.486036584339	0.25	0.931640625	0.0966796875	-2.3125	-0.5625	-2.5
18	12	13	19	48	48	-0.633729521749	-0.4456797619	0.486512377719	0.287109375	0.9482421875	0.13916015625	-2.125	-2.125	2.9375
18	12	13	19	48	48	-0.634837540221	-0.443305937374	0.487129930632	0.2646484375	0.98974609375	0.1630859375	-8.625	-5.5	10.6875
18	12	13	19	48	48	-0.636530762122	-0.440548378655	0.486568533477	0.21630859375	0.9384765625	0.1845703125	-15.1875	-3.75	9.3125
18	12	13	19	48	48	-0.6376978746	-0.439515926014	0.484437981499	0.17236328125	0.89599609375	0.205078125	-12.375	1.875	-1.75
18	12	13	19	48	48	-0.638616679206	-0.438480571864	0.483341821909	0.2392578125	0.978515625	0.20703125	-7.5625	0.625	0.375
18	12	13	19	48	48	-0.64019802698	-0.435241884869	0.484436241791	0.3173828125	1.03857421875	0.18359375	-11.25	-6.625	14.8125
18	12	13	19	48	48	-0.641531384882	-0.431451370919	0.485039474423	0.228515625	0.9619140625	0.1533203125	-19.5	-10.9375	13.375
18	12	13	19	48	48	-0.641167032615	-0.430170894419	0.485162945479	0.18359375	0.88037109375	0.158203125	-7.8125	-9.6875	0.875
18	12	13	19	48	48	-0.638794838889	-0.4323736517	0.485657417642	0.1953125	0.87353515625	0.091796875	9.375	-4.6875	-10.375
18	12	13	19	48	48	-0.636966623185	-0.435183214192	0.487246507559	0.30224609375	0.935546875	0.06103515625	18.875	2.375	-3.75
18	12	13	19	48	48	-0.635833846057	-0.437051849838	0.488196864524	0.283203125	0.92919921875	0.04248046875	9.125	3.3125	-2.0625
18	12	13	19	48	48	-0.635258853487	-0.438174799114	0.489444729642	0.306640625	0.97119140625	0.060546875	8.125	2.75	2.625
18	12	13	19	48	48	-0.635551576739	-0.439264832209	0.488092380599	0.25634765625	0.87158203125	0.0576171875	-4.5	9.5	-6.8125
18	12	13	19	48	48	-0.636159525207	-0.440789033008	0.484489524234	0.2470703125	0.90380859375	0.11181640625	-10.5	14.875	-18.4375
18	12	13	19	48	48	-0.637768938727	-0.442269473635	0.480844453947	0.3125	0.95068359375	0.13427734375	-8.6875	21.25	-14.5
18	12	13	19	48	48	-0.640372239167	-0.44268202923	0.476006775949	0.25	0.92041015625	0.1484375	-19.625	23.125	-12.5
18	12	13	19	48	48	-0.641542886212	-0.442872722135	0.472657987901	0.19384765625	0.912109375	0.2060546875	-11.625	9.9375	-10.125
18	12	13	19	48	48	-0.641292972843	-0.443967363135	0.471494072068	0.1533203125	0.884765625	0.19189453125	3.3125	3.125	-4.3125
18	12	13	19	48	48	-0.639399719975	-0.446224833213	0.469418026568	0.0703125	0.9150390625	0.15478515625	0.6875	-1.0625	-16.3125
18	12	13	19	48	48	-0.637400068144	-0.448310207844	0.467597617739	0.10009765625	0.84814453125	0.185546875	3.25	-2.75	-19.1875
18	12	13	19	48	48	-0.635999552415	-0.448983945064	0.469125965438	0.240234375	1.0107421875	0.2119140625	13.75	-7.875	-0.5
18	12	13	19	48	48	-0.636767851006	-0.446646902489	0.472159119657	0.30419921875	1.01513671875	0.18115234375	3.6875	-8.75	19.3125
18	12	13	19	48	48	-0.63836468022	-0.444334532174	0.471373020876	0.1748046875	0.93310546875	0.18212890625	-15.375	-1.5	8.125
18	12	13	19	48	48	-0.638285019174	-0.444687765319	0.471481332293	0.216796875	0.92333984375	0.21630859375	6.9375	0.0	1.0
18	12	13	19	48	48	-0.637742650264	-0.445791206577	0.471974726241	0.255859375	1.02294921875	0.2041015625	11.6875	0.875	-0.25
18	12	13	19	48	48	-0.637450020153	-0.445799975795	0.47149573015	0.19091796875	1.0078125	0.1572265625	-3.5	-1.875	-2.375
18	12	13	19	48	48	-0.636919310544	-0.447949287981	0.468701809839	0.10546875	0.88720703125	0.20703125	1.875	7.5	-13.4375
18	12	13	19	48	48	-0.635936716625	-0.451729306051	0.46906360181	0.158203125	0.9189453125	0.298828125	35.8125	9.875	3.125
18	12	13	19	48	48	-0.636030707809	-0.45262486605	0.474047644905	0.32666015625	0.9462890625	0.2568359375	41.3125	0.9375	28.9375
18	12	13	19	48	48	-0.635328519786	-0.453134684494	0.479197253227	0.35302734375	1.0546875	0.232421875	36.625	-6.0	24.8125
18	12	13	19	48	48	-0.634158947021	-0.453737979995	0.485171267552	0.380859375	1.04833984375	0.14404296875	36.6875	-7.3125	26.3125
18	12	13	19	48	48	-0.637997942811	-0.449277992637	0.490232419082	0.57666015625	1.08447265625	0.0849609375	2.875	4.5625	43.3125
18	12	13	19	48	48	-0.644273724119	-0.442373621866	0.4945575963	0.73046875	1.138671875	0.04541015625	-16.3125	12.25	49.0
18	12	13	19	48	48	-0.651229127502	-0.43480377735	0.497363276477	0.63818359375	0.89990234375	0.095703125	-21.8125	13.5625	47.0
18	12	13	19	48	49	-0.656848126714	-0.425895393813	0.500723102728	0.4833984375	0.8251953125	0.17919921875	-24.5	-5.375	49.4375
18	12	13	19	48	49	-0.658799780928	-0.417105586702	0.508717451735	0.61279296875	1.13720703125	0.20263671875	-5.875	-31.8125	54.875
18	12	13	19	48	49	-0.66120873414	-0.404672196746	0.517467704979	0.69921875	1.3251953125	0.16796875	-28.875	-43.625	63.75
18	12	13	19	48	49	-0.668743806802	-0.384571938182	0.522629663014	0.73388671875	1.28662109375	0.14892578125	-89.6875	-36.75	76.375
18	12	13	19	48	49	-0.679442870869	-0.363036848358	0.523376088546	0.65380859375	1.03955078125	0.19189453125	-108.875	-17.9375	81.6875
18	12	13	19	48	49	-0.689157090187	-0.343693523589	0.526007953524	0.60693359375	0.8798828125	0.232421875	-79.0	-13.375	89.5625
18	12	13	19	48	49	-0.695906423379	-0.328422422751	0.5322750323	0.65576171875	0.8662109375	0.201171875	-38.1875	-17.375	96.5
18	12	13	19	48	49	-0.699872596808	-0.316459354186	0.539903461356	0.6435546875	0.93408203125	0.14892578125	-19.5625	-22.4375	91.4375
18	12	13	19	48	49	-0.702842285592	-0.304392051954	0.545610698298	0.57568359375	0.94970703125	0.125	-37.0625	-25.875	75.375
18	12	13	19	48	49	-0.705027899014	-0.291264231157	0.548958611699	0.4765625	0.87060546875	0.13330078125	-61.875	-32.875	53.8125
18	12	13	19	48	49	-0.706590372909	-0.279169419166	0.549794081296	0.4130859375	0.70166015625	0.1337890625	-71.4375	-29.875	26.3125
18	12	13	19	48	49	-0.707220607407	-0.271242632201	0.548466762593	0.33251953125	0.65380859375	0.10498046875	-63.9375	-18.125	4.25
18	12	13	19	48	49	-0.707839132374	-0.267095286994	0.544505725611	0.20654296875	0.59033203125	0.12548828125	-54.9375	-3.75	-11.375
18	12	13	19	48	49	-0.709480704296	-0.264102116955	0.539007579116	0.1533203125	0.56396484375	0.18994140625	-49.1875	5.875	-10.5
18	12	13	19	48	49	-0.710179816815	-0.264577991225	0.533794489331	0.08447265625	0.560546875	0.193359375	-29.0	9.75	-14.3125
18	12	13	19	48	49	-0.710454182556	-0.266298247293	0.527591576805	-0.20458984375	0.52099609375	0.2958984375	-22.9375	3.9375	-11.5
18	12	13	19	48	49	-0.710558893091	-0.265437263877	0.523916641324	-0.3818359375	0.53076171875	0.34326171875	-20.875	-16.0	15.5625
18	12	13	19	48	49	-0.712283944515	-0.261048708714	0.524538836261	0.09130859375	0.4248046875	0.33984375	-6.9375	-16.4375	33.5
18	12	13	19	48	49	-0.713934341121	-0.258974387397	0.526493769899	0.48095703125	0.361328125	0.326171875	16.125	-3.1875	18.6875
18	12	13	19	48	49	-0.711722081621	-0.264095827731	0.529412343365	0.6953125	0.52978515625	0.18408203125	39.8125	5.1875	-19.625
18	12	13	19	48	49	-0.708990002085	-0.269594424863	0.528019327483	0.54736328125	0.82666015625	0.18310546875	6.625	9.0	-36.4375
18	12	13	19	48	49	-0.711803332162	-0.264835762155	0.519600563085	0.14501953125	0.658203125	0.22705078125	-73.1875	12.4375	-14.5
18	12	13	19	48	49	-0.716876896857	-0.254401269144	0.511976450476	0.22021484375	0.42822265625	0.34765625	-81.625	3.9375	3.8125
18	12	13	19	48	49	-0.719098126253	-0.248834074074	0.510180040515	0.58544921875	0.4765625	0.35693359375	-28.125	-0.5625	-2.1875
18	12	13	19	48	49	-0.718992912553	-0.248534731742	0.510130964611	0.6298828125	0.603515625	0.30078125	-1.5625	3.125	-12.6875
18	12	13	19	48	49	-0.718195463738	-0.249754044159	0.510372267169	0.5048828125	0.6826171875	0.29931640625	5.0	0.4375	-8.4375
18	12	13	19	48	49	-0.716119072368	-0.252195006139	0.513423134472	0.55615234375	0.75439453125	0.26220703125	20.9375	-6.8125	-2.25
18	12	13	19	48	49	-0.71323834199	-0.255181371544	0.518541241961	0.68115234375	0.81982421875	0.22216796875	30.8125	-10.3125	-0.5625
18	12	13	19	48	49	-0.711078143826	-0.256720572784	0.523451172657	0.7568359375	0.8525390625	0.1806640625	21.8125	-7.5	3.625
18	12	13	19	48	49	-0.709841953171	-0.257142231187	0.52746811344	0.76318359375	0.8720703125	0.16796875	12.875	-3.8125	7.9375
18	12	13	19	48	49	-0.70977191719	-0.255735173534	0.530085914592	0.71044921875	0.80615234375	0.18212890625	0.25	-2.125	10.375
18	12	13	19	48	49	-0.709650207425	-0.254697713562	0.530391356543	0.45556640625	0.697265625	0.26171875	-5.75	-5.1875	4.1875
18	12	13	19	48	49	-0.708173002519	-0.255608767952	0.532640333791	0.42822265625	0.72705078125	0.27099609375	13.1875	-11.5625	6.3125
18	12	13	19	48	49	-0.707043800852	-0.255253554486	0.53644751085	0.60205078125	0.7470703125	0.2421875	15.1875	-12.5625	13.0
18	12	13	19	48	49	-0.705877138392	-0.255251032664	0.538029137477	0.41650390625	0.6572265625	0.291015625	8.0	-12.75	3.25
18	12	13	19	48	49	-0.703180547217	-0.25805462665	0.540828298662	0.3857421875	0.74169921875	0.3193359375	26.5625	-17.4375	1.25
18	12	13	19	48	49	-0.700236070133	-0.260063269837	0.546370896873	0.61669921875	0.859375	0.27392578125	35.3125	-20.625	11.5625
18	12	13	19	48	49	-0.699162720872	-0.258485737485	0.549991730928	0.70458984375	0.79443359375	0.279296875	10.8125	-16.25	10.4375
18	12	13	19	48	49	-0.697829781486	-0.259099748308	0.55109814546	0.56396484375	0.72607421875	0.3642578125	11.9375	-12.625	-6.5
18	12	13	19	48	49	-0.695671406613	-0.261166691428	0.554925814084	0.720703125	0.83251953125	0.31640625	32.25	-13.3125	0.9375
18	12	13	19	48	49	-0.694385206758	-0.261836383668	0.556631193252	0.64794921875	0.916015625	0.32373046875	12.375	-10.6875	1.875
18	12	13	19	48	49	-0.694815780648	-0.258663850877	0.559929723442	0.82080078125	0.9013671875	0.291015625	5.8125	-11.4375	22.6875
18	12	13	19	48	49	-0.69569828227	-0.254523761806	0.561844419047	0.75146484375	0.7158203125	0.27099609375	-5.8125	-9.6875	13.75
18	12	13	19	48	49	-0.694416203952	-0.256782013714	0.561722099408	0.43798828125	0.64111328125	0.33154296875	14.375	-7.0	-11.375
18	12	13	19	48	49	-0.69103330344	-0.262387579181	0.565180037967	0.501953125	0.89501953125	0.27880859375	45.0625	-12.375	0.9375
18	12	13	19	48	49	-0.690096256537	-0.261647002014	0.568946431718	0.71630859375	0.96826171875	0.19384765625	13.6875	-11.375	21.8125
18	12	13	19	48	49	-0.691101985612	-0.257141452387	0.569886005445	0.68115234375	0.67333984375	0.24560546875	-13.875	-9.625	10.125
18	12	13	19	48	49	-0.688611211762	-0.261052131954	0.571543643586	0.56298828125	0.736328125	0.244140625	27.0	-7.375	-12.5
18	12	13	19	48	49	-0.686113343467	-0.263373283254	0.57539280214	0.775390625	0.8642578125	0.19873046875	29.6875	-11.75	-0.4375
18	12	13	19	48	50	-0.683971419354	-0.263737328487	0.576669817067	0.533203125	0.73486328125	0.244140625	4.5	-16.875	-8.9375
18	12	13	19	48	50	-0.682238374473	-0.265192855348	0.577259844853	0.47900390625	0.66455078125	0.26318359375	10.8125	-11.5625	-10.8125
18	12	13	19	48	50	-0.681232614351	-0.267219459334	0.578873767092	0.634765625	0.63623046875	0.2607421875	26.0	-4.6875	-6.0625
18	12	13	19	48	50	-0.679285976041	-0.271067393261	0.579672829047	0.58154296875	0.83203125	0.224609375	23.0	-2.9375	-11.25
18	12	13	19	48	50	-0.680033676449	-0.268424709121	0.58030516924	0.75390625	0.79248046875	0.2275390625	-6.1875	-4.5625	4.75
18	12	13	19	48	50	-0.681397970613	-0.265320402925	0.579102825616	0.75537109375	0.62548828125	0.2451171875	-17.125	-0.25	-10.125
18	12	13	19	48	50	-0.681129374282	-0.268179432849	0.576579677315	0.4833984375	0.71875	0.24072265625	1.625	7.75	-20.375
18	12	13	19	48	50	-0.682151120607	-0.268075136158	0.574786784427	0.48193359375	0.70703125	0.20556640625	-7.25	6.75	-1.5
18	12	13	19	48	50	-0.683594573822	-0.266968095169	0.572388385116	0.45654296875	0.64990234375	0.22412109375	-14.75	6.1875	-2.75
18	12	13	19	48	50	-0.684813334456	-0.266845267223	0.571105024109	0.54150390625	0.646484375	0.18896484375	-3.3125	9.0	-1.4375
18	12	13	19	48	50	-0.685294020041	-0.268246100648	0.569755938465	0.5546875	0.64599609375	0.17041015625	1.1875	10.5625	-10.25
18	12	13	19	48	50	-0.685490666263	-0.270326610353	0.568058198816	0.48828125	0.7412109375	0.13818359375	-1.25	11.8125	-8.875
18	12	13	19	48	50	-0.686593079568	-0.269168413272	0.566840601826	0.5322265625	0.72314453125	0.13134765625	-14.625	7.375	1.6875
18	12	13	19	48	50	-0.687984219001	-0.267027231913	0.565853592473	0.58349609375	0.6328125	0.14453125	-15.875	6.375	0.0625
18	12	13	19	48	50	-0.688707267028	-0.267511870913	0.564747283039	0.48095703125	0.64111328125	0.1328125	-4.0	9.4375	-1.9375
18	12	13	19	48	50	-0.689010351445	-0.268121399052	0.564684539956	0.46484375	0.6640625	0.13037109375	1.5	5.75	3.6875
18	12	13	19	48	50	-0.689031511865	-0.26806859776	0.565861559616	0.5322265625	0.68115234375	0.13623046875	5.4375	0.5	7.75
18	12	13	19	48	50	-0.688546375262	-0.268252931414	0.567695225274	0.56103515625	0.7314453125	0.125	7.6875	-1.9375	8.875
18	12	13	19	48	50	-0.688165616042	-0.267820019795	0.569453232609	0.53564453125	0.71044921875	0.1357421875	5.5	-4.1875	10.1875
18	12	13	19	48	50	-0.68760853398	-0.267572857533	0.571399884176	0.529296875	0.73095703125	0.14794921875	7.25	-6.125	11.1875
18	12	13	19	48	50	-0.686814903241	-0.267572783774	0.573841084179	0.5712890625	0.77783203125	0.1396484375	11.0	-6.1875	13.0625
18	12	13	19	48	50	-0.686156129983	-0.266418031256	0.57678130478	0.650390625	0.7919921875	0.15673828125	8.6875	-10.125	15.375
18	12	13	19	48	50	-0.685382231038	-0.265693191888	0.578811977641	0.57861328125	0.7412109375	0.181640625	6.625	-10.1875	8.875
18	12	13	19	48	50	-0.684089867727	-0.266787724111	0.581061343751	0.5576171875	0.7900390625	0.19384765625	18.25	-8.875	8.5625
18	12	13	19	48	50	-0.683093873818	-0.267207378447	0.583547223693	0.62841796875	0.81005859375	0.1845703125	16.3125	-8.5	10.9375
18	12	13	19	48	50	-0.682382436085	-0.266605230843	0.585518310319	0.6650390625	0.82421875	0.20751953125	8.6875	-10.0625	8.8125
18	12	13	19	48	50	-0.681654699557	-0.266057739557	0.586865144721	0.64501953125	0.78125	0.22607421875	6.0	-10.375	2.75
18	12	13	19	48	50	-0.680727913789	-0.266541630011	0.587832021672	0.64453125	0.83056640625	0.2294921875	8.5	-8.1875	-0.25
18	12	13	19	48	50	-0.680414425311	-0.266355270188	0.587885875905	0.615234375	0.8134765625	0.23388671875	0.6875	-5.1875	-0.5
18	12	13	19	48	50	-0.681100922486	-0.265384605338	0.586983383059	0.62890625	0.77880859375	0.26904296875	-4.625	-1.9375	-0.625
18	12	13	19	48	50	-0.6824829555	-0.264460619405	0.585255684161	0.67578125	0.78515625	0.2958984375	-5.75	3.625	-3.125
18	12	13	19	48	50	-0.684056272162	-0.264394340739	0.582314497921	0.64404296875	0.83935546875	0.29931640625	-9.3125	9.125	-7.25
18	12	13	19	48	50	-0.686849225301	-0.262825270074	0.577409905923	0.54443359375	0.76806640625	0.30419921875	-27.125	13.9375	-8.25
18	12	13	19	48	50	-0.689627056413	-0.261471131045	0.572441115329	0.54150390625	0.78125	0.2939453125	-27.1875	16.0625	-8.1875
18	12	13	19	48	50	-0.692464212846	-0.259529117058	0.568070906035	0.6123046875	0.78515625	0.2587890625	-28.5	16.875	-5.6875
18	12	13	19	48	50	-0.695422733726	-0.257625009572	0.563405937777	0.59326171875	0.74609375	0.23046875	-31.0625	19.625	-7.3125
18	12	13	19	48	50	-0.697558852478	-0.25762498174	0.558645216269	0.50146484375	0.71875	0.19775390625	-25.125	21.5	-12.6875
18	12	13	19	48	50	-0.698935823521	-0.258797300824	0.554583083793	0.4482421875	0.73876953125	0.17919921875	-17.9375	19.5	-11.6875
18	12	13	19	48	50	-0.69983660091	-0.258608728245	0.552557190654	0.51513671875	0.73828125	0.14404296875	-16.1875	11.8125	-4.4375
18	12	13	19	48	50	-0.700269190434	-0.257878264585	0.551401714144	0.52099609375	0.67138671875	0.130859375	-15.8125	6.5	-4.8125
18	12	13	19	48	50	-0.699814916945	-0.258600715428	0.551319391659	0.49755859375	0.65576171875	0.10888671875	-3.8125	4.25	-5.75
18	12	13	19	48	50	-0.698924235132	-0.260257876046	0.551949337027	0.484375	0.6591796875	0.1123046875	4.875	3.0	-4.1875
18	12	13	19	48	50	-0.697870940823	-0.261838930919	0.553279699017	0.48193359375	0.70654296875	0.13916015625	9.25	-0.9375	1.625
18	12	13	19	48	50	-0.69671635661	-0.261718768037	0.55633548756	0.58251953125	0.71533203125	0.13623046875	10.3125	-8.25	9.0625
18	12	13	19	48	50	-0.694951978189	-0.2623312491	0.559696964693	0.587890625	0.703125	0.15185546875	15.6875	-10.9375	4.8125
18	12	13	19	48	50	-0.693308324923	-0.263858780583	0.562447065249	0.5205078125	0.693359375	0.1689453125	19.375	-8.25	4.75
18	12	13	19	48	50	-0.691355688196	-0.266300420906	0.565194109005	0.50390625	0.78515625	0.18896484375	24.3125	-8.6875	6.4375
18	12	13	19	48	50	-0.689927017256	-0.266779104072	0.568469589413	0.603515625	0.82861328125	0.20166015625	18.5	-11.875	12.625
18	12	13	19	48	50	-0.689161017026	-0.266057291047	0.570994713868	0.66796875	0.8251953125	0.2314453125	10.4375	-11.0625	10.9375
18	12	13	19	48	50	-0.688801453029	-0.266120898113	0.571549561911	0.5791015625	0.7685546875	0.2587890625	5.8125	-5.1875	1.1875
18	12	13	19	48	50	-0.68811378015	-0.268372919223	0.571291909012	0.54443359375	0.8759765625	0.2705078125	11.625	-0.5625	-2.6875
18	12	13	19	48	51	-0.688671638704	-0.267521740002	0.571360029239	0.68701171875	0.8876953125	0.26611328125	-0.6875	-0.625	6.0
18	12	13	19	48	51	-0.689778400679	-0.265449629639	0.570146008384	0.67724609375	0.81787109375	0.27099609375	-13.8125	0.6875	-0.8125
18	12	13	19	48	51	-0.690429000763	-0.264831279554	0.569152265923	0.67236328125	0.79052734375	0.228515625	-7.4375	4.1875	-4.625
18	12	13	19	48	51	-0.691287670444	-0.265015986674	0.56689739388	0.53662109375	0.7529296875	0.22265625	-10.375	8.1875	-7.25
18	12	13	19	48	51	-0.692016461064	-0.264892524344	0.56524646727	0.509765625	0.77734375	0.203125	-10.0	6.0625	-1.4375
18	12	13	19	48	51	-0.692763889988	-0.263372351128	0.564526274757	0.56982421875	0.73681640625	0.1884765625	-12.5625	2.1875	1.875
18	12	13	19	48	51	-0.692989140673	-0.262327578528	0.564388813088	0.60009765625	0.72998046875	0.15625	-9.75	1.0625	-1.0
18	12	13	19	48	51	-0.69311913073	-0.261903327753	0.563357659091	0.45947265625	0.6474609375	0.17138671875	-10.5625	1.25	-4.6875
18	12	13	19	48	51	-0.69233633682	-0.262639800523	0.56385463101	0.49072265625	0.7275390625	0.16943359375	2.4375	-2.3125	-0.625
18	12	13	19	48	51	-0.691529643166	-0.261963391745	0.565674910226	0.55615234375	0.6953125	0.17529296875	3.3125	-8.75	5.0
18	12	13	19	48	51	-0.69029491771	-0.261774969236	0.567860646717	0.5751953125	0.68310546875	0.1845703125	8.3125	-10.25	2.125
18	12	13	19	48	51	-0.688711116645	-0.26317993043	0.569755252914	0.509765625	0.66064453125	0.19775390625	16.0	-9.0625	-1.375
18	12	13	19	48	51	-0.686782619503	-0.265630817639	0.571362611195	0.44580078125	0.69189453125	0.21826171875	20.1875	-9.25	-2.75
18	12	13	19	48	51	-0.685095365769	-0.266592120951	0.574564612325	0.59765625	0.771484375	0.2109375	22.125	-12.75	7.8125
18	12	13	19	48	51	-0.684033347441	-0.266179122708	0.576426423952	0.54736328125	0.67822265625	0.2275390625	9.1875	-12.875	3.0
18	12	13	19	48	51	-0.682376191397	-0.267945570683	0.578066628687	0.52001953125	0.7099609375	0.24072265625	19.3125	-10.3125	-2.375
18	12	13	19	48	51	-0.680975524579	-0.269716845309	0.580022444212	0.5703125	0.748046875	0.21728515625	21.375	-7.6875	1.3125
18	12	13	19	48	51	-0.680120783802	-0.270449178231	0.58057156022	0.525390625	0.7646484375	0.224609375	7.1875	-6.6875	-0.625
18	12	13	19	48	51	-0.67962830041	-0.270264401816	0.581422468766	0.60400390625	0.7841796875	0.22216796875	5.375	-6.5	2.0625
18	12	13	19	48	51	-0.679376995479	-0.269834309318	0.582514962254	0.70361328125	0.8154296875	0.1904296875	4.4375	-4.0	2.0625
18	12	13	19	48	51	-0.679689943425	-0.269471183569	0.581606094729	0.59619140625	0.72802734375	0.18798828125	-6.1875	1.5625	-6.3125
18	12	13	19	48	51	-0.679068246389	-0.271785987881	0.580131555089	0.4716796875	0.78564453125	0.21044921875	2.4375	2.75	-11.5625
18	12	13	19	48	51	-0.6789813098	-0.271555901411	0.580894024215	0.68212890625	0.82421875	0.15576171875	1.9375	-0.3125	2.0625
18	12	13	19	48	51	-0.679393337682	-0.270390125409	0.5806978901	0.7119140625	0.7998046875	0.14990234375	-8.625	1.75	-3.0
18	12	13	19	48	51	-0.680177542284	-0.26995919504	0.579530309044	0.64599609375	0.720703125	0.1513671875	-8.875	7.1875	-7.0
18	12	13	19	48	51	-0.6802267576	-0.271419326249	0.578604725173	0.58056640625	0.75927734375	0.16064453125	2.0	7.0	-7.875
18	12	13	19	48	51	-0.680557984897	-0.271124535328	0.578382732276	0.61376953125	0.76806640625	0.150390625	-3.8125	3.0625	-0.5625
18	12	13	19	48	51	-0.681286932821	-0.269841384161	0.577708369392	0.58984375	0.70703125	0.14404296875	-11.0	3.1875	-0.75
18	12	13	19	48	51	-0.681432922836	-0.270253916912	0.576822440996	0.51513671875	0.6943359375	0.15185546875	-4.1875	3.875	-5.25
18	12	13	19	48	51	-0.681697806442	-0.270201109242	0.576717931155	0.5498046875	0.71875	0.14404296875	-1.375	3.0	1.1875
18	12	13	19	48	51	-0.681758582202	-0.26934651954	0.577083920745	0.5771484375	0.74755859375	0.15478515625	-3.8125	-1.8125	3.125
18	12	13	19	48	51	-0.681702211236	-0.268249728569	0.577393044883	0.56103515625	0.68505859375	0.16943359375	-5.0	-4.1875	-0.0625
18	12	13	19	48	51	-0.68109673967	-0.268984078477	0.578068574372	0.546875	0.69677734375	0.15771484375	6.1875	-1.5625	-1.75
18	12	13	19	48	51	-0.680374247784	-0.270635993063	0.577954943238	0.45849609375	0.7275390625	0.1796875	6.625	-0.6875	-3.25
18	12	13	19	48	51	-0.67999657943	-0.270631436423	0.578860744934	0.54296875	0.748046875	0.18798828125	5.875	-4.4375	4.6875
18	12	13	19	48	51	-0.679555744075	-0.269771545609	0.580802268782	0.6708984375	0.79443359375	0.177734375	6.1875	-7.1875	7.75
18	12	13	19	48	51	-0.679989348487	-0.268858547714	0.580075286601	0.50244140625	0.625	0.20947265625	-5.5	-1.75	-2.8125
18	12	13	19	48	51	-0.678694517433	-0.271355739614	0.581223731071	0.54150390625	0.7919921875	0.19970703125	19.3125	-3.125	-0.75
18	12	13	19	48	51	-0.677440832147	-0.27197732661	0.583506113643	0.62353515625	0.93701171875	0.16064453125	12.8125	-8.375	10.75
18	12	13	19	48	51	-0.678655270972	-0.267458170465	0.584111066031	0.62060546875	0.74462890625	0.19140625	-17.375	-8.25	15.8125
18	12	13	19	48	51	-0.678583121252	-0.267209651452	0.585017018996	0.61328125	0.69091796875	0.17431640625	6.0	-2.1875	2.1875
18	12	13	19	48	51	-0.677069729112	-0.271548113659	0.585027797127	0.51220703125	0.80224609375	0.17529296875	20.9375	2.6875	-10.375
18	12	13	19	48	51	-0.676590209513	-0.27313858255	0.584913304264	0.53076171875	0.83935546875	0.181640625	7.25	0.8125	0.0
18	12	13	19	48	51	-0.676882251844	-0.271424289806	0.58545126778	0.6259765625	0.82861328125	0.17041015625	-6.1875	-4.0625	8.125
18	12	13	19	48	51	-0.67798720156	-0.268985379661	0.585517755182	0.7109375	0.69482421875	0.18115234375	-8.3125	-0.625	2.375
18	12	13	19	48	51	-0.677795819204	-0.270202799785	0.585144396102	0.587890625	0.666015625	0.2041015625	7.375	1.8125	-9.5
18	12	13	19	48	51	-0.676871443262	-0.272945815534	0.584648472047	0.47900390625	0.7685546875	0.1533203125	8.8125	2.8125	-7.6875
18	12	13	19	48	51	-0.676758072175	-0.273498640099	0.583069071383	0.419921875	0.74560546875	0.2099609375	-6.3125	-0.625	-6.0625
18	12	13	19	48	51	-0.677481302654	-0.271419761523	0.583427366853	0.646484375	0.6982421875	0.1640625	-6.3125	-1.875	4.125
18	12	13	19	48	51	-0.677933741095	-0.272162289686	0.582472467027	0.60498046875	0.7509765625	0.1259765625	-2.625	8.625	-5.3125
18	12	13	19	48	52	-0.678768875115	-0.271666240728	0.581662384664	0.58154296875	0.73974609375	0.14453125	-6.4375	5.6875	0.6875
18	12	13	19	48	52	-0.678948490647	-0.270993464444	0.581842499221	0.58154296875	0.7490234375	0.14697265625	-3.3125	0.0	2.5625
18	12	13	19	48	52	-0.678523047121	-0.270933147987	0.582515423381	0.55126953125	0.7783203125	0.14453125	0.9375	-3.3125	3.375
18	12	13	19	48	52	-0.678282743857	-0.271850206167	0.582030436913	0.4189453125	0.72998046875	0.15625	0.75	0.625	1.0
18	12	13	19	48	52	-0.677475017347	-0.272882054285	0.582567481133	0.45849609375	0.7861328125	0.1572265625	5.8125	-3.3125	4.125
18	12	13	19	48	52	-0.677007907714	-0.273073690868	0.583684332985	0.57177734375	0.80517578125	0.15087890625	6.125	-3.4375	6.625
18	12	13	19	48	52	-0.676447033607	-0.272641784636	0.584650918968	0.65087890625	0.857421875	0.15771484375	0.625	-5.375	2.375
18	12	13	19	48	52	-0.676329373413	-0.272643562046	0.584227485092	0.56201171875	0.7373046875	0.17333984375	-3.25	-0.6875	-4.4375
18	12	13	19	48	52	-0.675778943999	-0.274535196	0.583494102658	0.513671875	0.8154296875	0.1923828125	4.9375	1.4375	-6.375
18	12	13	19	48	52	-0.676038059746	-0.274846459285	0.583079774716	0.58837890625	0.8369140625	0.18505859375	0.5	2.625	1.25
18	12	13	19	48	52	-0.676756661612	-0.273681175205	0.582274400413	0.58056640625	0.78564453125	0.21435546875	-7.5625	-0.1875	1.4375
18	12	13	19	48	52	-0.67705482893	-0.273739376882	0.581413891678	0.599609375	0.79638671875	0.205078125	-3.125	2.0	-4.125
18	12	13	19	48	52	-0.677842433345	-0.274103220615	0.579455795262	0.52978515625	0.775390625	0.2041015625	-7.0625	7.125	-5.3125
18	12	13	19	48	52	-0.678826454393	-0.273617963949	0.577692176841	0.55810546875	0.8544921875	0.17333984375	-12.8125	6.8125	-0.1875
18	12	13	19	48	52	-0.680654707334	-0.270443060276	0.576347058945	0.61083984375	0.763671875	0.181640625	-21.8125	3.6875	5.3125
18	12	13	19	48	52	-0.681672803965	-0.26890951511	0.574865801821	0.55712890625	0.71484375	0.169921875	-16.1875	4.0	-2.25
18	12	13	19	48	52	-0.681773965795	-0.26959674189	0.573984097971	0.4970703125	0.72216796875	0.15673828125	-3.0	4.5	-4.0
18	12	13	19	48	52	-0.681400795888	-0.270814701841	0.573428921298	0.4599609375	0.7607421875	0.1435546875	-0.5625	2.9375	-2.3125
18	12	13	19	48	52	-0.681325457923	-0.270381777175	0.573844123927	0.51025390625	0.744140625	0.1513671875	-1.9375	-1.9375	4.8125
18	12	13	19	48	52	-0.680616213303	-0.270329944285	0.574779201926	0.52880859375	0.7255859375	0.1572265625	1.9375	-5.125	1.0625
18	12	13	19	48	52	-0.679620397452	-0.271115743645	0.576288800426	0.572265625	0.73828125	0.15185546875	10.0625	-4.5625	0.625
18	12	13	19	48	52	-0.678641273871	-0.272457473384	0.576347652592	0.427734375	0.70458984375	0.1845703125	5.25	-3.75	-4.1875
18	12	13	19	48	52	-0.677504377199	-0.273626317386	0.577892922822	0.5419921875	0.82470703125	0.18115234375	13.1875	-5.8125	4.5
18	12	13	19	48	52	-0.677180823002	-0.272459233338	0.579708288136	0.63720703125	0.76416015625	0.1826171875	4.8125	-7.875	7.875
18	12	13	19	48	52	-0.676437579066	-0.27306521057	0.580370381606	0.53662109375	0.751953125	0.20703125	7.5625	-5.5	-0.8125
18	12	13	19	48	52	-0.675782386646	-0.27423141828	0.581299805854	0.5400390625	0.75	0.18701171875	12.5625	-2.875	1.8125
18	12	13	19	48	52	-0.674928550514	-0.276184815616	0.58197176064	0.55029296875	0.845703125	0.1826171875	13.625	-0.6875	0.5
18	12	13	19	48	52	-0.674929474528	-0.276063122924	0.582216698998	0.5517578125	0.82080078125	0.189453125	1.75	-2.0625	5.25
18	12	13	19	48	52	-0.675426093894	-0.275273060136	0.582162848686	0.568359375	0.7529296875	0.19091796875	-1.625	-0.5	3.875
18	12	13	19	48	52	-0.675302498281	-0.27637108751	0.581673247344	0.49560546875	0.73876953125	0.1748046875	3.5	2.3125	-2.375
18	12	13	19	48	52	-0.674877483787	-0.278142054229	0.581736212171	0.54150390625	0.85498046875	0.162109375	8.8125	2.6875	0.9375
18	12	13	19	48	52	-0.675533811432	-0.276671012579	0.582394617698	0.6435546875	0.79931640625	0.14794921875	-2.8125	0.0	9.0
18	12	13	19	48	52	-0.676008919692	-0.276116319311	0.581772934498	0.54052734375	0.73876953125	0.15673828125	-6.125	1.875	0.125
18	12	13	19	48	52	-0.675660255719	-0.277771438462	0.581421824388	0.50439453125	0.765625	0.14013671875	5.25	3.9375	-2.8125
18	12	13	19	48	52	-0.675244015552	-0.279057727479	0.581736483072	0.537109375	0.81396484375	0.1376953125	6.5	1.75	1.75
18	12	13	19	48	52	-0.675420985984	-0.278200691678	0.582280517467	0.5869140625	0.79052734375	0.12646484375	-2.6875	-0.625	6.1875
18	12	13	19	48	52	-0.675483994552	-0.278079432473	0.582526361616	0.583984375	0.75341796875	0.1328125	-0.25	0.9375	1.0625
18	12	13	19	48	52	-0.674945398334	-0.279548736152	0.582779766982	0.54736328125	0.78564453125	0.13525390625	7.4375	1.625	-1.4375
18	12	13	19	48	52	-0.674679705446	-0.279967053454	0.583005296401	0.5234375	0.7734375	0.13916015625	1.9375	-0.125	1.875
18	12	13	19	48	52	-0.674271197228	-0.280402089261	0.583448752992	0.54443359375	0.80908203125	0.14453125	3.1875	-1.8125	2.6875
18	12	13	19	48	52	-0.673872839171	-0.280205615853	0.584458500851	0.59716796875	0.7998046875	0.14208984375	3.125	-3.5625	4.125
18	12	13	19	48	52	-0.673404013441	-0.280396812993	0.585085731247	0.55419921875	0.77490234375	0.1416015625	3.125	-2.75	1.9375
18	12	13	19	48	52	-0.673047638345	-0.281499565435	0.584667028903	0.47021484375	0.74609375	0.15087890625	2.4375	0.625	-2.4375
18	12	13	19	48	52	-0.672444071516	-0.282906260459	0.585161233877	0.537109375	0.81494140625	0.14599609375	9.3125	0.0625	1.1875
18	12	13	19	48	52	-0.672042577356	-0.282586244043	0.586046029223	0.61083984375	0.83154296875	0.13818359375	1.375	-3.875	3.8125
18	12	13	19	48	52	-0.671991281311	-0.281918958072	0.586054521631	0.55810546875	0.77197265625	0.15234375	-4.5625	-2.75	0.375
18	12	13	19	48	52	-0.671386528666	-0.282836833985	0.586303544942	0.54638671875	0.7978515625	0.150390625	5.0	-1.375	-1.5
18	12	13	19	48	52	-0.671394448565	-0.282901206282	0.586371497033	0.55712890625	0.7607421875	0.16064453125	1.75	-0.625	0.6875
18	12	13	19	48	52	-0.670587349914	-0.284421320706	0.585566126793	0.4365234375	0.78173828125	0.17529296875	1.625	-1.75	-6.6875
18	12	13	19	48	52	-0.670044455767	-0.284485080008	0.586487263205	0.59814453125	0.837890625	0.15087890625	4.375	-4.0625	3.0
18	12	13	19	48	53	-0.670646240988	-0.282528344515	0.586784943653	0.6630859375	0.783203125	0.1279296875	-8.9375	-1.4375	3.4375
18	12	13	19	48	53	-0.670655050138	-0.282837231738	0.585510911538	0.486328125	0.75927734375	0.15966796875	-6.9375	1.125	-6.25
18	12	13	19	48	53	-0.670343961845	-0.283017841307	0.586116094473	0.58984375	0.8037109375	0.1513671875	4.3125	-1.9375	1.9375
18	12	13	19	48	53	-0.670286401705	-0.282347923355	0.586058097721	0.59033203125	0.74609375	0.146484375	-5.0625	-2.0625	-3.25
18	12	13	19	48	53	-0.669445730325	-0.284245875832	0.585276723932	0.5078125	0.8134765625	0.13623046875	1.1875	1.75	-9.875
18	12	13	19	48	53	-0.669856126034	-0.283445271007	0.585200960037	0.6259765625	0.78564453125	0.12451171875	-5.3125	1.6875	0.1875
18	12	13	19	48	53	-0.670166871948	-0.282959345933	0.583802015499	0.48876953125	0.6787109375	0.17236328125	-10.3125	0.4375	-7.9375
18	12	13	19	48	53	-0.669504581682	-0.28393976789	0.583932020508	0.56982421875	0.7587890625	0.1474609375	4.5625	-0.6875	-6.625
18	12	13	19	48	53	-0.669637869938	-0.283944523831	0.583697652923	0.5791015625	0.69775390625	0.13134765625	-1.4375	2.0625	-5.0
18	12	13	19	48	53	-0.669369601195	-0.285216025019	0.581723504057	0.39404296875	0.67529296875	0.1552734375	-6.8125	3.25	-13.5625
18	12	13	19	48	53	-0.668926995693	-0.28649117863	0.581343944705	0.45654296875	0.72802734375	0.1552734375	4.0	0.625	-4.1875
18	12	13	19	48	53	-0.668924553731	-0.285696700366	0.581891121832	0.5810546875	0.73681640625	0.1396484375	-1.25	-2.375	1.0625
18	12	13	19	48	53	-0.669377074562	-0.28503610269	0.580997572058	0.4990234375	0.64501953125	0.1357421875	-8.5625	2.0	-4.9375
18	12	13	19	48	53	-0.66948704584	-0.286617847321	0.579095003276	0.3857421875	0.61328125	0.16357421875	-1.5	6.3125	-12.0
18	12	13	19	48	53	-0.668656523566	-0.289496840828	0.579115754961	0.48095703125	0.7841796875	0.13916015625	14.125	4.3125	-4.5
18	12	13	19	48	53	-0.669127771115	-0.287536343129	0.579284107968	0.53125	0.732421875	0.150390625	-9.1875	-3.75	5.0625
18	12	13	19	48	53	-0.669992329809	-0.285465439238	0.57795002013	0.453125	0.5703125	0.1640625	-16.9375	-0.9375	-5.1875
18	12	13	19	48	53	-0.669001010582	-0.288327777939	0.577449006579	0.41748046875	0.666015625	0.140625	10.5625	3.375	-11.25
18	12	13	19	48	53	-0.668234112808	-0.290170348218	0.577716101363	0.4853515625	0.7998046875	0.13623046875	9.0625	1.0625	-1.8125
18	12	13	19	48	53	-0.669131611137	-0.287721099599	0.57709015628	0.45263671875	0.65673828125	0.15771484375	-15.25	-2.8125	4.125
18	12	13	19	48	53	-0.668761412297	-0.287719384646	0.57720878672	0.482421875	0.70849609375	0.1611328125	0.0	-2.875	-2.0625
18	12	13	19	48	53	-0.668227581637	-0.288214344217	0.57819874688	0.513671875	0.73583984375	0.1533203125	8.5	-3.125	2.1875
18	12	13	19	48	53	-0.666735921148	-0.289179311095	0.580067575484	0.48828125	0.93994140625	0.142578125	10.8125	-8.625	9.8125
18	12	13	19	48	53	-0.667643051699	-0.284109919157	0.582684725713	0.63623046875	0.81201171875	0.1279296875	-11.125	-12.6875	26.4375
18	12	13	19	48	53	-0.668380226432	-0.28215887013	0.580857877359	0.3544921875	0.5087890625	0.21630859375	-16.25	-4.0625	-6.5625
18	12	13	19	48	53	-0.663865458807	-0.290704346814	0.583361777629	0.4287109375	0.98095703125	0.16259765625	52.3125	-4.6875	-10.4375
18	12	13	19	48	53	-0.663583292436	-0.289005416638	0.585396188167	0.58203125	0.91357421875	0.16796875	3.0	-10.5625	16.9375
18	12	13	19	48	53	-0.664469553798	-0.284659318354	0.585614528217	0.59814453125	0.84375	0.22119140625	-18.9375	-11.875	11.25
18	12	13	19	48	53	-0.664176447399	-0.282711386175	0.588554813662	0.77587890625	0.87841796875	0.205078125	10.625	-12.1875	12.3125
18	12	13	19	48	53	-0.664243914149	-0.280883073869	0.59100191314	0.7919921875	0.82373046875	0.18701171875	9.625	-8.1875	9.6875
18	12	13	19	48	53	-0.662900295864	-0.284544809807	0.590085633037	0.33056640625	0.9326171875	0.21533203125	13.125	-0.75	-1.75
18	12	13	19	48	53	-0.66267676844	-0.284248476617	0.591629908491	0.50146484375	1.07958984375	0.1875	8.8125	-7.125	25.75
18	12	13	19	48	53	-0.665025559496	-0.277460186625	0.593005537451	0.7509765625	0.7421875	0.18896484375	-19.1875	-9.5	23.9375
18	12	13	19	48	53	-0.663385395946	-0.28124757609	0.592463155621	0.5498046875	0.93310546875	0.19189453125	14.3125	0.4375	-13.6875
18	12	13	19	48	53	-0.662896028648	-0.282711942243	0.593865975393	0.74609375	1.046875	0.11181640625	13.875	2.5	7.125
18	12	13	19	48	53	-0.664133439012	-0.279056895797	0.593026421601	0.654296875	0.70263671875	0.1845703125	-20.6875	-4.5	-1.625
18	12	13	19	48	53	-0.662461717931	-0.282403756114	0.592577926975	0.54052734375	0.8330078125	0.18359375	12.625	-1.3125	-16.5625
18	12	13	19	48	53	-0.661506623395	-0.284305024153	0.59424510845	0.740234375	0.89306640625	0.13671875	20.1875	-0.5625	-1.5625
18	12	13	19	48	53	-0.660715335602	-0.285343574498	0.593148418603	0.6044921875	0.8583984375	0.1357421875	-6.0	-0.0625	-15.4375
18	12	13	19	48	53	-0.660716773081	-0.28644284675	0.590219971889	0.51025390625	0.8515625	0.150390625	-14.9375	5.875	-18.125
18	12	13	19	48	53	-0.660723609852	-0.286689958011	0.58937156367	0.734375	0.923828125	0.1630859375	-4.5	2.6875	-11.5
18	12	13	19	48	53	-0.661678941739	-0.284239353535	0.588009862993	0.7822265625	0.859375	0.1396484375	-22.8125	1.6875	-11.4375
18	12	13	19	48	53	-0.662981850044	-0.282966659621	0.585648209462	0.72705078125	0.80615234375	0.138671875	-20.875	9.125	-15.0625
18	12	13	19	48	53	-0.663805993904	-0.283808189744	0.583851428621	0.658203125	0.75439453125	0.13916015625	-4.625	11.875	-14.5
18	12	13	19	48	53	-0.664353273206	-0.285333169705	0.582445869196	0.54833984375	0.7529296875	0.11572265625	-0.1875	11.6875	-7.875
18	12	13	19	48	53	-0.664737654482	-0.286988931354	0.580325554937	0.4609375	0.728515625	0.130859375	-4.125	10.75	-11.125
18	12	13	19	48	53	-0.665220166875	-0.288146105865	0.579710170197	0.60546875	0.779296875	0.11572265625	2.6875	10.375	-5.0
18	12	13	19	48	53	-0.666691562967	-0.287233406145	0.578312053384	0.58642578125	0.73486328125	0.09228515625	-12.9375	10.9375	-1.9375
18	12	13	19	48	53	-0.668408816069	-0.286504518549	0.575023235886	0.4072265625	0.67724609375	0.13037109375	-22.0	12.25	-6.125
18	12	13	19	48	53	-0.669875820389	-0.285650919309	0.573499153383	0.4873046875	0.6796875	0.130859375	-11.3125	9.1875	0.5625
18	12	13	19	48	54	-0.67097081701	-0.284916926572	0.572824626366	0.50927734375	0.6875	0.11962890625	-6.875	7.125	3.125
18	12	13	19	48	54	-0.672440574289	-0.28388137524	0.571852204821	0.46044921875	0.68603515625	0.11962890625	-9.5	8.3125	6.75
18	12	13	19	48	54	-0.673602737126	-0.283394120014	0.571243930479	0.4130859375	0.6826171875	0.11767578125	-4.5625	7.125	9.5
18	12	13	19	48	54	-0.674259116214	-0.283021591553	0.57153637768	0.39453125	0.6572265625	0.1337890625	1.25	2.1875	11.6875
18	12	13	19	48	54	-0.674252488825	-0.283140879484	0.572873527665	0.44189453125	0.7294921875	0.12158203125	7.8125	-0.5625	13.5
18	12	13	19	48	54	-0.674329371182	-0.282354061467	0.574657044685	0.46484375	0.74462890625	0.1025390625	4.625	-2.75	18.0625
18	12	13	19	48	54	-0.674127708092	-0.281491805316	0.575556748511	0.35693359375	0.69677734375	0.14208984375	-0.625	-6.75	13.1875
18	12	13	19	48	54	-0.672838423459	-0.281488643776	0.578113710722	0.39111328125	0.7294921875	0.1689453125	13.3125	-13.625	14.875
18	12	13	19	48	54	-0.670949231112	-0.281245706992	0.581839263185	0.4921875	0.740234375	0.1474609375	17.3125	-17.6875	14.0
18	12	13	19	48	54	-0.668640002211	-0.282409611158	0.584533573818	0.42431640625	0.73779296875	0.16357421875	18.0625	-16.0625	5.0625
18	12	13	19	48	54	-0.666015935138	-0.284118784647	0.58752468765	0.45263671875	0.79638671875	0.18603515625	23.75	-17.4375	5.625
18	12	13	19	48	54	-0.663995242595	-0.283749782409	0.591364087278	0.59765625	0.79345703125	0.2080078125	21.3125	-20.9375	10.6875
18	12	13	19	48	54	-0.661571209521	-0.283329970901	0.59504176784	0.62060546875	0.8125	0.20751953125	18.25	-24.0	5.875
18	12	13	19	48	54	-0.659281892623	-0.283682858444	0.597821342181	0.59423828125	0.79443359375	0.20947265625	18.0625	-20.0	0.125
18	12	13	19	48	54	-0.65759503087	-0.284546875247	0.599550398017	0.5732421875	0.77294921875	0.22412109375	17.3125	-14.125	-2.1875
18	12	13	19	48	54	-0.656001978636	-0.285886980641	0.60094859338	0.5869140625	0.904296875	0.20947265625	16.5	-11.25	0.25
18	12	13	19	48	54	-0.656372559348	-0.282837124793	0.602417441024	0.78125	0.87841796875	0.20654296875	-2.0	-11.5625	8.875
18	12	13	19	48	54	-0.656932899981	-0.281560110342	0.60138993436	0.69580078125	0.75390625	0.20458984375	-8.1875	-2.5	-10.5
18	12	13	19	48	54	-0.656512342993	-0.28437067739	0.599687036994	0.61328125	0.8701171875	0.1884765625	6.125	5.8125	-17.4375
18	12	13	19	48	54	-0.657277655394	-0.284785731272	0.598257552063	0.7333984375	0.974609375	0.16259765625	-4.0625	7.3125	-6.375
18	12	13	19	48	54	-0.659970040581	-0.28124867724	0.594967904891	0.69580078125	0.82763671875	0.197265625	-32.4375	7.5	-5.5625
18	12	13	19	48	54	-0.662158656277	-0.279841223986	0.592152574726	0.75146484375	0.81494140625	0.1826171875	-18.375	12.5	-11.125
18	12	13	19	48	54	-0.664164023605	-0.279593401225	0.58994756958	0.767578125	0.763671875	0.12939453125	-9.9375	17.0625	-10.9375
18	12	13	19	48	54	-0.665707777073	-0.281737150359	0.58538583386	0.50390625	0.75927734375	0.123046875	-14.8125	22.875	-20.0625
18	12	13	19	48	54	-0.667107167666	-0.283383218616	0.582147133138	0.515625	0.8251953125	0.10791015625	-10.625	19.875	-9.625
18	12	13	19	48	54	-0.669206562725	-0.281806521352	0.5803371031	0.6708984375	0.77197265625	0.0771484375	-18.8125	14.875	-1.3125
18	12	13	19	48	54	-0.671205864928	-0.280335413078	0.577455550431	0.564453125	0.67236328125	0.07421875	-25.75	15.4375	-8.25
18	12	13	19	48	54	-0.672000976878	-0.281434741542	0.574771407744	0.443359375	0.677734375	0.078125	-13.1875	14.875	-11.8125
18	12	13	19	48	54	-0.672602448199	-0.281736197903	0.574397607986	0.5556640625	0.748046875	0.07080078125	-3.8125	9.3125	0.5625
18	12	13	19	48	54	-0.673171502876	-0.28064580381	0.573743052592	0.47705078125	0.66552734375	0.078125	-13.375	3.9375	-0.25
18	12	13	19	48	54	-0.673322059995	-0.280876370567	0.57322704745	0.40966796875	0.62060546875	0.1025390625	-3.875	3.625	-1.1875
18	12	13	19	48	54	-0.672364008881	-0.283020325815	0.574280406641	0.4267578125	0.708984375	0.0986328125	13.6875	1.25	2.375
18	12	13	19	48	54	-0.671998005328	-0.282715237119	0.576233711926	0.46875	0.734375	0.09619140625	7.0625	-4.125	13.8125
18	12	13	19	48	54	-0.67108642047	-0.281496186558	0.578861629081	0.4990234375	0.73828125	0.10791015625	4.5	-11.5625	13.5
18	12	13	19	48	54	-0.669427737057	-0.281674781776	0.581659950232	0.44970703125	0.6806640625	0.12841796875	13.625	-13.4375	8.25
18	12	13	19	48	54	-0.666809981262	-0.284119035494	0.584656550161	0.4169921875	0.7607421875	0.125	24.9375	-12.5	5.5625
18	12	13	19	48	54	-0.664647184566	-0.285511435206	0.58829515262	0.52587890625	0.86767578125	0.1083984375	23.875	-12.375	13.5625
18	12	13	19	48	54	-0.663935298739	-0.28375024856	0.591059885364	0.62109375	0.7978515625	0.1484375	6.875	-13.5625	13.5
18	12	13	19	48	54	-0.662719324145	-0.283691233986	0.593078253151	0.59375	0.77001953125	0.185546875	12.5	-12.375	2.9375
18	12	13	19	48	54	-0.660836718393	-0.284916024888	0.595833383666	0.65185546875	0.8671875	0.18212890625	22.75	-12.4375	3.0
18	12	13	19	48	54	-0.660775801788	-0.284366752312	0.596199707359	0.6025390625	0.81298828125	0.19677734375	2.8125	-5.25	2.1875
18	12	13	19	48	54	-0.661383545177	-0.283877341142	0.596197348587	0.68359375	0.93017578125	0.20458984375	2.75	-0.3125	5.6875
18	12	13	19	48	54	-0.663836435894	-0.27991484875	0.595231052118	0.712890625	0.716796875	0.197265625	-17.5625	2.3125	6.0
18	12	13	19	48	54	-0.66489909776	-0.281059330382	0.591414747319	0.43505859375	0.67724609375	0.23974609375	-10.0	9.25	-17.5625
18	12	13	19	48	54	-0.664919014674	-0.283875375184	0.590150720845	0.560546875	0.87646484375	0.1728515625	9.6875	9.625	-6.75
18	12	13	19	48	54	-0.667433981593	-0.280462656188	0.589124169212	0.74658203125	0.83935546875	0.1171875	-20.4375	8.8125	8.75
18	12	13	19	48	54	-0.670595432626	-0.276551188243	0.585206972605	0.5615234375	0.61376953125	0.15673828125	-38.5	11.875	-6.5
18	12	13	19	48	54	-0.671273038295	-0.278628970705	0.582831991514	0.48388671875	0.7021484375	0.1435546875	-1.4375	13.6875	-11.5625
18	12	13	19	48	54	-0.671558007314	-0.279475062755	0.582143076775	0.55029296875	0.7646484375	0.09326171875	-2.0625	8.25	-2.5625
18	12	13	19	48	54	-0.672912692914	-0.278625527724	0.578674398324	0.3603515625	0.62744140625	0.14501953125	-24.375	8.625	-9.375
18	12	13	19	48	55	-0.672799529045	-0.28027718746	0.577888591218	0.5361328125	0.7978515625	0.12060546875	1.3125	7.625	-5.625
18	12	13	19	48	55	-0.674212946183	-0.277351405709	0.578385105742	0.7109375	0.65478515625	0.0966796875	-11.625	3.3125	4.5
18	12	13	19	48	55	-0.674566768985	-0.277712522519	0.574956475194	0.39404296875	0.53759765625	0.16455078125	-19.0	6.625	-23.875
18	12	13	19	48	55	-0.672404403986	-0.283255771889	0.574873112566	0.44482421875	0.85107421875	0.17529296875	24.4375	3.625	-13.8125
18	12	13	19	48	55	-0.67272604255	-0.279478547345	0.579831011089	0.87646484375	0.970703125	0.0830078125	6.3125	-9.8125	32.0
18	12	13	19	48	55	-0.676260973349	-0.270016114269	0.577690443389	0.55126953125	0.41064453125	0.150390625	-56.6875	-5.4375	6.6875
18	12	13	19	48	55	-0.674007292176	-0.276609711867	0.574093325202	0.08154296875	0.517578125	0.22412109375	11.0625	5.0625	-35.125
18	12	13	19	48	55	-0.669551131985	-0.287961918022	0.577693843595	0.3857421875	0.94287109375	0.13916015625	76.0	4.3125	-2.1875
18	12	13	19	48	55	-0.671330130208	-0.283632249757	0.580387145027	0.72265625	1.0576171875	0.03759765625	-10.6875	0.1875	40.25
18	12	13	19	48	55	-0.67595408915	-0.273372312894	0.578604493467	0.66162109375	0.69287109375	0.13623046875	-59.0	0.0625	24.125
18	12	13	19	48	55	-0.675852639471	-0.272892364407	0.580209084333	0.74658203125	0.65576171875	0.1875	10.4375	-2.5625	-2.8125
18	12	13	19	48	55	-0.672905420818	-0.277829068078	0.583306767053	0.515625	0.78955078125	0.123046875	38.5625	-5.875	-1.6875
18	12	13	19	48	55	-0.669987251783	-0.282594604697	0.58301159051	0.15625	1.02099609375	0.1328125	11.0625	-5.75	1.8125
18	12	13	19	48	55	-0.671888892941	-0.277288448458	0.585888579518	0.7578125	0.869140625	0.1181640625	-7.125	-5.5	35.5625
18	12	13	19	48	55	-0.673339950356	-0.273864789453	0.586731049925	0.802734375	0.6005859375	0.16796875	-6.0625	-1.0	2.1875
18	12	13	19	48	55	-0.670905161945	-0.280825568605	0.586004408645	0.4462890625	0.86865234375	0.18701171875	28.625	5.25	-20.25
18	12	13	19	48	55	-0.670458211237	-0.28106145314	0.588367515369	0.73193359375	0.93115234375	0.14306640625	15.625	-3.0625	12.375
18	12	13	19	48	55	-0.67145612604	-0.277164100386	0.588630386286	0.7373046875	0.74853515625	0.14306640625	-18.625	-4.8125	2.8125
18	12	13	19	48	55	-0.671703261278	-0.277287407177	0.587107103156	0.47314453125	0.66357421875	0.1845703125	-6.875	1.4375	-8.6875
18	12	13	19	48	55	-0.670833531327	-0.279722506967	0.587765163013	0.54833984375	0.78759765625	0.17236328125	17.875	0.3125	-1.75
18	12	13	19	48	55	-0.67085856292	-0.279061536682	0.588153317469	0.59619140625	0.794921875	0.154296875	-1.3125	-2.5	3.5
18	12	13	19	48	55	-0.670980987049	-0.27808508842	0.587848438668	0.63134765625	0.84130859375	0.14453125	-9.0	-1.25	-1.25
18	12	13	19	48	55	-0.671569520251	-0.276550167796	0.587463113007	0.65625	0.73486328125	0.1494140625	-9.9375	0.3125	-2.75
18	12	13	19	48	55	-0.671208740468	-0.277406904195	0.585941975857	0.49951171875	0.73046875	0.1728515625	-6.1875	0.625	-13.375
18	12	13	19	48	55	-0.670408786391	-0.27856388393	0.585936302745	0.525390625	0.791015625	0.16455078125	3.8125	-2.0625	-5.0625
18	12	13	19	48	55	-0.670038184369	-0.278439988804	0.585932462192	0.57470703125	0.75390625	0.1611328125	-1.8125	-3.0625	-4.375
18	12	13	19	48	55	-0.66978137092	-0.278922987526	0.58494483861	0.478515625	0.69970703125	0.18603515625	-2.875	-1.0	-8.6875
18	12	13	19	48	55	-0.668869557591	-0.280816574001	0.584398760283	0.4775390625	0.74560546875	0.18994140625	6.1875	-1.25	-9.9375
18	12	13	19	48	55	-0.668584769111	-0.281191348484	0.584233468134	0.5615234375	0.77197265625	0.17919921875	1.3125	-1.375	-4.3125
18	12	13	19	48	55	-0.669198451519	-0.280887566024	0.582222184334	0.482421875	0.74365234375	0.19921875	-11.5625	2.875	-7.5
18	12	13	19	48	55	-0.670307582254	-0.280098478871	0.580705366742	0.5439453125	0.77783203125	0.203125	-9.125	4.625	-0.5625
18	12	13	19	48	55	-0.67187284624	-0.278319420317	0.579099706134	0.55517578125	0.7216796875	0.20751953125	-13.25	4.375	0.5
18	12	13	19	48	55	-0.673026331519	-0.277828589922	0.577568529533	0.5205078125	0.77197265625	0.20361328125	-7.5	5.8125	0.9375
18	12	13	19	48	55	-0.674424973649	-0.277094061572	0.575977237677	0.494140625	0.72607421875	0.16943359375	-9.875	8.0625	2.375
18	12	13	19	48	55	-0.675462865056	-0.278009700039	0.573963385108	0.447265625	0.775390625	0.1669921875	-4.9375	11.4375	-0.4375
18	12	13	19	48	55	-0.67701439968	-0.278020247975	0.572276145997	0.49609375	0.8193359375	0.142578125	-8.0625	12.8125	6.5
18	12	13	19	48	55	-0.679074356865	-0.276060876874	0.57110360931	0.58447265625	0.80712890625	0.134765625	-15.4375	10.6875	10.3125
18	12	13	19	48	55	-0.680352805185	-0.274533678812	0.570002229086	0.54541015625	0.720703125	0.146484375	-13.8125	6.1875	2.5625
18	12	13	19	48	55	-0.679998255157	-0.276125312479	0.569889929845	0.50634765625	0.77392578125	0.13427734375	4.4375	4.875	-2.1875
18	12	13	19	48	55	-0.679762894795	-0.277044426639	0.570629730039	0.55615234375	0.8193359375	0.109375	5.125	3.625	5.0
18	12	13	19	48	55	-0.680044093098	-0.27648534749	0.570731674256	0.509765625	0.79345703125	0.14306640625	-4.5625	0.875	7.1875
18	12	13	19	48	55	-0.680094637605	-0.27562661612	0.572187671861	0.59375	0.76318359375	0.14404296875	2.9375	-2.4375	9.5625
18	12	13	19	48	55	-0.6793821711	-0.276611265782	0.573486198873	0.55224609375	0.75146484375	0.15185546875	11.0625	-1.9375	2.625
18	12	13	19	48	55	-0.678477981276	-0.278019719747	0.574838577515	0.556640625	0.82470703125	0.1435546875	11.8125	-1.5625	4.0
18	12	13	19	48	55	-0.678202559492	-0.277945865364	0.576093768813	0.61083984375	0.85009765625	0.16357421875	5.625	-2.5625	7.625
18	12	13	19	48	55	-0.678210264996	-0.276545240344	0.577748233302	0.6611328125	0.79833984375	0.1689453125	2.5625	-5.5	9.4375
18	12	13	19	48	55	-0.677621248468	-0.276737051032	0.578681954308	0.58203125	0.74267578125	0.1767578125	5.875	-4.25	-0.0625
18	12	13	19	48	55	-0.676390930049	-0.279479703004	0.579223057766	0.5322265625	0.81005859375	0.1767578125	16.125	-0.0625	-4.75
18	12	13	19	48	55	-0.676038368267	-0.280645035869	0.579784079105	0.58447265625	0.857421875	0.16552734375	9.0625	0.875	3.0625
18	12	13	19	48	55	-0.676340790881	-0.279728349843	0.580025858293	0.626953125	0.83544921875	0.16748046875	-3.5625	-0.75	4.4375
18	12	13	19	48	56	-0.676584429827	-0.278934672468	0.580086461081	0.6025390625	0.76953125	0.1728515625	-3.0	-1.125	1.125
18	12	13	19	48	56	-0.675819906355	-0.280142090686	0.580669248538	0.56494140625	0.80908203125	0.13232421875	6.0625	-0.4375	-1.25
18	12	13	19	48	56	-0.675029352207	-0.281424985807	0.580854823233	0.52392578125	0.8134765625	0.13134765625	3.75	-0.1875	-2.25
18	12	13	19	48	56	-0.674667725853	-0.28185413045	0.581102896494	0.546875	0.7890625	0.14404296875	2.0	-0.6875	0.0625
18	12	13	19	48	56	-0.674252368261	-0.28265254978	0.581418309048	0.5986328125	0.80078125	0.14501953125	4.25	0.25	-2.4375
18	12	13	19	48	56	-0.67375040664	-0.283928516323	0.58134546818	0.54443359375	0.80908203125	0.16748046875	5.4375	0.75	-3.0625
18	12	13	19	48	56	-0.67375040664	-0.283928516323	0.58134546818	0.57763671875	0.7998046875	0.154296875	-0.0625	0.9375	0.0625
18	12	13	19	48	56	-0.67396243888	-0.28339137871	0.581614569832	0.6240234375	0.783203125	0.1513671875	-1.0	0.125	1.3125
18	12	13	19	48	56	-0.673710035187	-0.284425508604	0.580691907481	0.50048828125	0.77587890625	0.16845703125	-0.875	1.875	-6.1875
18	12	13	19	48	56	-0.673593391922	-0.284794016556	0.580757622702	0.52587890625	0.794921875	0.14892578125	1.625	0.4375	1.6875
18	12	13	19	48	56	-0.674088829549	-0.284186670625	0.580214452526	0.53564453125	0.732421875	0.146484375	-6.0625	2.0	0.3125
18	12	13	19	48	56	-0.674070259253	-0.284850226361	0.579954328452	0.537109375	0.79296875	0.150390625	1.375	2.625	-0.3125
18	12	13	19	48	56	-0.674246974313	-0.28454235487	0.579826763463	0.52783203125	0.716796875	0.146484375	-2.0625	0.4375	0.0
18	12	13	19	48	56	-0.673918725137	-0.285570160742	0.57925761821	0.48828125	0.74609375	0.1552734375	0.875	1.3125	-5.0
18	12	13	19	48	56	-0.673882296738	-0.286313001902	0.578546353662	0.47607421875	0.7158203125	0.14794921875	-0.8125	2.75	-4.3125
18	12	13	19	48	56	-0.673751559892	-0.286980689792	0.578294775793	0.5546875	0.7958984375	0.14794921875	1.1875	2.1875	-2.5625
18	12	13	19	48	56	-0.674211606154	-0.285651848343	0.578139809296	0.57373046875	0.71630859375	0.14892578125	-7.875	-0.5	-0.0625
18	12	13	19	48	56	-0.673889283167	-0.28662114607	0.576782331848	0.43994140625	0.70068359375	0.1640625	-4.375	1.4375	-10.5
18	12	13	19	48	56	-0.673752352991	-0.287286196714	0.576769610995	0.560546875	0.74365234375	0.14013671875	2.75	2.3125	-3.6875
18	12	13	19	48	56	-0.673884749369	-0.287839912872	0.575374651961	0.4931640625	0.7626953125	0.16943359375	-6.0	3.5625	-7.4375
18	12	13	19	48	56	-0.674129707079	-0.286619565817	0.575619490038	0.58935546875	0.79541015625	0.16455078125	-5.1875	-2.0	2.8125
18	12	13	19	48	56	-0.674491344315	-0.284786590587	0.575798691726	0.60009765625	0.68701171875	0.15966796875	-8.4375	-3.25	-1.0625
18	12	13	19	48	56	-0.674235042784	-0.286307285752	0.575116937463	0.51806640625	0.73876953125	0.158203125	3.625	4.375	-8.0
18	12	13	19	48	56	-0.674245237477	-0.287959539279	0.573965982913	0.431640625	0.77001953125	0.17333984375	2.75	5.4375	-3.375
18	12	13	19	48	56	-0.6747411865	-0.286742116163	0.57433872139	0.56689453125	0.828125	0.18017578125	-3.1875	-1.6875	8.8125
18	12	13	19	48	56	-0.675764598735	-0.283684416088	0.574387702194	0.59228515625	0.7275390625	0.16650390625	-14.3125	-3.0625	6.1875
18	12	13	19	48	56	-0.676039946135	-0.284185806176	0.572949347632	0.45703125	0.76171875	0.19970703125	-4.625	3.1875	-4.0625
18	12	13	19	48	56	-0.676381938509	-0.284236661942	0.572684689499	0.50439453125	0.7919921875	0.17822265625	-0.3125	2.0	4.1875
18	12	13	19	48	56	-0.676878480822	-0.283202538414	0.57299686005	0.58740234375	0.86083984375	0.1689453125	-3.5625	-0.0625	8.375
18	12	13	19	48	56	-0.677539737326	-0.280940042421	0.573720703618	0.64501953125	0.80810546875	0.1630859375	-7.8125	-2.5625	8.6875
