18	12	13	19	50	53	-0.343866070797	-0.396294355287	0.444755423837	-0.25927734375	0.892578125	0.2861328125	-19.125	7.4375	8.75
18	12	13	19	50	53	-0.346187365805	-0.395808368696	0.442377649393	-0.27587890625	0.86767578125	0.294921875	-16.8125	7.0	5.8125
18	12	13	19	50	53	-0.348771455458	-0.39497726431	0.440816844823	-0.24560546875	0.9130859375	0.30126953125	-14.0625	6.3125	7.5625
18	12	13	19	50	53	-0.351574537817	-0.393812312152	0.439040911548	-0.23046875	0.88623046875	0.310546875	-16.0	5.6875	7.9375
18	12	13	19	50	53	-0.353952031346	-0.392649321892	0.437877543176	-0.1962890625	0.8603515625	0.31103515625	-11.5	4.6875	6.9375
18	12	13	19	50	53	-0.355835182311	-0.391784911707	0.437561307373	-0.1923828125	0.861328125	0.3095703125	-5.8125	3.5625	6.5625
18	12	13	19	50	53	-0.357424728439	-0.391116403661	0.437564528378	-0.21142578125	0.87255859375	0.30517578125	-3.1875	3.0625	6.9375
18	12	13	19	50	53	-0.358952470249	-0.390569096603	0.437505748469	-0.2333984375	0.88671875	0.298828125	-3.9375	2.625	7.5
18	12	13	19	50	53	-0.360362543279	-0.389965496106	0.437269183613	-0.248046875	0.8837890625	0.30126953125	-4.875	2.0	7.5625
18	12	13	19	50	53	-0.361689772325	-0.38933834925	0.437189307992	-0.22314453125	0.8935546875	0.3017578125	-4.5	1.9375	6.3125
18	12	13	19	50	53	-0.362546088465	-0.389035146107	0.436642208228	-0.22265625	0.85693359375	0.3076171875	-4.125	2.1875	2.375
18	12	13	19	50	53	-0.362432376571	-0.389349297768	0.436530204991	-0.23291015625	0.849609375	0.31201171875	1.75	1.625	-1.5625
18	12	13	19	50	53	-0.361942194628	-0.39001865492	0.436649993317	-0.24658203125	0.900390625	0.31396484375	3.75	1.4375	-3.0
18	12	13	19	50	53	-0.361578727847	-0.39038783648	0.436409166797	-0.24658203125	0.908203125	0.306640625	0.0	1.125	-3.3125
18	12	13	19	50	53	-0.361082438143	-0.390684362163	0.435972254168	-0.2314453125	0.90234375	0.3115234375	-1.1875	0.5	-5.75
18	12	13	19	50	53	-0.360481949488	-0.390939195135	0.435801069987	-0.21435546875	0.890625	0.3154296875	1.0	0.0	-6.25
18	12	13	19	50	53	-0.359499049043	-0.391603717938	0.436037556258	-0.2275390625	0.89013671875	0.32568359375	6.0625	0.75	-6.3125
18	12	13	19	50	53	-0.358658402653	-0.392412333332	0.437275152588	-0.240234375	0.93798828125	0.30517578125	9.8125	0.625	-2.6875
18	12	13	19	50	53	-0.358396490217	-0.392575992009	0.438413145304	-0.234375	0.96435546875	0.29052734375	5.125	-0.6875	-0.1875
18	12	13	19	50	53	-0.35845190805	-0.392325704911	0.438711444757	-0.22314453125	0.9208984375	0.3134765625	1.125	-0.6875	-0.3125
18	12	13	19	50	53	-0.358346384629	-0.392282782151	0.43958621395	-0.19970703125	0.89306640625	0.31005859375	5.5625	0.0625	-0.375
18	12	13	19	50	53	-0.357970054563	-0.392821018102	0.44055035871	-0.2451171875	0.90283203125	0.3056640625	8.375	0.9375	0.3125
18	12	13	19	50	53	-0.357852606513	-0.393131270434	0.441654692262	-0.27099609375	0.91455078125	0.2890625	6.75	-0.0625	4.0
18	12	13	19	50	53	-0.357920583262	-0.393444079077	0.442395700458	-0.28173828125	0.92822265625	0.283203125	4.125	0.625	4.1875
18	12	13	19	50	53	-0.358459017297	-0.39349315248	0.442748461004	-0.2607421875	0.91162109375	0.2763671875	0.25	1.25	4.9375
18	12	13	19	50	54	-0.35908306825	-0.393447128665	0.442338092063	-0.2421875	0.87744140625	0.287109375	-2.9375	2.375	1.8125
18	12	13	19	50	54	-0.359630675204	-0.393933533226	0.441664556309	-0.28173828125	0.88134765625	0.283203125	-3.25	4.1875	2.4375
18	12	13	19	50	54	-0.360908643416	-0.394051446287	0.440927454768	-0.2900390625	0.9248046875	0.2705078125	-6.9375	4.4375	6.25
18	12	13	19	50	54	-0.362794222281	-0.393678118054	0.439332572675	-0.294921875	0.91064453125	0.28369140625	-13.25	4.6875	7.75
18	12	13	19	50	54	-0.364563299287	-0.393188811989	0.43780554927	-0.28759765625	0.89013671875	0.298828125	-12.125	3.8125	7.5
18	12	13	19	50	54	-0.365848039763	-0.392886858852	0.436893605043	-0.255859375	0.8779296875	0.30615234375	-6.75	3.25	5.0625
18	12	13	19	50	54	-0.366350028815	-0.393206745356	0.436543719774	-0.27587890625	0.87939453125	0.30712890625	-0.6875	3.25	3.25
18	12	13	19	50	54	-0.366759509281	-0.393736993572	0.43688876143	-0.28857421875	0.9345703125	0.29443359375	2.0	3.125	4.875
18	12	13	19	50	54	-0.368093827014	-0.393788985557	0.436451493447	-0.267578125	0.9580078125	0.28515625	-6.0625	4.3125	6.0625
18	12	13	19	50	54	-0.369626632885	-0.393674336544	0.434628674501	-0.24853515625	0.91357421875	0.294921875	-13.125	6.125	1.8125
18	12	13	19	50	54	-0.370121650737	-0.394230828184	0.431951009608	-0.27783203125	0.8388671875	0.3291015625	-11.1875	6.375	-4.1875
18	12	13	19	50	54	-0.369032715613	-0.396682702409	0.429887101565	-0.33203125	0.78125	0.33642578125	2.5	9.4375	-9.375
18	12	13	19	50	54	-0.366159732511	-0.401438999955	0.428966594447	-0.39404296875	0.79931640625	0.333984375	18.375	13.5625	-13.875
18	12	13	19	50	54	-0.361885800581	-0.407419078913	0.428293584529	-0.41015625	0.85791015625	0.3193359375	23.625	15.0625	-22.625
18	12	13	19	50	54	-0.357787217579	-0.412901829909	0.424132271402	-0.43408203125	0.861328125	0.330078125	3.1875	15.3125	-33.25
18	12	13	19	50	54	-0.353768289179	-0.418284003751	0.417246381095	-0.42578125	0.8115234375	0.32470703125	-11.5625	17.8125	-42.5625
18	12	13	19	50	54	-0.34936230086	-0.425655605556	0.408565905304	-0.48828125	0.7822265625	0.31884765625	-13.9375	28.25	-50.125
18	12	13	19	50	54	-0.346191332739	-0.433654693073	0.399475012831	-0.6015625	0.869140625	0.33642578125	-16.3125	35.1875	-42.3125
18	12	13	19	50	54	-0.345709473604	-0.440132594308	0.389533520576	-0.70166015625	0.892578125	0.33251953125	-30.3125	35.0625	-25.3125
18	12	13	19	50	54	-0.347732149578	-0.444110781171	0.38020424078	-0.685546875	0.8603515625	0.3818359375	-35.5	30.9375	-8.5
18	12	13	19	50	54	-0.351151792486	-0.446798387101	0.373613787903	-0.42236328125	0.88037109375	0.40625	-26.5	33.0625	-7.3125
18	12	13	19	50	54	-0.355721031864	-0.445505801574	0.370980170156	-0.09521484375	1.0537109375	0.552734375	-16.25	22.8125	-8.0625
18	12	13	19	50	54	-0.359917235061	-0.441702735312	0.373222637341	0.24560546875	1.18603515625	0.45458984375	-7.125	8.5	-13.375
18	12	13	19	50	54	-0.360726243571	-0.44324771249	0.368966183145	-0.2822265625	0.89306640625	0.38232421875	-16.25	18.5625	-19.5625
18	12	13	19	50	54	-0.359437503383	-0.445863637665	0.370729053413	-0.54736328125	0.927734375	0.337890625	18.875	5.625	5.125
18	12	13	19	50	54	-0.360300082752	-0.451061767158	0.369455599	-0.53759765625	0.796875	0.23828125	6.125	28.1875	6.5
18	12	13	19	50	54	-0.362433325771	-0.453316320394	0.36762140807	-0.47607421875	0.82080078125	0.2275390625	-9.875	17.3125	8.6875
18	12	13	19	50	54	-0.365239950203	-0.457038226457	0.362005037542	-0.52685546875	0.7958984375	0.1484375	-30.0	27.9375	0.375
18	12	13	19	50	54	-0.370969758754	-0.458737858966	0.350950331168	-0.67626953125	0.72607421875	0.13330078125	-69.375	26.5625	8.1875
18	12	13	19	50	54	-0.377635036137	-0.462171083503	0.336984489173	-0.720703125	0.548828125	0.18505859375	-72.6875	42.875	8.625
18	12	13	19	50	54	-0.381971144033	-0.467057078002	0.324046788698	-0.76318359375	0.46826171875	0.27880859375	-51.125	45.375	3.375
18	12	13	19	50	54	-0.382398491723	-0.475053066414	0.314097787456	-0.81396484375	0.49609375	0.30615234375	-17.375	48.1875	-6.375
18	12	13	19	50	54	-0.381586993581	-0.485528556292	0.306819868319	-0.67041015625	0.54150390625	0.25537109375	2.6875	59.75	-13.9375
18	12	13	19	50	54	-0.383606926641	-0.497254674836	0.30078201026	-0.0751953125	0.80615234375	0.3310546875	6.625	93.1875	-38.1875
18	12	13	19	50	54	-0.386967366713	-0.500371998787	0.30145612369	-0.01611328125	1.65966796875	0.462890625	-3.8125	44.75	-36.1875
18	12	13	19	50	54	-0.400146287608	-0.484740972572	0.290283060382	0.12109375	1.1318359375	0.7607421875	-128.5	-32.8125	20.0625
18	12	13	19	50	54	-0.40882075493	-0.467720729326	0.298223082799	0.2734375	0.79931640625	0.93896484375	-3.3125	-46.75	39.1875
18	12	13	19	50	54	-0.403128321156	-0.47142515558	0.316338242021	-0.037109375	0.8046875	0.51171875	113.3125	-14.625	29.5
18	12	13	19	50	54	-0.395501036593	-0.482047405403	0.333795550791	-0.69775390625	0.82763671875	0.25439453125	135.875	16.625	25.6875
18	12	13	19	50	54	-0.388559953957	-0.492139319628	0.340096774026	-0.65771484375	1.0966796875	0.02099609375	58.375	17.5625	-9.375
18	12	13	19	50	54	-0.393924430685	-0.493107448947	0.329226584926	-0.67724609375	0.91796875	0.1259765625	-71.0	24.25	-1.375
18	12	13	19	50	54	-0.40422154965	-0.48637196575	0.313648579745	-0.57470703125	0.591796875	0.2626953125	-117.875	9.1875	0.4375
18	12	13	19	50	54	-0.409303622616	-0.482057860338	0.302674718842	-0.40771484375	0.48291015625	0.2978515625	-71.8125	2.875	-4.75
18	12	13	19	50	54	-0.406433987424	-0.486329180327	0.299988443939	-0.76025390625	0.52099609375	0.22900390625	7.75	7.9375	1.1875
18	12	13	19	50	54	-0.403137959437	-0.48950286672	0.307007408928	-0.25390625	0.72021484375	0.20556640625	45.6875	0.625	0.5
18	12	13	19	50	54	-0.39874017508	-0.495297186709	0.311460449018	-0.46630859375	0.908203125	0.220703125	42.875	11.9375	-9.1875
18	12	13	19	50	54	-0.398816766812	-0.494400950594	0.310923264485	-0.40625	0.8857421875	0.2919921875	-8.6875	-4.3125	-5.6875
18	12	13	19	50	54	-0.396069448565	-0.497940293018	0.302987940003	-1.1748046875	0.60791015625	0.3193359375	-16.0	4.5	2.625
18	12	13	19	50	54	-0.387018740536	-0.501458125256	0.291500000757	-1.30810546875	0.12109375	0.37255859375	-7.375	-13.3125	-22.5
18	12	13	19	50	55	-0.374568761055	-0.517084331703	0.287167348992	-0.50439453125	0.4365234375	0.40869140625	71.0	64.8125	-71.6875
18	12	13	19	50	55	-0.359804972433	-0.533024058398	0.285341517578	-0.84033203125	1.330078125	0.2568359375	65.0	49.1875	-89.625
18	12	13	19	50	55	-0.365726296018	-0.523564780914	0.277651689016	0.15380859375	1.27880859375	0.5986328125	-74.0625	-9.0	-56.6875
18	12	13	19	50	55	-0.37719911976	-0.511232981732	0.281007240675	0.59326171875	1.5615234375	0.349609375	-64.3125	-19.0	-17.5625
18	12	13	19	50	55	-0.391414284609	-0.501703636284	0.283749416677	0.25830078125	0.7158203125	0.56298828125	-33.4375	9.0	46.3125
18	12	13	19	50	55	-0.391973359528	-0.503486179188	0.299442743981	0.06640625	0.74609375	0.30126953125	80.5	7.75	33.875
18	12	13	19	50	55	-0.385989930862	-0.509404168718	0.313296381264	-0.490234375	0.99462890625	0.1787109375	89.3125	-1.0625	16.6875
18	12	13	19	50	55	-0.382394124552	-0.509899523784	0.319282308944	-0.79052734375	0.9404296875	0.1650390625	29.125	-24.5625	19.875
18	12	13	19	50	55	-0.383726720789	-0.505430407961	0.318785535658	-0.60302734375	0.822265625	0.21630859375	-24.5	-27.625	14.4375
18	12	13	19	50	55	-0.387265756687	-0.501217713776	0.313413658091	-0.59765625	0.650390625	0.2802734375	-44.8125	-12.0625	12.375
18	12	13	19	50	55	-0.390141299134	-0.497198220079	0.307742870813	-0.5615234375	0.5966796875	0.34326171875	-40.4375	-10.375	7.1875
18	12	13	19	50	55	-0.391056375411	-0.495183451492	0.304873824751	-0.53759765625	0.65771484375	0.34423828125	-17.75	-7.25	3.9375
18	12	13	19	50	55	-0.389396816844	-0.495534914727	0.305047851189	-0.5751953125	0.77294921875	0.30859375	5.3125	-6.1875	-0.75
18	12	13	19	50	55	-0.387200780507	-0.496146775653	0.305842230631	-0.6005859375	0.8330078125	0.28076171875	7.4375	-8.75	-1.8125
18	12	13	19	50	55	-0.385919586928	-0.49559814105	0.306636091211	-0.54248046875	0.8154296875	0.3037109375	3.6875	-10.3125	0.375
18	12	13	19	50	55	-0.383738550314	-0.496229428034	0.308419102073	-0.51318359375	0.81689453125	0.3173828125	14.875	-6.125	-2.4375
18	12	13	19	50	55	-0.380867393668	-0.498179433833	0.310675486181	-0.52001953125	0.83740234375	0.3310546875	24.0	-0.1875	-5.0
18	12	13	19	50	55	-0.378411464484	-0.50035761062	0.31261669695	-0.5712890625	0.962890625	0.3486328125	21.125	2.875	-5.0625
18	12	13	19	50	55	-0.380198261199	-0.499708326286	0.313362959222	-0.43603515625	0.99462890625	0.3818359375	-0.9375	4.625	4.3125
18	12	13	19	50	55	-0.384152945791	-0.498104892056	0.312253967376	-0.36572265625	0.91162109375	0.40771484375	-14.8125	9.8125	7.9375
18	12	13	19	50	55	-0.38746007632	-0.496410334075	0.31067608514	-0.33837890625	0.80810546875	0.39697265625	-14.5625	8.0	4.9375
18	12	13	19	50	55	-0.389101876636	-0.495242765024	0.310793216601	-0.3408203125	0.77978515625	0.375	-2.0625	2.625	3.75
18	12	13	19	50	55	-0.389471679749	-0.494636967981	0.31281027405	-0.3662109375	0.84228515625	0.32763671875	7.75	-1.875	3.875
18	12	13	19	50	55	-0.389779962909	-0.493847428734	0.315315265954	-0.3798828125	0.8828125	0.29345703125	6.375	-5.25	5.4375
18	12	13	19	50	55	-0.390758972948	-0.492507677713	0.316598999169	-0.369140625	0.84814453125	0.287109375	-2.25	-4.8125	4.9375
18	12	13	19	50	55	-0.392393051983	-0.491269509319	0.316831907426	-0.38037109375	0.83056640625	0.2998046875	-6.9375	-1.4375	5.9375
18	12	13	19	50	55	-0.394115659347	-0.490493021296	0.317209088063	-0.384765625	0.80712890625	0.31884765625	-3.375	2.375	7.875
18	12	13	19	50	55	-0.394830361481	-0.490898221888	0.318354485313	-0.3984375	0.853515625	0.30859375	4.9375	4.3125	4.9375
18	12	13	19	50	55	-0.395328634042	-0.490910638197	0.319033930854	-0.40283203125	0.88525390625	0.32177734375	2.0	2.4375	1.375
18	12	13	19	50	55	-0.395868843495	-0.490411063442	0.318355209323	-0.4052734375	0.85888671875	0.33984375	-5.0625	0.9375	-2.5
18	12	13	19	50	55	-0.396056153652	-0.489866957807	0.317992381034	-0.4072265625	0.84130859375	0.3681640625	-1.375	0.25	-2.375
18	12	13	19	50	55	-0.396116987971	-0.489805674648	0.318419464752	-0.373046875	0.86083984375	0.35498046875	3.6875	1.8125	-2.9375
18	12	13	19	50	55	-0.396005083927	-0.490001358472	0.318488675699	-0.39697265625	0.84912109375	0.3388671875	2.0	2.5625	-3.3125
18	12	13	19	50	55	-0.396191500535	-0.490188559666	0.319040667585	-0.3740234375	0.873046875	0.30224609375	1.625	2.3125	-2.0
18	12	13	19	50	55	-0.396490701964	-0.490181161865	0.318974816574	-0.3828125	0.8251953125	0.29052734375	-2.125	1.4375	-1.875
18	12	13	19	50	55	-0.396425118652	-0.490358645612	0.318665980674	-0.3984375	0.79638671875	0.30712890625	-0.3125	1.5625	-2.875
18	12	13	19	50	55	-0.396003002294	-0.490792253614	0.319585653516	-0.3876953125	0.80908203125	0.30078125	6.5625	1.3125	-0.875
18	12	13	19	50	55	-0.39599875135	-0.490970091841	0.320009471845	-0.3857421875	0.8046875	0.3125	3.4375	1.75	-0.6875
18	12	13	19	50	55	-0.396000084965	-0.491093816835	0.320620907263	-0.4052734375	0.8310546875	0.318359375	4.0	0.8125	0.625
18	12	13	19	50	55	-0.396375985029	-0.490800630677	0.321239114445	-0.4189453125	0.859375	0.31982421875	1.5	-0.25	2.6875
18	12	13	19	50	55	-0.396906858573	-0.490228492705	0.321529345066	-0.38623046875	0.84912109375	0.3203125	-1.3125	-0.4375	0.8125
18	12	13	19	50	55	-0.396919184405	-0.490060607656	0.321051039516	-0.41357421875	0.8251953125	0.333984375	-1.25	0.3125	-2.8125
18	12	13	19	50	55	-0.396972705791	-0.490112365852	0.321472208088	-0.37890625	0.833984375	0.3369140625	3.75	2.125	-1.1875
18	12	13	19	50	55	-0.397020299143	-0.491072302369	0.322010622334	-0.41943359375	0.85791015625	0.31396484375	5.8125	5.9375	0.4375
18	12	13	19	50	55	-0.397641997255	-0.491330480107	0.322141897392	-0.4404296875	0.8740234375	0.3037109375	-0.5625	3.1875	3.0
18	12	13	19	50	55	-0.398137465687	-0.491217280983	0.322208750784	-0.39501953125	0.8466796875	0.30224609375	-1.5	1.75	0.25
18	12	13	19	50	55	-0.397594920933	-0.492080173865	0.322336318306	-0.3984375	0.814453125	0.30126953125	5.0	3.6875	-3.9375
18	12	13	19	50	55	-0.396490110391	-0.492866016226	0.323185827358	-0.435546875	0.8525390625	0.30615234375	8.625	0.3125	-3.0
18	12	13	19	50	55	-0.396484651203	-0.493103370854	0.323913799867	-0.40380859375	0.890625	0.29931640625	3.25	1.0625	-0.8125
18	12	13	19	50	55	-0.397047750673	-0.492815301911	0.323741932294	-0.412109375	0.8779296875	0.3056640625	-3.4375	0.9375	-0.0625
18	12	13	19	50	56	-0.397832231128	-0.492254824187	0.323002173539	-0.408203125	0.84033203125	0.31005859375	-7.0	0.9375	-0.125
18	12	13	19	50	56	-0.398371275159	-0.491631778981	0.322261426818	-0.3994140625	0.828125	0.3291015625	-5.125	0.0625	-1.4375
18	12	13	19	50	56	-0.398442150379	-0.491521850031	0.321903171124	-0.40771484375	0.833984375	0.34130859375	-0.1875	1.5	-2.4375
18	12	13	19	50	56	-0.398437704091	-0.491516365049	0.321533367823	-0.42529296875	0.8427734375	0.326171875	-0.8125	1.0625	-2.0
18	12	13	19	50	56	-0.39873934994	-0.491450978986	0.320737070861	-0.41455078125	0.82958984375	0.3193359375	-3.75	2.1875	-2.3125
18	12	13	19	50	56	-0.398981567494	-0.491570681444	0.320125183036	-0.42236328125	0.826171875	0.302734375	-3.4375	2.25	-1.6875
18	12	13	19	50	56	-0.399049274217	-0.491700971718	0.319276040598	-0.416015625	0.80078125	0.28076171875	-4.8125	1.125	-3.125
18	12	13	19	50	56	-0.398803596542	-0.492004253401	0.318176178263	-0.4248046875	0.7880859375	0.29736328125	-3.5625	2.125	-5.0625
18	12	13	19	50	56	-0.398736166034	-0.492179464702	0.317743835967	-0.42578125	0.80810546875	0.3125	-0.75	1.375	-2.0625
18	12	13	19	50	56	-0.399105939177	-0.492183865045	0.31725839912	-0.41259765625	0.81298828125	0.3212890625	-1.8125	2.6875	-0.625
18	12	13	19	50	56	-0.39947098742	-0.492121401309	0.316219890882	-0.43505859375	0.7822265625	0.33251953125	-3.75	2.875	-0.8125
18	12	13	19	50	56	-0.399656371861	-0.492307314513	0.31555031193	-0.44873046875	0.79296875	0.32666015625	-1.3125	2.5	0.0625
18	12	13	19	50	56	-0.399782586337	-0.492495525061	0.31494322832	-0.44091796875	0.7958984375	0.3076171875	-2.0	2.0	-0.3125
18	12	13	19	50	56	-0.399855976008	-0.492632816724	0.313488061789	-0.45849609375	0.75537109375	0.310546875	-5.5	1.9375	-2.1875
18	12	13	19	50	56	-0.399646657649	-0.492783615434	0.312796139348	-0.44189453125	0.76416015625	0.31201171875	-1.0625	0.6875	-1.875
18	12	13	19	50	56	-0.399409891888	-0.493097878448	0.312435702411	-0.45947265625	0.77587890625	0.31005859375	0.375	1.125	-0.1875
18	12	13	19	50	56	-0.399708816687	-0.493273271715	0.31249185241	-0.43212890625	0.80029296875	0.30126953125	0.25	1.6875	1.9375
18	12	13	19	50	56	-0.399670679468	-0.493728791419	0.312143533109	-0.45361328125	0.79833984375	0.30224609375	-0.125	2.25	-0.0625
18	12	13	19	50	56	-0.39942165564	-0.494088982642	0.311773505044	-0.4541015625	0.79541015625	0.31591796875	0.8125	1.75	-1.3125
18	12	13	19	50	56	-0.399103187207	-0.494560808371	0.311763125899	-0.4599609375	0.81298828125	0.3115234375	2.3125	1.3125	-0.6875
18	12	13	19	50	56	-0.398858007767	-0.494925720732	0.311640242947	-0.44677734375	0.80126953125	0.31103515625	1.5	1.4375	-1.0625
18	12	13	19	50	56	-0.398547330597	-0.495346115639	0.311391804089	-0.43505859375	0.7939453125	0.30712890625	1.375	1.5625	-2.4375
18	12	13	19	50	56	-0.398198220519	-0.496221878115	0.311344132874	-0.47021484375	0.81689453125	0.28759765625	2.25	3.125	-0.75
18	12	13	19	50	56	-0.398394326061	-0.496543257623	0.310804949947	-0.48681640625	0.806640625	0.30419921875	-1.8125	1.9375	1.875
18	12	13	19	50	56	-0.398559308254	-0.496825845205	0.30993631965	-0.49560546875	0.78173828125	0.30126953125	-3.25	1.75	1.25
18	12	13	19	50	56	-0.398307324456	-0.497182265556	0.309441945294	-0.50537109375	0.7734375	0.31787109375	1.0	1.0	1.4375
18	12	13	19	50	56	-0.397958906346	-0.497997962711	0.30878437227	-0.50537109375	0.78125	0.3212890625	1.875	3.4375	0.125
18	12	13	19	50	56	-0.398118725094	-0.49870122685	0.308094944699	-0.49853515625	0.81005859375	0.31591796875	-0.5	4.8125	0.9375
18	12	13	19	50	56	-0.398624473891	-0.49921138753	0.306399457807	-0.513671875	0.81884765625	0.32568359375	-6.125	5.875	-0.4375
18	12	13	19	50	56	-0.399720059506	-0.499268603872	0.304321914292	-0.498046875	0.8291015625	0.3330078125	-11.125	5.8125	-0.3125
18	12	13	19	50	56	-0.40087697531	-0.499448277857	0.301512219554	-0.5068359375	0.81689453125	0.3251953125	-14.5	7.0625	-1.9375
18	12	13	19	50	56	-0.401614998903	-0.49951628435	0.298952927755	-0.5068359375	0.8125	0.32568359375	-12.9375	5.125	-2.9375
18	12	13	19	50	56	-0.402104737663	-0.499823269084	0.296756714408	-0.5126953125	0.8046875	0.3095703125	-10.6875	4.3125	-2.9375
18	12	13	19	50	56	-0.402339999187	-0.500239477145	0.295041194792	-0.5126953125	0.79248046875	0.29638671875	-8.3125	3.375	-2.0
18	12	13	19	50	56	-0.402469073088	-0.500919575801	0.293825616901	-0.5205078125	0.79541015625	0.28857421875	-5.25	3.4375	-0.5625
18	12	13	19	50	56	-0.402089788506	-0.501696730649	0.292778493543	-0.537109375	0.7861328125	0.2861328125	-3.125	2.0	-1.4375
18	12	13	19	50	56	-0.401533002329	-0.502236673684	0.291613419232	-0.5380859375	0.771484375	0.30029296875	-3.0	0.4375	-2.5625
18	12	13	19	50	56	-0.400754344251	-0.502743456229	0.290708641741	-0.54150390625	0.771484375	0.3154296875	-0.5625	-0.0625	-2.625
18	12	13	19	50	56	-0.400265222829	-0.503108605029	0.290158717495	-0.52587890625	0.78662109375	0.3251953125	0.25	-0.125	-1.25
18	12	13	19	50	56	-0.399724724873	-0.503363842729	0.289676827645	-0.5419921875	0.82958984375	0.32958984375	-0.4375	-0.75	-1.9375
18	12	13	19	50	56	-0.399727121652	-0.503122715495	0.288885091889	-0.53662109375	0.81787109375	0.3515625	-3.4375	-1.0625	-0.1875
18	12	13	19	50	56	-0.399770130218	-0.502855893567	0.28801759458	-0.51318359375	0.802734375	0.35888671875	-3.3125	-0.125	-1.125
18	12	13	19	50	56	-0.399595852783	-0.502744927353	0.287962919418	-0.48486328125	0.7890625	0.373046875	2.6875	0.3125	-0.625
18	12	13	19	50	56	-0.399108800485	-0.502990613977	0.287902769825	-0.47412109375	0.79296875	0.35986328125	3.9375	1.3125	-2.75
18	12	13	19	50	56	-0.398750339347	-0.503305571446	0.287664220013	-0.50048828125	0.7841796875	0.34130859375	2.0	1.0625	-1.1875
18	12	13	19	50	56	-0.398804877928	-0.503053229857	0.288208851175	-0.47607421875	0.81884765625	0.31591796875	0.625	-2.1875	1.3125
18	12	13	19	50	56	-0.399236422792	-0.502509321028	0.288089881605	-0.484375	0.78759765625	0.3115234375	-3.8125	-2.4375	2.75
18	12	13	19	50	56	-0.399413478487	-0.50231860146	0.287902411067	-0.484375	0.76318359375	0.32666015625	-0.9375	-0.5625	1.6875
18	12	13	19	50	56	-0.39922140699	-0.502856623176	0.288323180954	-0.48779296875	0.810546875	0.32080078125	3.75	2.0	0.8125
18	12	13	19	50	56	-0.39930101182	-0.50330726742	0.288397627766	-0.5087890625	0.81005859375	0.3154296875	1.125	2.0	2.125
18	12	13	19	50	57	-0.399537572092	-0.503297711498	0.288270081422	-0.5205078125	0.8115234375	0.31298828125	-2.125	-0.4375	2.625
18	12	13	19	50	57	-0.399774092251	-0.503288116749	0.288142517484	-0.5166015625	0.8154296875	0.32763671875	-1.25	-0.0625	2.6875
18	12	13	19	50	57	-0.399724587873	-0.503363670208	0.288028757089	-0.55810546875	0.8046875	0.3330078125	0.125	0.5	-0.125
18	12	13	19	50	57	-0.399172421586	-0.503726298983	0.287721528342	-0.56103515625	0.80810546875	0.349609375	2.125	-0.1875	0.375
18	12	13	19	50	57	-0.398800123118	-0.50390171663	0.287656103498	-0.51611328125	0.806640625	0.34423828125	2.125	0.0	-0.4375
18	12	13	19	50	57	-0.398685458399	-0.504216254108	0.286929017136	-0.48486328125	0.78466796875	0.3349609375	-0.875	2.4375	-2.75
18	12	13	19	50	57	-0.398303502371	-0.504684594101	0.286856644367	-0.486328125	0.80859375	0.31982421875	1.625	1.625	-2.625
18	12	13	19	50	57	-0.398499672306	-0.504579076574	0.286560876317	-0.49267578125	0.81787109375	0.3125	-3.3125	-0.125	-0.125
18	12	13	19	50	57	-0.399166357527	-0.504084854253	0.286069222894	-0.474609375	0.80224609375	0.33203125	-5.0625	0.0625	1.25
18	12	13	19	50	57	-0.399297022191	-0.504095705637	0.285526057752	-0.494140625	0.76953125	0.33740234375	-1.1875	1.25	0.1875
18	12	13	19	50	57	-0.399046039447	-0.504331205866	0.28564323411	-0.50537109375	0.78857421875	0.3466796875	3.3125	0.8125	0.4375
18	12	13	19	50	57	-0.399182968175	-0.504472053817	0.285592829983	-0.50048828125	0.80126953125	0.341796875	0.75	1.375	1.4375
18	12	13	19	50	57	-0.399546425414	-0.504468561877	0.285102559289	-0.5087890625	0.81005859375	0.34130859375	-2.3125	1.6875	1.0625
18	12	13	19	50	57	-0.399841138788	-0.504455352173	0.283996461423	-0.53076171875	0.81396484375	0.3310546875	-5.8125	1.1875	-0.5
18	12	13	19	50	57	-0.400257388183	-0.504258392981	0.282890057064	-0.50244140625	0.798828125	0.33447265625	-6.5625	1.125	-1.25
18	12	13	19	50	57	-0.400020360016	-0.504389419465	0.282345771351	-0.4765625	0.78564453125	0.337890625	-0.9375	1.3125	-3.25
18	12	13	19	50	57	-0.39947456936	-0.504882144805	0.282836540018	-0.4423828125	0.79345703125	0.32666015625	5.0	1.6875	-3.75
18	12	13	19	50	57	-0.399115840648	-0.505624044032	0.282597697232	-0.46875	0.7880859375	0.318359375	2.125	3.5625	-3.625
18	12	13	19	50	57	-0.39921711293	-0.505963899433	0.28239987487	-0.50048828125	0.796875	0.3134765625	-0.5	2.0	0.4375
18	12	13	19	50	57	-0.399959548223	-0.505793495518	0.282223859451	-0.5078125	0.8154296875	0.3056640625	-4.5625	0.5	3.875
18	12	13	19	50	57	-0.400635073823	-0.505188376909	0.280945040342	-0.5107421875	0.77978515625	0.326171875	-9.1875	-0.625	0.375
18	12	13	19	50	57	-0.400579482483	-0.504829026302	0.279789173808	-0.51416015625	0.7626953125	0.3486328125	-5.0	-1.0625	-2.3125
18	12	13	19	50	57	-0.400405654173	-0.504718651579	0.280039808132	-0.4921875	0.7978515625	0.35595703125	2.4375	-0.625	-0.0625
18	12	13	19	50	57	-0.400383324704	-0.504751538918	0.280268327293	-0.5078125	0.7861328125	0.35302734375	2.6875	0.0625	1.9375
18	12	13	19	50	57	-0.400270307507	-0.504701917166	0.281251231624	-0.4873046875	0.7939453125	0.34033203125	5.4375	-1.5	3.25
18	12	13	19	50	57	-0.399840446906	-0.50488172444	0.281859744133	-0.501953125	0.78759765625	0.341796875	5.3125	-0.875	1.0625
18	12	13	19	50	57	-0.399613709002	-0.504598523342	0.281994094332	-0.501953125	0.78271484375	0.35302734375	1.75	-2.0	0.5
18	12	13	19	50	57	-0.399672213128	-0.503923914415	0.282358530533	-0.47509765625	0.78515625	0.3740234375	2.0625	-2.625	1.4375
18	12	13	19	50	57	-0.399722021383	-0.503177331543	0.282899918935	-0.455078125	0.77001953125	0.373046875	2.8125	-2.875	1.3125
18	12	13	19	50	57	-0.399596628347	-0.502562797893	0.283568953001	-0.46826171875	0.76171875	0.37548828125	4.8125	-2.6875	2.25
18	12	13	19	50	57	-0.399112182987	-0.502384520289	0.285158605126	-0.4658203125	0.783203125	0.3603515625	9.625	-3.25	2.9375
18	12	13	19	50	57	-0.399059209435	-0.50184533802	0.286751325471	-0.44970703125	0.8134765625	0.35400390625	7.3125	-3.6875	3.3125
18	12	13	19	50	57	-0.399105678251	-0.501033569775	0.287412240233	-0.4404296875	0.798828125	0.36669921875	2.5	-3.4375	0.6875
18	12	13	19	50	57	-0.399234364367	-0.500004267375	0.288088396241	-0.427734375	0.80810546875	0.38232421875	2.0625	-3.6875	0.1875
18	12	13	19	50	57	-0.399722196352	-0.498844023635	0.288820496738	-0.4189453125	0.8271484375	0.38818359375	1.125	-3.125	1.4375
18	12	13	19	50	57	-0.400394815635	-0.497563801381	0.289187597024	-0.41845703125	0.81982421875	0.396484375	-0.9375	-2.4375	1.1875
18	12	13	19	50	57	-0.400881689212	-0.496524443017	0.289552791355	-0.42626953125	0.82373046875	0.3837890625	-0.4375	-2.5625	0.625
18	12	13	19	50	57	-0.401246593266	-0.495668327337	0.289918058718	-0.43505859375	0.81396484375	0.37744140625	0.0	-2.3125	0.9375
18	12	13	19	50	57	-0.401490452853	-0.494569343185	0.290406137835	-0.4404296875	0.81103515625	0.3857421875	0.6875	-4.125	1.625
18	12	13	19	50	57	-0.401549809049	-0.49352967867	0.291198379537	-0.42578125	0.81591796875	0.388671875	2.4375	-4.375	0.625
18	12	13	19	50	57	-0.401487540053	-0.492551603562	0.29174679864	-0.41015625	0.80419921875	0.380859375	1.6875	-4.1875	-1.6875
18	12	13	19	50	57	-0.40132023731	-0.491838550911	0.292063473084	-0.39208984375	0.779296875	0.380859375	2.1875	-2.1875	-2.8125
18	12	13	19	50	57	-0.401369043815	-0.491335280218	0.292298715151	-0.39453125	0.78466796875	0.36767578125	1.0625	-0.5625	-2.375
18	12	13	19	50	57	-0.401444319009	-0.491230633934	0.292309083736	-0.41162109375	0.7802734375	0.36083984375	-0.5625	-0.1875	-0.4375
18	12	13	19	50	57	-0.402156804789	-0.490351763496	0.29229457249	-0.40966796875	0.78955078125	0.3662109375	-2.8125	-0.8125	1.1875
18	12	13	19	50	57	-0.402220002997	-0.490293366324	0.292296144818	-0.42236328125	0.77685546875	0.36181640625	-0.5625	0.8125	0.625
18	12	13	19	50	57	-0.402221848257	-0.490051474909	0.292541626509	-0.423828125	0.78662109375	0.384765625	2.9375	0.625	-0.5
18	12	13	19	50	57	-0.402098818466	-0.48998927059	0.292968173746	-0.42333984375	0.80810546875	0.37744140625	3.9375	0.875	-1.4375
18	12	13	19	50	57	-0.401982097478	-0.489995790853	0.293094143956	-0.42822265625	0.80712890625	0.3671875	2.0625	0.9375	-2.1875
18	12	13	19	50	57	-0.40220926608	-0.489792012184	0.29289867495	-0.42578125	0.798828125	0.353515625	-1.4375	0.875	-1.4375
18	12	13	19	50	58	-0.402238865853	-0.489767019667	0.292920230232	-0.42431640625	0.787109375	0.33740234375	-0.375	0.375	-0.875
18	12	13	19	50	58	-0.4021037415	-0.489812162346	0.292788653305	-0.42236328125	0.76123046875	0.34130859375	0.4375	0.875	-2.125
18	12	13	19	50	58	-0.401909378656	-0.489920513663	0.292475283602	-0.43310546875	0.7412109375	0.35205078125	1.3125	1.1875	-2.0
18	12	13	19	50	58	-0.401552576466	-0.490237162818	0.292543167503	-0.46240234375	0.77197265625	0.34814453125	3.0	0.9375	-0.75
18	12	13	19	50	58	-0.401790159547	-0.490046056661	0.292416323012	-0.490234375	0.81103515625	0.3544921875	-1.25	-0.5625	2.1875
18	12	13	19	50	58	-0.402463398962	-0.489315903772	0.291807326423	-0.47607421875	0.8134765625	0.35595703125	-6.5625	-1.6875	2.0625
18	12	13	19	50	58	-0.402774582941	-0.48883491965	0.290957180918	-0.47900390625	0.78466796875	0.36962890625	-4.6875	-0.6875	0.0625
18	12	13	19	50	58	-0.402223500996	-0.489260027919	0.290711765591	-0.46240234375	0.7822265625	0.35693359375	2.125	1.0625	-3.5625
18	12	13	19	50	58	-0.40131297412	-0.489815455105	0.290410210017	-0.4814453125	0.771484375	0.361328125	3.75	0.8125	-4.0625
18	12	13	19	50	58	-0.40107144936	-0.489879691457	0.290473143739	-0.453125	0.7783203125	0.34814453125	1.6875	-0.125	-1.25
18	12	13	19	50	58	-0.400999703066	-0.489866608342	0.290038141395	-0.46044921875	0.74755859375	0.33349609375	-1.8125	-0.1875	-0.5
18	12	13	19	50	58	-0.400813424529	-0.489923764077	0.289608603531	-0.4921875	0.7587890625	0.3349609375	-1.3125	-0.625	0.25
18	12	13	19	50	58	-0.400815605238	-0.489987464421	0.289488109585	-0.50830078125	0.81005859375	0.33447265625	-1.4375	-1.125	1.375
18	12	13	19	50	58	-0.400867442731	-0.489671055577	0.288932167157	-0.505859375	0.79833984375	0.35693359375	-3.375	-1.75	0.5
18	12	13	19	50	58	-0.400829298012	-0.48914968696	0.288399335024	-0.49365234375	0.79443359375	0.39501953125	-1.75	-1.8125	-0.5625
18	12	13	19	50	58	-0.400522380405	-0.48890342381	0.288642233608	-0.4814453125	0.826171875	0.39404296875	2.75	-1.875	-1.0
18	12	13	19	50	58	-0.400209139392	-0.488466332554	0.288331245156	-0.46923828125	0.80126953125	0.3759765625	-1.375	-2.6875	-2.8125
18	12	13	19	50	58	-0.399960647056	-0.487728602263	0.287656726626	-0.4765625	0.7998046875	0.36181640625	-5.0	-4.25	-3.25
18	12	13	19	50	58	-0.399893828598	-0.487294311283	0.286981193844	-0.482421875	0.7763671875	0.3427734375	-4.875	-3.0	-1.5625
18	12	13	19	50	58	-0.399847563256	-0.486885057562	0.286137288436	-0.484375	0.74267578125	0.35888671875	-4.125	-1.8125	-1.0
18	12	13	19	50	58	-0.399217180593	-0.487226838812	0.285756740489	-0.50732421875	0.74267578125	0.375	2.625	0.125	-1.0625
18	12	13	19	50	58	-0.398638453869	-0.487387544656	0.286145624214	-0.501953125	0.796875	0.38818359375	5.25	-1.125	-0.1875
18	12	13	19	50	58	-0.39843784881	-0.487244078898	0.286133062993	-0.49072265625	0.7978515625	0.39501953125	1.9375	-0.75	-0.3125
18	12	13	19	50	58	-0.398427236494	-0.487231101246	0.28606440831	-0.486328125	0.7958984375	0.39013671875	0.5	-0.5	-0.875
18	12	13	19	50	58	-0.398138584037	-0.487434421603	0.28619834747	-0.4814453125	0.80810546875	0.37109375	2.3125	0.4375	-1.1875
18	12	13	19	50	58	-0.397884105248	-0.487421761699	0.286312983237	-0.4931640625	0.80419921875	0.37353515625	1.4375	-0.75	-0.1875
18	12	13	19	50	58	-0.397887197161	-0.487303479388	0.286803488182	-0.47216796875	0.8173828125	0.37841796875	2.5	-1.0625	1.0
18	12	13	19	50	58	-0.397569700688	-0.4873494105	0.287221831661	-0.470703125	0.7861328125	0.37646484375	4.125	-0.25	0.0
18	12	13	19	50	58	-0.397035072121	-0.487794665087	0.287598656393	-0.44921875	0.759765625	0.3681640625	5.75	1.3125	-1.8125
18	12	13	19	50	58	-0.396534108224	-0.48820630009	0.287955659936	-0.455078125	0.767578125	0.36572265625	5.4375	1.375	-1.375
18	12	13	19	50	58	-0.396596983168	-0.488330634399	0.288567334013	-0.4609375	0.8095703125	0.35302734375	2.875	0.5625	1.4375
18	12	13	19	50	58	-0.397522248842	-0.487854342851	0.288818560037	-0.46484375	0.8173828125	0.3505859375	-3.0	-0.4375	5.0625
18	12	13	19	50	58	-0.398450127501	-0.487564279791	0.288888549856	-0.4384765625	0.8173828125	0.353515625	-2.875	2.125	2.8125
18	12	13	19	50	58	-0.398254042174	-0.488341853093	0.288818103841	-0.46435546875	0.7958984375	0.369140625	3.625	4.75	-1.75
18	12	13	19	50	58	-0.39794547555	-0.489070106684	0.28954805767	-0.458984375	0.8359375	0.3681640625	6.6875	3.375	-0.75
18	12	13	19	50	58	-0.397823164082	-0.4897411888	0.290402364944	-0.4501953125	0.83984375	0.34716796875	5.3125	3.1875	-0.125
18	12	13	19	50	58	-0.398072373831	-0.489991569628	0.289917782229	-0.4443359375	0.8125	0.34619140625	-2.375	3.3125	-2.5
18	12	13	19	50	58	-0.398736022697	-0.490104127086	0.289606984187	-0.43212890625	0.78662109375	0.314453125	-3.875	2.875	0.75
18	12	13	19	50	58	-0.398914156629	-0.490403189797	0.289786477306	-0.4462890625	0.7607421875	0.31689453125	0.6875	1.6875	1.5625
18	12	13	19	50	58	-0.398558444134	-0.491209549524	0.29052652283	-0.4375	0.7744140625	0.30859375	5.25	2.5	-0.3125
18	12	13	19	50	58	-0.398181191719	-0.491867293694	0.290884665808	-0.4638671875	0.76416015625	0.33154296875	5.0625	2.0625	0.125
18	12	13	19	50	58	-0.398012093954	-0.492311846317	0.291505253907	-0.46826171875	0.7744140625	0.3330078125	4.875	0.9375	2.0625
18	12	13	19	50	58	-0.397950353591	-0.492555115564	0.29193198485	-0.48193359375	0.7958984375	0.34130859375	3.25	0.8125	2.1875
18	12	13	19	50	58	-0.397712638776	-0.492990328944	0.292241883742	-0.49853515625	0.8251953125	0.33203125	2.5625	0.375	0.625
18	12	13	19	50	58	-0.397593027174	-0.493115453875	0.292182655984	-0.5361328125	0.81787109375	0.3369140625	-0.875	0.0	-0.8125
18	12	13	19	50	58	-0.397536760116	-0.493182407759	0.2921251242	-0.515625	0.826171875	0.3408203125	0.4375	0.4375	-0.5625
18	12	13	19	50	58	-0.396793653468	-0.493901591118	0.292117278187	-0.50537109375	0.8154296875	0.3505859375	4.1875	1.625	-2.875
18	12	13	19	50	58	-0.39600039698	-0.494573245488	0.292056396355	-0.4912109375	0.80712890625	0.35400390625	4.25	1.5625	-3.625
18	12	13	19	50	58	-0.395027006264	-0.495553810855	0.291997712912	-0.4638671875	0.77490234375	0.31640625	4.5625	2.625	-5.25
18	12	13	19	50	58	-0.394150170362	-0.49650226632	0.291370844427	-0.48291015625	0.72509765625	0.29833984375	1.6875	2.25	-4.4375
18	12	13	19	50	59	-0.393505562411	-0.497390542591	0.291207544325	-0.49609375	0.74267578125	0.27978515625	2.0625	1.0625	-1.25
18	12	13	19	50	59	-0.392640325929	-0.498109389073	0.290894418371	-0.51953125	0.73876953125	0.28564453125	1.1875	-0.375	-1.5625
18	12	13	19	50	59	-0.391308059715	-0.498916250212	0.290658084599	-0.517578125	0.76953125	0.30322265625	3.375	-0.875	-5.3125
18	12	13	19	50	59	-0.389150848563	-0.500232176102	0.290032125529	-0.560546875	0.7841796875	0.3193359375	5.4375	-0.25	-9.3125
18	12	13	19	50	59	-0.38690603609	-0.501531298084	0.289370802509	-0.5634765625	0.81787109375	0.3310546875	5.5	-0.125	-11.3125
18	12	13	19	50	59	-0.385193704088	-0.502564563375	0.288513807514	-0.54443359375	0.82080078125	0.35009765625	3.375	1.25	-10.5
18	12	13	19	50	59	-0.38380368228	-0.503376108105	0.287974836673	-0.53076171875	0.82470703125	0.33447265625	2.625	0.9375	-9.0
18	12	13	19	50	59	-0.382805744801	-0.503836323874	0.287531547156	-0.5234375	0.8076171875	0.32568359375	1.375	-0.4375	-6.25
18	12	13	19	50	59	-0.382388908503	-0.504155208976	0.287478333448	-0.50537109375	0.8046875	0.2998046875	-0.125	-0.4375	-2.6875
18	12	13	19	50	59	-0.381886158636	-0.504685415656	0.287284345325	-0.515625	0.7724609375	0.28125	-0.0625	0.1875	-2.0625
18	12	13	19	50	59	-0.381351170939	-0.505253680063	0.28723409258	-0.51171875	0.759765625	0.28466796875	1.375	0.125	-1.4375
18	12	13	19	50	59	-0.380807369454	-0.505993443304	0.287543439253	-0.5087890625	0.7841796875	0.28759765625	3.625	1.375	-1.375
18	12	13	19	50	59	-0.380246526814	-0.506710540226	0.28722955942	-0.53125	0.77490234375	0.3076171875	1.625	2.0	-2.0625
18	12	13	19	50	59	-0.37981866167	-0.507136953209	0.28704598519	-0.54052734375	0.80712890625	0.32275390625	1.25	0.6875	-2.0
18	12	13	19	50	59	-0.379455009456	-0.507262439053	0.286681708125	-0.54248046875	0.80322265625	0.3251953125	-0.625	-0.25	-1.8125
18	12	13	19	50	59	-0.37932506707	-0.507312945693	0.285882319253	-0.54052734375	0.78271484375	0.34326171875	-1.9375	0.6875	-1.5625
18	12	13	19	50	59	-0.37884778204	-0.507754905557	0.285524395744	-0.5341796875	0.75244140625	0.3359375	2.5625	1.625	-1.375
18	12	13	19	50	59	-0.377991649206	-0.50848513314	0.285828337354	-0.5224609375	0.7412109375	0.3232421875	7.1875	1.25	-1.125
18	12	13	19	50	59	-0.376953155192	-0.50927738454	0.286560081545	-0.5126953125	0.7265625	0.302734375	8.9375	0.4375	-0.5625
18	12	13	19	50	59	-0.375971283667	-0.510002604923	0.287654652585	-0.50390625	0.75341796875	0.3037109375	9.75	0.1875	-0.1875
18	12	13	19	50	59	-0.375119333459	-0.510860530597	0.288450043919	-0.52099609375	0.787109375	0.28564453125	7.1875	0.6875	-1.25
18	12	13	19	50	59	-0.374875299353	-0.5107996386	0.288267020326	-0.51220703125	0.8017578125	0.31591796875	-0.375	-0.5	-2.4375
18	12	13	19	50	59	-0.374754405372	-0.510679170969	0.288023784845	-0.50732421875	0.80322265625	0.3359375	-0.1875	0.0625	-2.375
18	12	13	19	50	59	-0.374521408546	-0.510694365271	0.288398574866	-0.49462890625	0.806640625	0.34326171875	3.6875	0.8125	-1.625
18	12	13	19	50	59	-0.374572203425	-0.510619366768	0.288817934921	-0.48388671875	0.7919921875	0.34619140625	3.875	1.0625	0.25
18	12	13	19	50	59	-0.374263309685	-0.511041534898	0.289852651287	-0.4833984375	0.77685546875	0.31689453125	7.6875	1.5625	1.1875
18	12	13	19	50	59	-0.373912141666	-0.51155038513	0.291146084843	-0.49853515625	0.79541015625	0.29638671875	8.25	0.8125	2.0625
18	12	13	19	50	59	-0.373961219592	-0.511717131558	0.291747124147	-0.5205078125	0.806640625	0.279296875	1.5625	-0.25	2.625
18	12	13	19	50	59	-0.374273687205	-0.511605030357	0.291508664398	-0.53125	0.78759765625	0.28564453125	-3.1875	-0.9375	2.0625
18	12	13	19	50	59	-0.37475607088	-0.51129179247	0.291015789244	-0.529296875	0.78076171875	0.31982421875	-3.3125	0.125	2.0
18	12	13	19	50	59	-0.374756410128	-0.511170184824	0.291077087931	-0.517578125	0.7783203125	0.33984375	2.1875	0.3125	1.0625
18	12	13	19	50	59	-0.374340178263	-0.511368337434	0.29151291234	-0.5126953125	0.77587890625	0.3388671875	5.875	0.9375	0.3125
18	12	13	19	50	59	-0.374385792124	-0.511408306522	0.292355387067	-0.4892578125	0.81005859375	0.3359375	5.8125	0.9375	1.8125
18	12	13	19	50	59	-0.374505349287	-0.511526944651	0.292902733251	-0.4951171875	0.8095703125	0.30322265625	2.25	1.0625	1.375
18	12	13	19	50	59	-0.375061480169	-0.511292110557	0.292419780551	-0.50634765625	0.78759765625	0.30078125	-4.1875	0.4375	1.0
18	12	13	19	50	59	-0.375365511066	-0.511351585644	0.291930608037	-0.5263671875	0.794921875	0.2919921875	-3.5	1.125	0.875
18	12	13	19	50	59	-0.37530769522	-0.511539078491	0.291811040957	-0.54345703125	0.79443359375	0.3056640625	0.1875	0.6875	1.0
18	12	13	19	50	59	-0.375245831388	-0.511843126549	0.291810396856	-0.54296875	0.8154296875	0.31591796875	1.5	0.9375	0.75
18	12	13	19	50	59	-0.374866450047	-0.512313412845	0.291983246015	-0.5419921875	0.8115234375	0.31591796875	3.625	1.4375	-0.125
18	12	13	19	50	59	-0.374220415713	-0.512958469035	0.292308199453	-0.5390625	0.80810546875	0.30859375	5.0	1.4375	-1.3125
18	12	13	19	50	59	-0.373541599186	-0.51368073509	0.292241368775	-0.53857421875	0.78076171875	0.29052734375	3.4375	1.125	-1.8125
18	12	13	19	50	59	-0.372981806247	-0.514154595946	0.292172133285	-0.5283203125	0.75830078125	0.28369140625	2.5	0.5625	-1.25
18	12	13	19	50	59	-0.372188513082	-0.514948259245	0.292233289708	-0.5322265625	0.7626953125	0.2744140625	3.9375	1.125	-1.6875
18	12	13	19	50	59	-0.371521645203	-0.515503830357	0.291931662396	-0.5390625	0.755859375	0.2802734375	1.625	0.4375	-2.25
18	12	13	19	50	59	-0.3708550672	-0.516059840878	0.291325088174	-0.54443359375	0.74267578125	0.2822265625	0.6875	1.0	-2.75
18	12	13	19	50	59	-0.370064452972	-0.516674186774	0.290778006591	-0.55615234375	0.75634765625	0.28662109375	1.3125	0.6875	-2.75
18	12	13	19	50	59	-0.369446159994	-0.517212416949	0.290344520584	-0.57275390625	0.79150390625	0.28466796875	0.4375	0.5625	-2.25
18	12	13	19	50	59	-0.368900556335	-0.51764487397	0.289798120694	-0.58056640625	0.81591796875	0.287109375	-1.25	-0.3125	-2.875
18	12	13	19	50	59	-0.368283700329	-0.51794091498	0.288877486519	-0.57958984375	0.81298828125	0.2978515625	-2.125	-0.0625	-4.5625
18	12	13	19	50	59	-0.367369148643	-0.518674700975	0.287962725253	-0.57421875	0.7783203125	0.29736328125	0.25	1.375	-5.5625
18	12	13	19	51	00	-0.366212538449	-0.519533521212	0.287720984374	-0.55859375	0.755859375	0.3046875	5.5625	1.875	-4.0625
18	12	13	19	51	00	-0.364871925817	-0.520635250455	0.288333050779	-0.55078125	0.74951171875	0.2998046875	10.75	2.125	-2.375
18	12	13	19	51	00	-0.363463360275	-0.52184915707	0.289000673535	-0.55029296875	0.73388671875	0.28955078125	11.25	2.0625	-2.0625
18	12	13	19	51	00	-0.361988756811	-0.523116782099	0.289664245461	-0.55712890625	0.72900390625	0.26806640625	10.875	1.75	-1.875
18	12	13	19	51	00	-0.360352568644	-0.524354491399	0.290161942976	-0.5771484375	0.720703125	0.2470703125	9.375	0.1875	-2.0625
18	12	13	19	51	00	-0.358841972756	-0.525231361722	0.291272987581	-0.5673828125	0.76025390625	0.24853515625	10.3125	-1.8125	-0.8125
18	12	13	19	51	00	-0.357655472733	-0.526046505032	0.292288747256	-0.5703125	0.783203125	0.23974609375	8.25	-1.375	-0.375
18	12	13	19	51	00	-0.357312061585	-0.526263169625	0.29310087457	-0.56591796875	0.806640625	0.2568359375	4.0625	-1.5	2.125
18	12	13	19	51	00	-0.357116572834	-0.526489071487	0.293884173337	-0.5693359375	0.814453125	0.26806640625	4.25	-0.8125	2.625
18	12	13	19	51	00	-0.356809826692	-0.526486754199	0.294859437692	-0.5576171875	0.82373046875	0.275390625	5.125	-1.75	2.125
18	12	13	19	51	00	-0.356695798844	-0.526498624372	0.295232303047	-0.56201171875	0.810546875	0.279296875	2.125	-0.75	1.5
18	12	13	19	51	00	-0.356798269794	-0.526408668658	0.295216084672	-0.552734375	0.79736328125	0.27685546875	-0.25	-0.4375	1.1875
18	12	13	19	51	00	-0.356995228032	-0.526368070874	0.294983405211	-0.55517578125	0.79541015625	0.2744140625	-1.5	0.5	0.75
18	12	13	19	51	00	-0.357299302884	-0.526244378112	0.294250075027	-0.55810546875	0.78662109375	0.27734375	-4.25	0.5625	0.125
18	12	13	19	51	00	-0.357615128134	-0.525893828981	0.293404321717	-0.55517578125	0.7724609375	0.28125	-5.25	-0.625	-0.0625
18	12	13	19	51	00	-0.357901396664	-0.525499833779	0.292961579807	-0.53759765625	0.775390625	0.27880859375	-3.625	-1.0	0.4375
18	12	13	19	51	00	-0.358400480279	-0.525027406567	0.292848348838	-0.5166015625	0.7578125	0.29052734375	-1.75	-0.375	2.125
18	12	13	19	51	00	-0.359010169948	-0.524721256553	0.293397124608	-0.49658203125	0.76904296875	0.29296875	1.9375	0.9375	4.0625
18	12	13	19	51	00	-0.359313700481	-0.524718852222	0.294372342011	-0.5	0.76953125	0.2763671875	4.5625	0.875	4.3125
18	12	13	19	51	00	-0.359621213137	-0.524478120245	0.295594965245	-0.49658203125	0.79541015625	0.28076171875	4.5625	-0.5625	3.875
18	12	13	19	51	00	-0.359987209602	-0.52411159187	0.296388248529	-0.4912109375	0.8056640625	0.28271484375	2.1875	-0.75	2.4375
18	12	13	19	51	00	-0.360597007499	-0.523500428795	0.296876073879	-0.4833984375	0.80908203125	0.2978515625	0.125	-0.375	2.125
18	12	13	19	51	00	-0.361445161502	-0.52294193579	0.297298105653	-0.470703125	0.81591796875	0.30322265625	-0.5	0.8125	1.9375
18	12	13	19	51	00	-0.362187548744	-0.522284943478	0.297794582123	-0.4697265625	0.8095703125	0.3134765625	0.6875	0.4375	2.25
18	12	13	19	51	00	-0.363339396703	-0.521297125356	0.298886784085	-0.44677734375	0.841796875	0.314453125	0.6875	-0.375	4.3125
18	12	13	19	51	00	-0.364629266027	-0.520515296397	0.300236250349	-0.44482421875	0.8408203125	0.28564453125	0.75	-0.3125	6.625
18	12	13	19	51	00	-0.365964329268	-0.519527746953	0.301511638857	-0.44091796875	0.8408203125	0.27392578125	-0.75	-1.4375	6.25
18	12	13	19	51	00	-0.367376590337	-0.518746243774	0.302251017669	-0.46044921875	0.8408203125	0.26171875	-3.8125	-0.4375	6.0625
18	12	13	19	51	00	-0.368583238407	-0.517994029535	0.30242257763	-0.4873046875	0.83203125	0.2724609375	-5.0625	-0.8125	4.625
18	12	13	19	51	00	-0.369209129402	-0.517344450457	0.302557390386	-0.5068359375	0.81787109375	0.296875	-2.1875	-1.375	3.4375
18	12	13	19	51	00	-0.36933389902	-0.51710408073	0.30280374699	-0.50927734375	0.80078125	0.3056640625	1.8125	-0.5	1.9375
18	12	13	19	51	00	-0.369075238272	-0.517083747087	0.303219081153	-0.50048828125	0.7724609375	0.32275390625	5.625	0.375	0.9375
18	12	13	19	51	00	-0.3683428463	-0.517511018025	0.303951511943	-0.50830078125	0.7822265625	0.30419921875	8.5	0.75	-0.25
18	12	13	19	51	00	-0.367435192685	-0.518071414537	0.30462940975	-0.5302734375	0.798828125	0.2822265625	7.5625	-0.3125	-0.5625
18	12	13	19	51	00	-0.366821727032	-0.518372200945	0.304870969471	-0.54296875	0.8125	0.27685546875	3.375	-1.375	-0.5625
18	12	13	19	51	00	-0.36572837788	-0.518745908478	0.304814338974	-0.5654296875	0.794921875	0.27392578125	3.125	-2.0625	-2.375
18	12	13	19	51	00	-0.363954716579	-0.519717325451	0.304872347696	-0.572265625	0.78759765625	0.294921875	9.125	-0.125	-4.9375
18	12	13	19	51	00	-0.361255035894	-0.52134490904	0.305226631949	-0.5849609375	0.77734375	0.31591796875	15.8125	1.5625	-8.125
18	12	13	19	51	00	-0.357908006959	-0.523556426278	0.305906366111	-0.572265625	0.767578125	0.3212890625	21.75	3.5	-10.8125
18	12	13	19	51	00	-0.353876452731	-0.525687803962	0.305964583915	-0.5498046875	0.74072265625	0.32080078125	20.625	2.0625	-17.4375
18	12	13	19	51	00	-0.348933065682	-0.527702516335	0.305476647497	-0.546875	0.72412109375	0.33203125	20.875	-0.0625	-24.125
18	12	13	19	51	00	-0.342652681327	-0.53045857738	0.304078314637	-0.5810546875	0.66845703125	0.26513671875	18.75	-2.125	-31.125
18	12	13	19	51	00	-0.33447115046	-0.53368900358	0.300352651718	-0.5576171875	0.56201171875	0.23828125	13.9375	-3.375	-47.9375
18	12	13	19	51	00	-0.321893577867	-0.54076167992	0.296930651559	-0.6162109375	0.5302734375	0.20361328125	36.6875	6.125	-66.0
18	12	13	19	51	00	-0.307126814203	-0.548824386589	0.296872977799	-0.66552734375	0.7275390625	0.15869140625	57.1875	3.375	-70.8125
18	12	13	19	51	00	-0.296448137118	-0.554322005622	0.296020890472	-0.625	0.8671875	0.13427734375	32.8125	0.8125	-62.0
18	12	13	19	51	00	-0.289680178495	-0.556837814667	0.293342380499	-0.5263671875	0.89990234375	0.17431640625	7.5625	-2.75	-56.5
18	12	13	19	51	00	-0.286250940478	-0.558463988352	0.288997484683	-0.60791015625	0.92236328125	0.20703125	-10.375	2.625	-44.125
18	12	13	19	51	00	-0.286188300612	-0.557850515589	0.28502865512	-0.58203125	0.90966796875	0.26611328125	-20.8125	0.5	-26.625
18	12	13	19	51	00	-0.287053051465	-0.55719908714	0.284123315877	-0.54296875	0.8037109375	0.30322265625	-5.25	4.3125	-7.75
18	12	13	19	51	01	-0.286444618184	-0.557508020987	0.284430411408	-0.63037109375	0.75390625	0.2919921875	7.375	3.5625	-3.75
18	12	13	19	51	01	-0.284663412016	-0.558340671768	0.284968582913	-0.67919921875	0.732421875	0.25537109375	11.9375	1.625	-5.3125
18	12	13	19	51	01	-0.283089765748	-0.559221309569	0.28394428423	-0.73876953125	0.75244140625	0.236328125	2.4375	1.1875	-8.3125
18	12	13	19	51	01	-0.283755541815	-0.55859985345	0.279666141664	-0.7568359375	0.681640625	0.24365234375	-22.1875	-1.0625	-6.0625
18	12	13	19	51	01	-0.285037555321	-0.557013432518	0.273501774174	-0.76708984375	0.595703125	0.2744140625	-32.9375	-3.8125	-5.6875
18	12	13	19	51	01	-0.285096161677	-0.555787978641	0.2685555794	-0.76318359375	0.54248046875	0.28271484375	-22.25	-5.1875	-5.1875
18	12	13	19	51	01	-0.283807388368	-0.555346973497	0.265863437361	-0.77197265625	0.55712890625	0.28759765625	-6.0625	-5.125	-4.0
18	12	13	19	51	01	-0.281128788987	-0.555848866979	0.265076493828	-0.77734375	0.57666015625	0.2451171875	7.1875	-5.1875	-4.9375
18	12	13	19	51	01	-0.278381028764	-0.556517917182	0.265563660634	-0.77587890625	0.64599609375	0.2353515625	11.6875	-5.25	-4.0
18	12	13	19	51	01	-0.27660641658	-0.55687487751	0.265009942805	-0.7451171875	0.63818359375	0.2373046875	3.9375	-3.6875	-4.25
18	12	13	19	51	01	-0.275273693901	-0.556712053673	0.263432652522	-0.724609375	0.61279296875	0.26513671875	-1.8125	-3.75	-6.25
18	12	13	19	51	01	-0.273991256984	-0.556588610479	0.262638533928	-0.70263671875	0.65478515625	0.27490234375	1.375	-2.6875	-6.3125
18	12	13	19	51	01	-0.272896534228	-0.556840769798	0.261665721816	-0.689453125	0.65625	0.255859375	0.1875	-0.5	-6.875
18	12	13	19	51	01	-0.270753492307	-0.558108641491	0.25793603663	-0.70361328125	0.5380859375	0.23828125	-6.4375	4.0	-16.75
18	12	13	19	51	01	-0.265991105407	-0.561279074191	0.255309957301	-0.744140625	0.62548828125	0.2265625	8.625	8.3125	-28.9375
18	12	13	19	51	01	-0.262155531355	-0.563863282574	0.250985691485	-0.783203125	0.658203125	0.2314453125	-3.625	7.1875	-31.25
18	12	13	19	51	01	-0.259511947972	-0.566263370952	0.244803015832	-0.77587890625	0.60986328125	0.24169921875	-14.8125	11.0	-31.4375
18	12	13	19	51	01	-0.256894879688	-0.569087160421	0.240354487102	-0.7294921875	0.646484375	0.2529296875	-5.6875	15.25	-29.5
18	12	13	19	51	01	-0.256465007375	-0.571339584492	0.237361354993	-0.7412109375	0.7060546875	0.28125	-5.875	17.25	-16.0625
18	12	13	19	51	01	-0.257447751645	-0.571536450071	0.236146361099	-0.7685546875	0.64306640625	0.33740234375	-3.75	8.75	2.0
18	12	13	19	51	01	-0.257568630919	-0.570374136478	0.237488043342	-0.7333984375	0.60693359375	0.35888671875	9.4375	-1.9375	8.3125
18	12	13	19	51	01	-0.25714583263	-0.569163277777	0.240788110545	-0.75732421875	0.65869140625	0.326171875	17.625	-6.5625	11.75
18	12	13	19	51	01	-0.258191200695	-0.566372612589	0.241466758854	-0.810546875	0.6953125	0.326171875	-3.5625	-13.875	10.0625
18	12	13	19	51	01	-0.260567550952	-0.56264035715	0.241646037531	-0.80224609375	0.66162109375	0.31787109375	-12.5	-17.3125	16.5625
18	12	13	19	51	01	-0.26404012156	-0.558231842761	0.240602440866	-0.82470703125	0.63818359375	0.3046875	-23.0625	-20.1875	20.0625
18	12	13	19	51	01	-0.26836452149	-0.55296396741	0.23949565211	-0.83154296875	0.6259765625	0.32275390625	-27.375	-23.8125	25.75
18	12	13	19	51	01	-0.274229899181	-0.547239099946	0.241148972104	-0.75341796875	0.66015625	0.3427734375	-20.0	-22.5	38.875
18	12	13	19	51	01	-0.281558106908	-0.541692650944	0.243654880289	-0.67138671875	0.6533203125	0.3349609375	-19.3125	-17.0625	46.625
18	12	13	19	51	01	-0.28857273738	-0.536252129996	0.248045601674	-0.58349609375	0.640625	0.35791015625	-7.6875	-15.875	49.875
18	12	13	19	51	01	-0.294923774618	-0.530826172983	0.255983094112	-0.49853515625	0.7861328125	0.3525390625	7.8125	-18.375	50.375
18	12	13	19	51	01	-0.303765613612	-0.523304474806	0.263239118245	-0.38623046875	0.89404296875	0.40234375	-6.6875	-20.0625	52.3125
18	12	13	19	51	01	-0.314101729888	-0.513512991362	0.272351713712	-0.3427734375	0.9853515625	0.4091796875	-9.1875	-30.6875	63.8125
18	12	13	19	51	01	-0.3242827769	-0.50226293452	0.277224237282	-0.53857421875	0.6884765625	0.37841796875	-28.375	-43.125	73.25
18	12	13	19	51	01	-0.328250990118	-0.494634812926	0.280276784422	-0.71044921875	0.47021484375	0.330078125	-10.1875	-43.3125	52.4375
18	12	13	19	51	01	-0.326351779401	-0.491450257666	0.285946902281	-0.6875	0.69482421875	0.36083984375	24.25	-32.75	20.875
18	12	13	19	51	01	-0.331241770084	-0.48749364615	0.291507406287	-0.64453125	1.0419921875	0.4287109375	2.5	-14.5625	41.3125
18	12	13	19	51	01	-0.344122421429	-0.476143847032	0.296086886547	-0.3681640625	0.99462890625	0.55810546875	-32.9375	-24.875	71.5
18	12	13	19	51	01	-0.355651365917	-0.462462742329	0.30633502755	-0.01123046875	1.01708984375	0.5791015625	-7.9375	-38.0625	69.375
18	12	13	19	51	01	-0.364809630874	-0.450015293363	0.314577352773	0.0048828125	0.861328125	0.5908203125	-4.4375	-35.0	56.0625
18	12	13	19	51	01	-0.368350223896	-0.442569589639	0.328005650906	-0.08154296875	0.9892578125	0.50927734375	40.4375	-32.875	45.0625
18	12	13	19	51	01	-0.369513858456	-0.438851113693	0.332892068718	-0.4326171875	0.62158203125	0.18310546875	4.375	-29.375	32.5625
18	12	13	19	51	01	-0.363406408331	-0.438907538177	0.327395360142	-1.50341796875	0.2021484375	0.263671875	-9.1875	-47.625	28.4375
18	12	13	19	51	01	-0.354438613928	-0.445077729079	0.318610222956	-1.6005859375	0.0703125	0.18408203125	-2.8125	-22.25	5.6875
18	12	13	19	51	01	-0.348950390594	-0.448136044733	0.311839696614	-1.2255859375	0.38134765625	0.33642578125	-8.0625	-15.6875	1.6875
18	12	13	19	51	01	-0.344922515003	-0.450639343173	0.310619479535	-0.80419921875	0.40478515625	0.43359375	20.75	-4.25	3.8125
18	12	13	19	51	01	-0.340396752091	-0.450627437814	0.320315968258	-0.38037109375	0.857421875	0.49365234375	61.9375	-16.3125	2.25
18	12	13	19	51	01	-0.341006699296	-0.445194713561	0.330996837351	-0.11279296875	1.00732421875	0.5107421875	38.9375	-25.75	17.9375
18	12	13	19	51	01	-0.342654232273	-0.438785407163	0.337099986613	-0.20654296875	0.94140625	0.5869140625	17.125	-25.1875	17.0625
18	12	13	19	51	01	-0.344124809824	-0.43104104416	0.348397377523	0.0712890625	1.39501953125	0.54296875	26.8125	-31.4375	7.3125
18	12	13	19	51	01	-0.35126291507	-0.419379233614	0.356878238821	0.26123046875	1.39794921875	0.56103515625	-7.9375	-28.9375	23.0
18	12	13	19	51	02	-0.359372910189	-0.405698324393	0.364316729096	0.40966796875	1.21826171875	0.52587890625	-18.375	-33.4375	26.0
18	12	13	19	51	02	-0.360730222173	-0.402723858866	0.353833011496	-0.47412109375	0.42431640625	0.4775390625	-52.1875	-4.125	-7.75
18	12	13	19	51	02	-0.354070315772	-0.396978681914	0.350530222976	-1.0517578125	0.13916015625	0.61767578125	4.3125	-66.0625	16.6875
18	12	13	19	51	02	-0.352606426451	-0.401191282857	0.36017492167	0.40185546875	1.38720703125	0.40576171875	49.125	32.75	-39.9375
18	12	13	19	51	02	-0.350831884335	-0.400880970131	0.352174664686	0.0380859375	0.80615234375	0.330078125	-46.6875	9.625	-58.25
18	12	13	19	51	02	-0.35815435825	-0.401611396946	0.350097716244	-3.77734375	-0.19677734375	0.6572265625	-18.75	28.875	31.875
18	12	13	19	51	02	-0.35552813159	-0.389646625248	0.357908491613	0.01416015625	0.32080078125	0.37158203125	19.875	-73.25	14.25
18	12	13	19	51	02	-0.34919466999	-0.406630814801	0.355786703614	-1.1552734375	0.255859375	0.736328125	85.6875	61.9375	2.3125
18	12	13	19	51	02	-0.340344869446	-0.413650857287	0.363905328486	-0.65234375	0.537109375	0.5595703125	95.5	1.5	-3.125
18	12	13	19	51	02	-0.340938579534	-0.410273743578	0.367488576329	-0.49462890625	0.91015625	0.39794921875	6.4375	-23.375	23.5625
18	12	13	19	51	02	-0.341688398134	-0.405167486033	0.363600890976	-0.54833984375	0.91455078125	0.4130859375	-39.6875	-28.0	4.625
18	12	13	19	51	02	-0.343581377362	-0.399064673155	0.359512224669	-0.3671875	0.78125	0.44140625	-41.0625	-24.1875	4.5625
18	12	13	19	51	02	-0.346494641329	-0.392942135085	0.358823673837	-0.302734375	0.77392578125	0.43115234375	-24.8125	-22.875	17.75
18	12	13	19	51	02	-0.346390479559	-0.389727438236	0.365434326189	-0.21240234375	0.7861328125	0.4326171875	27.8125	-20.4375	17.0625
18	12	13	19	51	02	-0.34307767071	-0.390379786846	0.37750140426	-0.25439453125	0.951171875	0.3818359375	67.0625	-15.6875	12.375
18	12	13	19	51	02	-0.34119408498	-0.390816766749	0.388680488936	-0.27685546875	1.06103515625	0.3271484375	55.3125	-12.6875	17.75
18	12	13	19	51	02	-0.342531166899	-0.388857103406	0.395754113716	-0.2177734375	1.05859375	0.32275390625	22.5625	-11.0	21.75
18	12	13	19	51	02	-0.344987440409	-0.385821941052	0.400471089264	-0.21826171875	0.9990234375	0.30859375	5.625	-11.5625	23.75
18	12	13	19	51	02	-0.348024542462	-0.382448576477	0.404116186539	-0.24951171875	0.9453125	0.27734375	-2.0	-12.1875	27.75
18	12	13	19	51	02	-0.352416363988	-0.378051083918	0.405822030508	-0.291015625	0.85986328125	0.30126953125	-14.375	-12.375	35.1875
18	12	13	19	51	02	-0.357542348309	-0.37335038317	0.408628545908	-0.26611328125	0.81689453125	0.35791015625	-4.75	-11.0625	43.25
18	12	13	19	51	02	-0.36090972511	-0.370736626132	0.413584356053	-0.28125	0.701171875	0.41748046875	22.9375	-7.375	42.3125
18	12	13	19	51	02	-0.361396890741	-0.37177308926	0.421090550452	-0.29248046875	0.59423828125	0.38671875	53.875	-0.0625	33.5625
18	12	13	19	51	02	-0.361279446495	-0.373975193221	0.43019049483	-0.24560546875	0.79150390625	0.37158203125	63.125	3.8125	28.8125
18	12	13	19	51	02	-0.364570000369	-0.374763067515	0.438546032589	-0.19970703125	1.09228515625	0.36083984375	44.4375	10.125	39.4375
18	12	13	19	51	02	-0.374320449549	-0.370963589167	0.440908352771	-0.201171875	1.19775390625	0.384765625	-11.5	14.125	60.125
18	12	13	19	51	02	-0.389461493808	-0.362789393385	0.438289137601	-0.18359375	1.05126953125	0.4404296875	-52.625	15.875	81.125
18	12	13	19	51	02	-0.40479590152	-0.354379524159	0.4372674666	-0.1005859375	0.857421875	0.501953125	-35.4375	16.1875	87.5625
18	12	13	19	51	02	-0.417365758189	-0.348944141498	0.443489265721	0.00146484375	0.8017578125	0.498046875	20.0625	16.375	90.3125
18	12	13	19	51	02	-0.42694576424	-0.347538124601	0.456181935945	0.0927734375	0.8662109375	0.42626953125	69.9375	20.125	87.4375
18	12	13	19	51	02	-0.43439128419	-0.349002299143	0.471195828853	0.12353515625	0.919921875	0.3486328125	92.0	23.8125	81.125
18	12	13	19	51	02	-0.440071391626	-0.351568823269	0.485848582156	0.1787109375	0.89404296875	0.2919921875	96.25	24.375	68.0625
18	12	13	19	51	02	-0.444952703107	-0.355534910233	0.497809910362	0.224609375	0.85888671875	0.2353515625	86.1875	32.125	51.125
18	12	13	19	51	02	-0.449534684681	-0.361458846257	0.507031177956	0.224609375	0.884765625	0.1865234375	77.8125	43.25	38.125
18	12	13	19	51	02	-0.453381986341	-0.368906936651	0.513320208014	0.21142578125	0.89013671875	0.15478515625	67.375	50.1875	21.9375
18	12	13	19	51	02	-0.456167397856	-0.377433661806	0.516468894923	0.181640625	0.8447265625	0.12158203125	53.625	53.9375	4.8125
18	12	13	19	51	02	-0.458299931888	-0.386646699762	0.517502346848	0.150390625	0.85986328125	0.09912109375	44.0625	55.625	-6.4375
18	12	13	19	51	02	-0.460573233891	-0.395448447174	0.517824452204	0.1337890625	0.87451171875	0.14013671875	42.1875	55.0625	-6.625
18	12	13	19	51	02	-0.462336741836	-0.403621501486	0.517939219963	0.12744140625	0.90234375	0.13916015625	39.625	50.3125	-8.875
18	12	13	19	51	02	-0.463985999634	-0.410946821302	0.517757594699	0.1484375	0.955078125	0.17578125	36.8125	46.0625	-10.8125
18	12	13	19	51	02	-0.465510628786	-0.41814780619	0.516230352468	0.095703125	1.00048828125	0.18359375	29.4375	45.25	-14.0
18	12	13	19	51	02	-0.467825101799	-0.424552042807	0.513112280603	0.0400390625	1.02978515625	0.1884765625	17.1875	45.9375	-12.5625
18	12	13	19	51	02	-0.470900133024	-0.429517075319	0.509292379773	0.0126953125	1.03076171875	0.20458984375	7.375	43.125	-8.5
18	12	13	19	51	02	-0.474056499238	-0.433895667965	0.505428334002	-0.009765625	1.0	0.21435546875	5.5	40.3125	-5.875
18	12	13	19	51	02	-0.476633138568	-0.438424360909	0.50232945709	-0.0341796875	1.001953125	0.208984375	10.875	37.8125	-4.125
18	12	13	19	51	02	-0.47846251273	-0.443610861401	0.499642062662	-0.08154296875	1.01416015625	0.1865234375	14.9375	37.4375	-3.25
18	12	13	19	51	02	-0.480162730826	-0.448424505323	0.496214948724	-0.1455078125	0.99072265625	0.18603515625	9.875	34.9375	-2.9375
18	12	13	19	51	02	-0.481383701697	-0.453368598479	0.492125876351	-0.2255859375	0.93603515625	0.208984375	8.875	33.0625	-3.875
18	12	13	19	51	02	-0.480105931923	-0.458499333919	0.488956092123	-0.2890625	0.94775390625	0.22607421875	17.25	21.5	-8.9375
18	12	13	19	51	03	-0.47963826128	-0.461448874431	0.486535579112	-0.2138671875	1.009765625	0.21923828125	9.5	13.75	-5.5625
18	12	13	19	51	03	-0.480654451813	-0.462465877001	0.483950368054	-0.11572265625	0.9970703125	0.21728515625	-1.8125	11.875	-3.8125
18	12	13	19	51	03	-0.482787966336	-0.462402229198	0.48138415809	-0.02197265625	1.04248046875	0.18310546875	-10.625	11.9375	-3.8125
18	12	13	19	51	03	-0.486639400231	-0.460332918166	0.478826802309	0.02880859375	0.97216796875	0.18701171875	-20.875	10.75	4.0
18	12	13	19	51	03	-0.490164401632	-0.456778779955	0.477713456802	0.076171875	0.87646484375	0.18896484375	-19.5625	0.6875	7.5625
18	12	13	19	51	03	-0.4918273775	-0.454168219903	0.478399476898	0.10009765625	0.89208984375	0.17724609375	-5.3125	-4.8125	4.4375
18	12	13	19	51	03	-0.491813417303	-0.452751542511	0.479484513071	0.05419921875	0.9775390625	0.15576171875	0.6875	-7.3125	-0.8125
18	12	13	19	51	03	-0.491887961708	-0.451787404462	0.47870421686	-0.04833984375	1.01123046875	0.13525390625	-9.3125	-4.25	-2.875
18	12	13	19	51	03	-0.492723433682	-0.450610319692	0.476427489573	-0.08203125	1.01123046875	0.1552734375	-17.875	-1.0	-3.5625
18	12	13	19	51	03	-0.494194938639	-0.449273674611	0.473504302083	-0.0595703125	0.96142578125	0.21630859375	-18.3125	2.3125	-4.4375
18	12	13	19	51	03	-0.495671043593	-0.448673542846	0.470951578914	-0.0078125	0.87255859375	0.22900390625	-10.875	6.25	-6.25
18	12	13	19	51	03	-0.495977535881	-0.448857838896	0.467901032497	-0.06640625	0.86767578125	0.25146484375	-8.4375	5.125	-12.125
18	12	13	19	51	03	-0.496033348663	-0.447876548848	0.466675400994	-0.03466796875	0.92138671875	0.22509765625	-6.1875	-3.5625	-6.3125
18	12	13	19	51	03	-0.49664102479	-0.446897576934	0.465757362685	-0.02490234375	0.8955078125	0.14306640625	-10.5625	-1.25	-2.5625
18	12	13	19	51	03	-0.495842423063	-0.446892937182	0.464409773152	-0.083984375	0.9169921875	0.11962890625	-10.1875	-3.4375	-9.125
18	12	13	19	51	03	-0.495732508685	-0.445866286129	0.463810801957	-0.0654296875	0.962890625	0.130859375	-10.875	-5.5	-2.6875
18	12	13	19	51	03	-0.495359023281	-0.445554567515	0.464902622022	-0.0673828125	1.02978515625	0.11181640625	0.1875	-4.875	3.6875
18	12	13	19	51	03	-0.494861266117	-0.444935696841	0.466114391876	-0.08642578125	1.0654296875	0.11572265625	-1.0625	-7.3125	4.875
18	12	13	19	51	03	-0.49354474525	-0.444715188461	0.466993673746	-0.12744140625	1.095703125	0.142578125	0.875	-9.0625	0.9375
18	12	13	19	51	03	-0.491645162654	-0.445074677352	0.46759696972	-0.17822265625	1.10791015625	0.16650390625	4.0	-9.25	-0.4375
18	12	13	19	51	03	-0.490521257681	-0.444502466056	0.46836632219	-0.15087890625	1.11572265625	0.19091796875	2.0625	-10.0	3.125
18	12	13	19	51	03	-0.48974611838	-0.443603537934	0.468322777459	-0.16357421875	1.08935546875	0.21923828125	-2.0625	-9.1875	2.5
18	12	13	19	51	03	-0.488874215801	-0.44273327858	0.467939901692	-0.1474609375	1.068359375	0.21630859375	-3.9375	-9.5625	-1.0
18	12	13	19	51	03	-0.489264638382	-0.44171758832	0.467840999651	-0.123046875	0.9873046875	0.1767578125	-5.25	-4.25	6.5625
18	12	13	19	51	03	-0.488642080971	-0.441340355671	0.467096908028	-0.1865234375	0.9365234375	0.13720703125	-7.9375	-6.0625	1.5625
18	12	13	19	51	03	-0.488407721607	-0.439518120882	0.467655581474	-0.16455078125	0.93896484375	0.130859375	-8.0	-12.625	9.875
18	12	13	19	51	03	-0.48872099122	-0.437389112412	0.46961649887	-0.11279296875	0.90625	0.07666015625	-5.375	-12.3125	16.125
18	12	13	19	51	03	-0.488538275109	-0.435436288684	0.471386943861	-0.11572265625	0.8916015625	0.0673828125	-5.875	-13.75	13.0625
18	12	13	19	51	03	-0.488292098814	-0.432260580475	0.47364333585	-0.11474609375	0.93798828125	0.11767578125	-6.375	-20.4375	15.875
18	12	13	19	51	03	-0.488274538977	-0.429010216809	0.476861121628	-0.0771484375	0.92724609375	0.109375	-1.625	-20.125	20.0625
18	12	13	19	51	03	-0.488398101321	-0.42553256216	0.479914305259	-0.10986328125	0.98193359375	0.16552734375	-0.125	-21.0	22.6875
18	12	13	19	51	03	-0.489256141159	-0.420164580307	0.48382403081	-0.00537109375	1.01171875	0.17822265625	-4.3125	-26.5	25.6875
18	12	13	19	51	03	-0.489634305602	-0.416451616445	0.487070775206	0.01171875	1.0693359375	0.12353515625	-4.1875	-19.5	18.625
18	12	13	19	51	03	-0.490294481387	-0.411986524258	0.489989306184	-0.029296875	1.1083984375	0.14990234375	-8.4375	-22.375	22.75
18	12	13	19	51	03	-0.490244448077	-0.406746638693	0.493357305006	0.00048828125	1.1220703125	0.11767578125	-11.6875	-29.375	19.9375
18	12	13	19	51	03	-0.489692102055	-0.403387149755	0.4954905253	-0.04443359375	1.08349609375	0.099609375	-11.0	-21.75	13.25
18	12	13	19	51	03	-0.489617122511	-0.398492918583	0.497856752471	-0.04736328125	1.12890625	0.20166015625	-10.3125	-27.875	19.75
18	12	13	19	51	03	-0.490177732437	-0.391116786136	0.501591408936	0.05078125	1.158203125	0.236328125	-12.3125	-36.5	26.25
18	12	13	19	51	03	-0.491211350144	-0.384460772186	0.504272884554	0.1015625	1.12353515625	0.24951171875	-13.6875	-29.25	21.1875
18	12	13	19	51	03	-0.491386093844	-0.377923573852	0.50499671351	0.0029296875	1.1025390625	0.27099609375	-23.3125	-32.0625	14.375
18	12	13	19	51	03	-0.492426991275	-0.369991623836	0.506648048411	0.04638671875	1.0498046875	0.24951171875	-25.3125	-35.0625	23.125
18	12	13	19	51	03	-0.493097694759	-0.361934562436	0.507807008342	0.06591796875	1.0009765625	0.20263671875	-31.5625	-36.1875	18.375
18	12	13	19	51	03	-0.493900464144	-0.354067794426	0.508976269216	0.078125	0.9521484375	0.17041015625	-32.5625	-34.0625	19.1875
18	12	13	19	51	03	-0.494882939638	-0.346320399545	0.510996543001	0.09130859375	0.8994140625	0.13037109375	-28.875	-33.5	23.3125
18	12	13	19	51	03	-0.494070299728	-0.338982883841	0.513723250502	0.0673828125	0.86962890625	0.06591796875	-27.25	-39.875	18.0
18	12	13	19	51	03	-0.49383993718	-0.330447339006	0.518803542953	0.125	0.845703125	0.0517578125	-18.3125	-44.75	30.0625
18	12	13	19	51	03	-0.49377183241	-0.32024979044	0.526303400603	0.19287109375	0.8837890625	0.07421875	-9.625	-52.9375	41.375
18	12	13	19	51	03	-0.494158834451	-0.307811635639	0.535175970907	0.2587890625	0.90380859375	0.13134765625	-6.0	-62.0	52.1875
18	12	13	19	51	03	-0.493650722681	-0.295104011395	0.54449284088	0.236328125	0.93017578125	0.134765625	-3.8125	-67.5625	53.625
18	12	13	19	51	03	-0.493774258629	-0.279785068177	0.554626290255	0.29296875	0.91064453125	0.12939453125	-7.9375	-75.8125	64.3125
18	12	13	19	51	03	-0.495419611526	-0.262999027481	0.563839641651	0.38525390625	0.8740234375	0.1962890625	-11.3125	-72.875	69.5
18	12	13	19	51	04	-0.496051373798	-0.250192516451	0.572165076656	0.35009765625	0.97802734375	0.1640625	-3.0625	-59.3125	59.5625
18	12	13	19	51	04	-0.496221749636	-0.239626886725	0.578131908063	0.20556640625	0.97119140625	0.14990234375	-9.5625	-50.6875	54.0625
18	12	13	19	51	04	-0.4967725772	-0.228580083747	0.583626905417	0.2626953125	0.9345703125	0.1455078125	-13.1875	-49.1875	53.0
18	12	13	19	51	04	-0.497068251536	-0.219786686368	0.588437501603	0.2939453125	0.921875	0.09130859375	-11.1875	-38.375	43.25
18	12	13	19	51	04	-0.496965329425	-0.214790100006	0.591084776486	0.26953125	0.939453125	0.03369140625	-14.1875	-21.125	26.25
18	12	13	19	51	04	-0.498366978689	-0.211371077428	0.591448380097	0.27685546875	0.96484375	0.0068359375	-23.0	-3.6875	22.625
18	12	13	19	51	04	-0.501594196921	-0.207339436231	0.590340602656	0.32763671875	0.94287109375	0.0	-33.125	5.5625	25.4375
18	12	13	19	51	04	-0.505192555889	-0.202882693702	0.588140083188	0.3408203125	0.83203125	0.03564453125	-37.9375	6.5625	21.6875
18	12	13	19	51	04	-0.508913681791	-0.199402854211	0.586245612089	0.3818359375	0.80859375	0.05322265625	-30.4375	11.25	18.6875
18	12	13	19	51	04	-0.513115097097	-0.197201722222	0.584830362839	0.37646484375	0.81494140625	0.06591796875	-20.5625	16.9375	21.625
18	12	13	19	51	04	-0.516549973812	-0.195804362045	0.583934018606	0.35400390625	0.8193359375	0.05859375	-15.9375	15.625	18.9375
18	12	13	19	51	04	-0.519791716459	-0.193609596596	0.583209235647	0.36962890625	0.8173828125	0.07421875	-17.3125	11.25	20.1875
18	12	13	19	51	04	-0.522593390264	-0.191104870932	0.582531104495	0.365234375	0.79296875	0.10205078125	-16.875	7.6875	18.375
18	12	13	19	51	04	-0.523813305846	-0.189456595356	0.582347092878	0.32080078125	0.76318359375	0.1103515625	-12.3125	2.0625	11.1875
18	12	13	19	51	04	-0.523635491428	-0.188787105139	0.582780239207	0.3115234375	0.74609375	0.119140625	-5.6875	-1.8125	3.3125
18	12	13	19	51	04	-0.523680713966	-0.188842439279	0.584532657069	0.4130859375	0.8017578125	0.14892578125	7.4375	-0.25	3.3125
18	12	13	19	51	04	-0.523568038229	-0.189700333739	0.587167699669	0.46875	0.83837890625	0.17041015625	17.375	1.0625	1.5
18	12	13	19	51	04	-0.523258123533	-0.191285542885	0.590336238285	0.51904296875	0.86083984375	0.177734375	24.5	1.875	-0.9375
18	12	13	19	51	04	-0.522459190688	-0.193908043086	0.593198700268	0.48486328125	0.8818359375	0.1787109375	26.0625	3.5625	-5.375
18	12	13	19	51	04	-0.520877656888	-0.19720596548	0.595402102524	0.3955078125	0.943359375	0.1904296875	23.375	1.875	-7.3125
18	12	13	19	51	04	-0.519729026788	-0.199224373862	0.597673121586	0.42626953125	0.96484375	0.18017578125	18.9375	-0.5	-2.625
18	12	13	19	51	04	-0.519355715266	-0.200137194777	0.598641538998	0.42333984375	0.923828125	0.1826171875	8.25	0.75	-1.5625
18	12	13	19	51	04	-0.518884186718	-0.201608571783	0.598538799548	0.32568359375	0.9111328125	0.1611328125	1.6875	3.8125	-2.4375
18	12	13	19	51	04	-0.51887149492	-0.202885407495	0.597425501973	0.27783203125	0.87646484375	0.1630859375	-5.0	6.125	-1.625
18	12	13	19	51	04	-0.519470437389	-0.203125087021	0.596008556116	0.3291015625	0.86181640625	0.1708984375	-9.125	6.1875	-0.75
18	12	13	19	51	04	-0.519787262574	-0.203312749135	0.595655694629	0.41796875	0.8427734375	0.14892578125	-4.0	4.8125	-3.625
18	12	13	19	51	04	-0.519118638656	-0.204839759122	0.595475771749	0.4013671875	0.89306640625	0.10400390625	-2.5	5.875	-9.875
18	12	13	19	51	04	-0.518258054967	-0.206668445898	0.593698751698	0.32861328125	0.8994140625	0.0810546875	-14.3125	9.0	-14.125
18	12	13	19	51	04	-0.517773149003	-0.208012600707	0.590772876246	0.30029296875	0.8701171875	0.11181640625	-21.125	9.5	-14.875
18	12	13	19	51	04	-0.517891050815	-0.20813299744	0.589364288353	0.3857421875	0.83740234375	0.107421875	-14.8125	6.625	-8.4375
18	12	13	19	51	04	-0.516609496396	-0.20978105377	0.588693122961	0.37255859375	0.86962890625	0.06884765625	-8.8125	5.875	-15.75
18	12	13	19	51	04	-0.514404855479	-0.213012926628	0.586975735067	0.26416015625	0.88427734375	0.0537109375	-12.1875	8.25	-22.875
18	12	13	19	51	04	-0.513425360771	-0.215025861388	0.585202372691	0.26513671875	0.89453125	0.05859375	-15.6875	9.1875	-12.8125
18	12	13	19	51	04	-0.513124418523	-0.215699024035	0.584474774804	0.3154296875	0.86279296875	0.04443359375	-13.25	6.1875	-5.875
18	12	13	19	51	04	-0.511309215766	-0.218208242373	0.584004605043	0.27392578125	0.83056640625	0.0361328125	-6.4375	5.8125	-16.0625
18	12	13	19	51	04	-0.509577714894	-0.222043804861	0.584284041763	0.25390625	0.83740234375	0.0498046875	5.375	9.375	-14.625
18	12	13	19	51	04	-0.508070007107	-0.226202240069	0.5861970625	0.296875	0.89208984375	0.01416015625	15.625	10.375	-8.875
18	12	13	19	51	04	-0.505573406575	-0.231393068252	0.587851923063	0.275390625	0.90576171875	-0.0185546875	14.9375	10.5625	-16.5
18	12	13	19	51	04	-0.503171928362	-0.236388267655	0.587949440309	0.25830078125	0.90771484375	0.02392578125	7.125	11.375	-21.6875
18	12	13	19	51	04	-0.50141257476	-0.24048271997	0.5883281568	0.3095703125	0.9052734375	0.0087890625	5.625	11.625	-18.125
18	12	13	19	51	04	-0.499278668248	-0.245305741771	0.588575085319	0.29833984375	0.8857421875	0.013671875	8.1875	12.25	-23.0625
18	12	13	19	51	04	-0.496468042339	-0.251102720209	0.588754700812	0.2421875	0.921875	0.01513671875	11.0625	12.9375	-25.25
18	12	13	19	51	04	-0.494399661263	-0.255806046957	0.589373225822	0.26611328125	0.9189453125	0.02490234375	12.0	11.25	-18.625
18	12	13	19	51	04	-0.492379243054	-0.261051942797	0.590586532266	0.3076171875	0.90771484375	0.00390625	17.875	13.25	-20.375
18	12	13	19	51	04	-0.490535353292	-0.267087558294	0.591303533992	0.28076171875	0.90087890625	0.01513671875	19.5625	17.75	-21.8125
18	12	13	19	51	04	-0.48901924916	-0.273013367635	0.592536054773	0.30517578125	0.90087890625	-0.0068359375	22.5625	18.625	-19.4375
18	12	13	19	51	04	-0.487552843019	-0.279604353264	0.59406006774	0.33544921875	0.89794921875	-0.01513671875	27.75	21.75	-21.125
18	12	13	19	51	04	-0.485011450709	-0.287674171557	0.595796220787	0.29833984375	0.8427734375	-0.06005859375	33.25	22.5625	-28.5
18	12	13	19	51	04	-0.48194209582	-0.296636092412	0.597239539969	0.27392578125	0.90771484375	-0.07275390625	34.75	24.25	-31.9375
18	12	13	19	51	04	-0.479308287457	-0.306029766116	0.598448714951	0.2978515625	0.96630859375	-0.1103515625	33.8125	29.0	-32.25
18	12	13	19	51	05	-0.477675574402	-0.315195076184	0.597735356519	0.302734375	0.94775390625	-0.0888671875	23.75	34.1875	-36.125
18	12	13	19	51	05	-0.476317699291	-0.324340370839	0.596800930762	0.33837890625	0.91015625	-0.10791015625	22.5	36.5625	-38.875
18	12	13	19	51	05	-0.475337347837	-0.3344695257	0.595636514836	0.32666015625	0.9541015625	-0.1005859375	27.875	42.5625	-38.75
18	12	13	19	51	05	-0.475173757478	-0.343516751071	0.594501271399	0.333984375	0.9736328125	-0.0576171875	27.5625	41.5	-32.5
18	12	13	19	51	05	-0.476326872403	-0.350225985885	0.593272321855	0.39794921875	1.01220703125	0.009765625	22.5625	37.3125	-25.375
18	12	13	19	51	05	-0.476751179592	-0.354313224623	0.593756942142	0.3984375	1.01025390625	0.0615234375	25.125	20.5	-16.875
18	12	13	19	51	05	-0.475875010574	-0.353808828562	0.595560902037	0.396484375	1.09033203125	0.162109375	16.9375	-8.625	-8.3125
18	12	13	19	51	05	-0.47277583963	-0.347898565181	0.601742448091	0.47216796875	1.3427734375	0.18017578125	19.75	-46.625	9.3125
18	12	13	19	51	05	-0.471552016084	-0.3342245457	0.612175345758	0.62939453125	1.58154296875	0.0263671875	3.5625	-70.0	50.125
18	12	13	19	51	05	-0.478462352307	-0.314458226698	0.6140846698	0.52490234375	1.125	-0.0439453125	-79.9375	-46.625	68.125
18	12	13	19	51	05	-0.481698001134	-0.307988863878	0.609935140058	-0.12890625	0.44677734375	0.07666015625	-52.9375	-9.1875	26.75
18	12	13	19	51	05	-0.473935583611	-0.310972543271	0.612362615631	-0.24755859375	0.7734375	0.07763671875	23.5625	-31.0	-7.8125
18	12	13	19	51	05	-0.47242378304	-0.308540338924	0.6156157979	0.2314453125	1.19970703125	-0.119140625	-3.0625	-17.25	17.0
18	12	13	19	51	05	-0.479269802701	-0.299879335287	0.613003900729	0.3505859375	0.8935546875	-0.03466796875	-56.6875	2.9375	34.9375
18	12	13	19	51	05	-0.48352950713	-0.294927364107	0.609752559484	0.3955078125	0.74072265625	-0.03515625	-46.875	6.3125	5.125
18	12	13	19	51	05	-0.487175699856	-0.29326976169	0.605032913139	0.25634765625	0.7548828125	-0.05126953125	-44.3125	18.75	-2.0
18	12	13	19	51	05	-0.489448694569	-0.293400657787	0.601816202575	0.1279296875	0.916015625	-0.0771484375	-30.5	17.1875	5.8125
18	12	13	19	51	05	-0.492752179158	-0.291024698405	0.601398144586	0.31103515625	0.93408203125	-0.08447265625	-22.1875	10.625	17.875
18	12	13	19	51	05	-0.496220868774	-0.288210940019	0.603460729344	0.505859375	1.02099609375	-0.11376953125	-9.25	9.625	21.0625
18	12	13	19	51	05	-0.499020715006	-0.284910554996	0.606014760188	0.515625	1.01611328125	-0.04541015625	-3.875	2.625	21.1875
18	12	13	19	51	05	-0.500905711246	-0.281000352696	0.609485126417	0.52392578125	1.03173828125	-0.00927734375	1.1875	-6.125	22.1875
18	12	13	19	51	05	-0.5017268671	-0.277841934189	0.612570661583	0.4052734375	1.05322265625	0.02294921875	2.75	-9.5625	22.25
18	12	13	19	51	05	-0.501915262563	-0.274915036189	0.615079666891	0.31689453125	0.9970703125	0.03857421875	0.4375	-12.125	20.5
18	12	13	19	51	05	-0.502867262337	-0.271178449638	0.617002689036	0.345703125	0.951171875	0.0224609375	-6.875	-10.1875	21.625
18	12	13	19	51	05	-0.504522051176	-0.267825158549	0.61823177551	0.32470703125	0.86962890625	0.01806640625	-8.25	-4.4375	21.3125
18	12	13	19	51	05	-0.505731975826	-0.266537718855	0.61876789415	0.27978515625	0.84521484375	-0.05029296875	-9.0	3.25	14.0
18	12	13	19	51	05	-0.506900525602	-0.265504790653	0.618778751181	0.212890625	0.85888671875	-0.05419921875	-11.5625	4.5625	15.5625
18	12	13	19	51	05	-0.508250289489	-0.263799417698	0.619824869672	0.26025390625	0.841796875	-0.0244140625	-5.125	1.1875	19.875
18	12	13	19	51	05	-0.509228351989	-0.263067745065	0.620070817195	0.2412109375	0.70849609375	-0.0830078125	-10.0	5.125	10.1875
18	12	13	19	51	05	-0.5091681633	-0.265143430997	0.620499106702	0.25341796875	0.890625	-0.12744140625	-1.375	12.1875	2.5
18	12	13	19	51	05	-0.510393120486	-0.266427406233	0.620931501399	0.2880859375	0.900390625	-0.107421875	-0.875	14.875	9.875
18	12	13	19	51	05	-0.512097374566	-0.265265219292	0.622634722044	0.44970703125	0.9326171875	-0.0869140625	-1.3125	6.625	14.875
18	12	13	19	51	05	-0.513996049624	-0.263376434405	0.624962065325	0.52392578125	0.95458984375	0.0048828125	6.5	2.9375	17.0625
18	12	13	19	51	05	-0.515502947931	-0.25988770451	0.629821799633	0.71240234375	1.1728515625	-0.04052734375	13.4375	-6.625	25.6875
18	12	13	19	51	05	-0.519779870346	-0.254274652403	0.631353097564	0.60986328125	0.818359375	0.0263671875	-9.0625	1.6875	28.4375
18	12	13	19	51	05	-0.518507048088	-0.257819160815	0.631852261543	0.21044921875	0.814453125	-0.0048828125	14.0625	7.125	-3.9375
18	12	13	19	51	05	-0.515495846445	-0.264339629523	0.632681736236	0.103515625	0.8173828125	-0.1005859375	20.6875	10.8125	-12.25
18	12	13	19	51	05	-0.513857434566	-0.269715643586	0.632876557669	0.1181640625	0.732421875	-0.10986328125	14.4375	14.625	-8.5
18	12	13	19	51	05	-0.512832524308	-0.275215645335	0.632464962732	0.1435546875	0.64404296875	-0.03955078125	16.5625	17.4375	-12.375
18	12	13	19	51	05	-0.510580353212	-0.281688981479	0.635158297133	0.31787109375	0.88818359375	-0.04541015625	42.3125	12.0	-10.1875
18	12	13	19	51	05	-0.51019322746	-0.2840578156	0.637817828323	0.4248046875	0.90380859375	-0.0751953125	24.5	7.1875	2.3125
18	12	13	19	51	05	-0.510123921001	-0.284480449364	0.639272307796	0.4326171875	0.87451171875	-0.06396484375	7.375	2.125	0.9375
18	12	13	19	51	05	-0.509962079285	-0.286323412798	0.641130063531	0.4169921875	0.8759765625	-0.0595703125	18.125	6.6875	0.875
18	12	13	19	51	05	-0.509759513098	-0.289425240794	0.64208214533	0.3466796875	0.8876953125	-0.03564453125	19.5625	11.1875	-1.8125
18	12	13	19	51	05	-0.509465031731	-0.292971385206	0.643133226231	0.3671875	0.96337890625	-0.0380859375	23.0625	11.8125	-2.0625
18	12	13	19	51	05	-0.509894154616	-0.295108718885	0.644966666486	0.46240234375	1.064453125	-0.0419921875	23.6875	10.0625	5.875
18	12	13	19	51	05	-0.511183094311	-0.295295977347	0.646013357635	0.45751953125	1.00146484375	-0.05078125	9.0625	8.3125	9.4375
18	12	13	19	51	05	-0.511659839176	-0.296143807668	0.646670165343	0.37158203125	0.90869140625	-0.01953125	10.1875	5.5625	4.75
18	12	13	19	51	05	-0.511350854154	-0.297911616033	0.649045712948	0.44970703125	0.986328125	-0.01904296875	26.75	3.1875	5.25
18	12	13	19	51	05	-0.512080010618	-0.298153856004	0.650689510513	0.4677734375	0.9736328125	-0.04150390625	14.8125	4.4375	9.0625
18	12	13	19	51	06	-0.513252133613	-0.297855917711	0.650339099018	0.3876953125	0.89501953125	-0.0341796875	-2.375	5.5625	4.4375
18	12	13	19	51	06	-0.514419441147	-0.297799294418	0.650104587999	0.3759765625	0.8505859375	-0.00146484375	1.875	6.125	4.375
18	12	13	19	51	06	-0.5153860769	-0.298953221774	0.649481672702	0.328125	0.81591796875	-0.0146484375	3.9375	9.75	1.0
18	12	13	19	51	06	-0.516120566408	-0.300419279548	0.649240121201	0.35986328125	0.8681640625	-0.0400390625	6.5	10.5	0.375
18	12	13	19	51	06	-0.517699383381	-0.301391128877	0.648863728451	0.39111328125	0.8916015625	-0.05078125	4.1875	13.3125	4.5625
18	12	13	19	51	06	-0.519774141707	-0.301696052426	0.648252836903	0.376953125	0.92138671875	-0.0576171875	-0.375	14.1875	9.25
18	12	13	19	51	06	-0.521789734472	-0.30151377802	0.648254622743	0.40576171875	0.9326171875	-0.07275390625	0.375	12.25	12.25
18	12	13	19	51	06	-0.523627930271	-0.301456853667	0.648324498816	0.4208984375	0.95556640625	-0.07568359375	1.375	11.25	11.3125
18	12	13	19	51	06	-0.524894959286	-0.302363910268	0.648062171826	0.384765625	0.9599609375	-0.07177734375	2.75	12.3125	6.625
18	12	13	19	51	06	-0.526123018456	-0.303527815636	0.64794918375	0.39794921875	0.97314453125	-0.08447265625	4.75	13.1875	6.875
18	12	13	19	51	06	-0.527406127076	-0.304566204619	0.647584655512	0.41259765625	0.9814453125	-0.060546875	4.0	12.375	5.0625
18	12	13	19	51	06	-0.529240655438	-0.305178558089	0.646917507437	0.41552734375	0.92626953125	-0.037109375	1.75	13.5625	5.9375
18	12	13	19	51	06	-0.530699847319	-0.306273931437	0.646239216033	0.380859375	0.87353515625	-0.03271484375	3.8125	13.25	3.1875
18	12	13	19	51	06	-0.531871129358	-0.307989639515	0.646253330002	0.42138671875	0.90283203125	-0.052734375	10.625	14.0	3.5625
18	12	13	19	51	06	-0.533019914292	-0.309570251378	0.645751825628	0.39013671875	0.884765625	-0.0537109375	5.9375	13.6875	1.875
18	12	13	19	51	06	-0.534178364172	-0.310607140685	0.645445178373	0.43896484375	0.91064453125	-0.06396484375	4.3125	11.8125	2.0
18	12	13	19	51	06	-0.535573473468	-0.311090369717	0.644824358654	0.43115234375	0.88818359375	-0.0654296875	-1.375	11.375	2.125
18	12	13	19	51	06	-0.536869720384	-0.311587076235	0.644048350329	0.42822265625	0.880859375	-0.041015625	-1.0	10.3125	0.5
18	12	13	19	51	06	-0.537895955972	-0.312557039661	0.64391266714	0.462890625	0.91796875	-0.044921875	6.0	10.125	1.25
18	12	13	19	51	06	-0.539065322497	-0.313478203843	0.643619092587	0.4326171875	0.9150390625	-0.05517578125	4.125	11.375	3.125
18	12	13	19	51	06	-0.540346646779	-0.314149349483	0.643435485185	0.45751953125	0.88818359375	-0.03515625	5.0	10.5	2.6875
18	12	13	19	51	06	-0.541509822968	-0.315005883266	0.643500683449	0.4951171875	0.88232421875	-0.009765625	9.75	9.25	0.8125
18	12	13	19	51	06	-0.542370576054	-0.316047135135	0.643386027705	0.4736328125	0.8759765625	-0.02490234375	7.5625	8.875	-0.875
18	12	13	19	51	06	-0.543207684923	-0.317257701823	0.642633001635	0.41259765625	0.8837890625	-0.0146484375	3.9375	9.5	-1.5625
18	12	13	19	51	06	-0.544814732549	-0.317757729963	0.641802253277	0.4013671875	0.8701171875	-0.0078125	1.6875	11.3125	4.625
18	12	13	19	51	06	-0.546879280351	-0.317690474802	0.640996227929	0.39990234375	0.87744140625	-0.009765625	-0.0625	12.0625	8.9375
18	12	13	19	51	06	-0.548783209991	-0.317758357381	0.640155522899	0.4228515625	0.89501953125	0.00830078125	1.0625	11.125	6.4375
18	12	13	19	51	06	-0.55034933047	-0.318234602315	0.640070248269	0.49560546875	0.94140625	-0.01708984375	6.9375	11.0	6.0
18	12	13	19	51	06	-0.551772112877	-0.318306589453	0.640031236243	0.51953125	0.96142578125	-0.037109375	3.0625	9.0625	5.125
18	12	13	19	51	06	-0.553159017433	-0.318418911392	0.639523357019	0.47900390625	0.91552734375	-0.0517578125	-1.1875	9.9375	3.25
18	12	13	19	51	06	-0.554377969722	-0.31908929051	0.63915513585	0.45166015625	0.87890625	-0.0498046875	2.6875	10.75	3.0625
18	12	13	19	51	06	-0.555661171754	-0.31982255492	0.639462005323	0.50927734375	0.884765625	-0.0634765625	7.8125	11.4375	4.625
18	12	13	19	51	06	-0.556837683974	-0.320015343317	0.639908613262	0.5078125	0.86865234375	-0.0654296875	5.5	9.0625	5.5
18	12	13	19	51	06	-0.558041146917	-0.319395091526	0.640743296548	0.49365234375	0.84619140625	-0.0546875	4.75	5.25	9.875
18	12	13	19	51	06	-0.559876929505	-0.317871912009	0.641847355355	0.51171875	0.8388671875	-0.0302734375	5.125	5.0625	16.25
18	12	13	19	51	06	-0.562430096915	-0.315424714146	0.643544540626	0.546875	0.83837890625	-0.0615234375	4.5625	6.875	25.0625
18	12	13	19	51	06	-0.564627709651	-0.31365493459	0.644277386561	0.45361328125	0.83837890625	-0.0361328125	1.6875	6.6875	21.5
18	12	13	19	51	06	-0.566541396259	-0.312568249326	0.645278565099	0.46826171875	0.89013671875	-0.03955078125	7.375	8.0	22.3125
18	12	13	19	51	06	-0.568717216325	-0.311152647438	0.646047621249	0.49560546875	0.94580078125	-0.0830078125	1.6875	9.5625	23.5
18	12	13	19	51	06	-0.571229629727	-0.309204968928	0.646242047179	0.4990234375	0.943359375	-0.08154296875	-4.5625	10.1875	23.125
18	12	13	19	51	06	-0.574162302848	-0.307741716909	0.647160933039	0.58740234375	0.95703125	-0.1123046875	3.8125	15.5	26.3125
18	12	13	19	51	06	-0.578197568617	-0.307806432865	0.647717998328	0.63427734375	1.0087890625	-0.20068359375	9.75	31.4375	30.5625
18	12	13	19	51	06	-0.585709416474	-0.305855552934	0.645525509444	0.57275390625	0.91259765625	-0.20361328125	-13.125	47.9375	39.5625
18	12	13	19	51	06	-0.594283831626	-0.301505815778	0.642439315158	0.5185546875	0.71484375	-0.0673828125	-22.8125	42.75	41.0625
18	12	13	19	51	06	-0.599970939253	-0.30004650431	0.641291420014	0.5400390625	0.64794921875	-0.0087890625	4.0	32.0625	28.875
18	12	13	19	51	06	-0.602801620785	-0.3028656989	0.641377018146	0.44091796875	0.6875	-0.04345703125	28.5625	29.75	20.9375
18	12	13	19	51	06	-0.60534798088	-0.304993331363	0.64166397691	0.44091796875	0.76123046875	-0.0439453125	25.5625	25.5625	24.625
18	12	13	19	51	06	-0.608288821539	-0.305059956859	0.641492626367	0.5205078125	0.748046875	-0.01806640625	11.625	20.1875	21.4375
18	12	13	19	51	06	-0.61071294118	-0.305661643957	0.640986139144	0.5810546875	0.77490234375	-0.02587890625	9.75	19.0625	12.25
18	12	13	19	51	06	-0.612345929296	-0.307546211275	0.639261563186	0.494140625	0.76953125	-0.0107421875	5.125	18.5	0.375
18	12	13	19	51	07	-0.614008939342	-0.309628961161	0.637385224011	0.5263671875	0.77001953125	0.00341796875	5.9375	18.6875	-2.625
18	12	13	19	51	07	-0.615553123873	-0.31189652583	0.635878279079	0.572265625	0.79833984375	0.0029296875	9.75	18.875	-2.4375
18	12	13	19	51	07	-0.616581690665	-0.314943726374	0.633610624707	0.53125	0.79296875	-0.0078125	5.6875	18.875	-10.75
18	12	13	19	51	07	-0.617677943071	-0.317872206276	0.630373300004	0.49755859375	0.80126953125	-0.0087890625	-3.375	19.3125	-16.75
18	12	13	19	51	07	-0.619455661457	-0.319707237631	0.626474816159	0.505859375	0.79248046875	-0.04052734375	-15.5625	21.875	-16.875
18	12	13	19	51	07	-0.620292276964	-0.322505597902	0.621635033049	0.4072265625	0.7841796875	-0.01953125	-19.875	18.5625	-27.625
18	12	13	19	51	07	-0.620958459601	-0.325859761727	0.616441954195	0.35302734375	0.84033203125	-0.03271484375	-20.4375	20.5625	-26.75
18	12	13	19	51	07	-0.623036461958	-0.326166423658	0.612172385721	0.427734375	0.90673828125	-0.01318359375	-26.6875	18.5625	-8.8125
18	12	13	19	51	07	-0.625542565483	-0.324581458019	0.609185320138	0.49609375	0.87158203125	0.00439453125	-26.875	13.5	0.0
18	12	13	19	51	07	-0.6271870262	-0.323908286108	0.60814436834	0.5732421875	0.83251953125	0.02294921875	-7.5	10.1875	2.25
18	12	13	19	51	07	-0.627937545089	-0.325443525507	0.608467086605	0.60546875	0.8134765625	-0.00634765625	12.875	12.9375	2.625
18	12	13	19	51	07	-0.627577891111	-0.32965845068	0.608900704311	0.5537109375	0.84814453125	-0.0107421875	27.3125	15.1875	-1.6875
18	12	13	19	51	07	-0.627571838072	-0.333805717022	0.608955867384	0.5703125	0.88623046875	-0.04736328125	23.875	18.75	-1.25
18	12	13	19	51	07	-0.62901830406	-0.335443877267	0.607412202795	0.4873046875	0.81884765625	-0.00390625	2.75	18.375	1.1875
18	12	13	19	51	07	-0.62976495924	-0.337770816479	0.606327302296	0.50244140625	0.83837890625	-0.06396484375	4.8125	17.9375	-1.75
18	12	13	19	51	07	-0.631892529529	-0.338498596423	0.604548971794	0.46728515625	0.76318359375	-0.03125	-3.875	20.5	4.3125
18	12	13	19	51	07	-0.63373133606	-0.339235169587	0.603640846926	0.48193359375	0.76025390625	-0.04736328125	0.8125	19.375	7.875
18	12	13	19	51	07	-0.63464147181	-0.340697124028	0.604185028798	0.5478515625	0.8076171875	-0.0322265625	14.75	14.4375	10.6875
18	12	13	19	51	07	-0.634958946741	-0.343206205664	0.604379841453	0.505859375	0.8251953125	-0.0673828125	15.0	15.6875	5.8125
18	12	13	19	51	07	-0.634971507826	-0.345715526322	0.604391797606	0.47412109375	0.88623046875	-0.046875	13.3125	12.8125	6.1875
18	12	13	19	51	07	-0.635359487778	-0.346975858599	0.604720634477	0.5654296875	0.92822265625	-0.046875	8.8125	10.5625	8.25
18	12	13	19	51	07	-0.636101107032	-0.347835368353	0.604180086212	0.501953125	0.8623046875	-0.01123046875	3.0	10.125	5.0625
18	12	13	19	51	07	-0.636033969141	-0.349846148269	0.603991186894	0.4794921875	0.8603515625	0.01708984375	12.5	7.9375	2.625
18	12	13	19	51	07	-0.636184209349	-0.352119994602	0.604323117793	0.5576171875	0.875	0.03857421875	21.0625	9.6875	5.625
18	12	13	19	51	07	-0.63673366305	-0.354500490318	0.603957016476	0.53759765625	0.8681640625	0.03759765625	18.1875	12.875	4.0
18	12	13	19	51	07	-0.637270722938	-0.356813010851	0.60339607001	0.52490234375	0.88623046875	0.0322265625	15.9375	12.8125	4.0
18	12	13	19	51	07	-0.638551422266	-0.358277274776	0.602174376991	0.48583984375	0.85595703125	0.04150390625	8.375	14.4375	5.5
18	12	13	19	51	07	-0.640074260071	-0.359252130712	0.601133916987	0.5146484375	0.85205078125	0.0234375	6.3125	15.0625	7.125
18	12	13	19	51	07	-0.641041333923	-0.360772667316	0.600026407103	0.48681640625	0.8486328125	0.03466796875	7.875	12.8125	3.875
18	12	13	19	51	07	-0.642088854672	-0.362365164467	0.599059135799	0.52880859375	0.8818359375	0.00439453125	8.375	15.0625	4.4375
18	12	13	19	51	07	-0.643470676406	-0.363756542861	0.597879042594	0.52587890625	0.8623046875	-0.00927734375	6.0	16.9375	5.4375
18	12	13	19	51	07	-0.644779900381	-0.365297965144	0.596561789694	0.50341796875	0.849609375	-0.0048828125	5.8125	17.3125	4.375
18	12	13	19	51	07	-0.646068579325	-0.36694986291	0.595469538016	0.515625	0.81494140625	0.00341796875	9.1875	17.25	4.6875
18	12	13	19	51	07	-0.646926762033	-0.369576520814	0.594252189372	0.4921875	0.81103515625	-0.00390625	13.25	18.25	1.625
18	12	13	19	51	07	-0.647810369107	-0.371450339776	0.593429453442	0.521484375	0.84521484375	-0.0234375	9.875	16.5	4.6875
18	12	13	19	51	07	-0.648727677921	-0.372977217027	0.592576632321	0.5244140625	0.85205078125	-0.046875	5.75	16.125	4.5625
18	12	13	19	51	07	-0.650087674825	-0.373780576531	0.591798901052	0.515625	0.837890625	-0.05859375	2.3125	17.125	9.0625
18	12	13	19	51	07	-0.651485770261	-0.374631783573	0.590878184551	0.4931640625	0.77783203125	-0.04296875	2.9375	16.5625	7.3125
18	12	13	19	51	07	-0.651563880938	-0.377510314155	0.590283306094	0.4716796875	0.7861328125	-0.04638671875	14.875	15.5625	1.6875
18	12	13	19	51	07	-0.6509896198	-0.38091376497	0.59026069877	0.51171875	0.9072265625	-0.05712890625	20.25	13.125	4.125
18	12	13	19	51	07	-0.651510877272	-0.381848608602	0.590229546863	0.54296875	0.90869140625	-0.05712890625	6.25	11.375	10.0
18	12	13	19	51	07	-0.652535559308	-0.382451390387	0.589180222056	0.47705078125	0.8134765625	-0.01806640625	-0.4375	11.5625	4.5625
18	12	13	19	51	07	-0.652833857681	-0.384705666134	0.58838055236	0.48583984375	0.8154296875	0.00048828125	13.125	12.625	2.0
18	12	13	19	51	07	-0.65240705759	-0.38806287512	0.588075778826	0.55419921875	0.91357421875	-0.00634765625	22.0625	12.25	1.375
18	12	13	19	51	07	-0.652888767507	-0.390927601746	0.585872607207	0.42529296875	0.861328125	0.037109375	9.375	14.25	-3.875
18	12	13	19	51	07	-0.653499177129	-0.393369029289	0.584163689577	0.48046875	0.876953125	0.01171875	9.875	14.8125	-0.9375
18	12	13	19	51	07	-0.65393896395	-0.396123191715	0.581977601388	0.40966796875	0.8251953125	0.0205078125	7.4375	14.375	-5.0
18	12	13	19	51	07	-0.654051990014	-0.399474643024	0.580138499915	0.41162109375	0.82568359375	0.01220703125	13.6875	15.1875	-3.875
18	12	13	19	51	07	-0.654356883898	-0.403014504653	0.578124093301	0.43408203125	0.79248046875	0.0263671875	16.25	16.875	-5.375
18	12	13	19	51	07	-0.654116514563	-0.408143802639	0.575686009644	0.37939453125	0.787109375	0.03662109375	24.125	19.3125	-9.4375
18	12	13	19	51	08	-0.653054961684	-0.414537317735	0.574017001368	0.470703125	0.8818359375	-0.00439453125	35.75	21.25	-8.4375
18	12	13	19	51	08	-0.653018765078	-0.419435924256	0.572024662708	0.48681640625	0.890625	-0.0029296875	26.1875	22.5	-4.9375
18	12	13	19	51	08	-0.653299380325	-0.424607977291	0.569012530154	0.44091796875	0.857421875	0.01416015625	23.4375	25.1875	-9.875
18	12	13	19	51	08	-0.653202243873	-0.431093949587	0.56549418702	0.404296875	0.7978515625	0.03076171875	30.8125	27.875	-15.375
18	12	13	19	51	08	-0.652319854238	-0.438643599589	0.561930098987	0.3916015625	0.87744140625	0.00146484375	34.875	27.875	-16.75
18	12	13	19	51	08	-0.652374152157	-0.444681267903	0.558140295769	0.43359375	0.87744140625	-0.01904296875	24.1875	28.8125	-15.9375
18	12	13	19	51	08	-0.653257325621	-0.450255002439	0.552915828534	0.36669921875	0.8125	-0.02587890625	12.375	32.6875	-21.6875
18	12	13	19	51	08	-0.653354459312	-0.456707278751	0.54740178847	0.30322265625	0.740234375	-0.0234375	14.8125	30.25	-28.8125
18	12	13	19	51	08	-0.65268908965	-0.464462686762	0.542096922973	0.353515625	0.763671875	-0.0302734375	25.375	32.1875	-32.25
18	12	13	19	51	08	-0.651405099299	-0.472395340445	0.537822705427	0.40966796875	0.85498046875	-0.01025390625	34.5625	29.0	-27.125
18	12	13	19	51	08	-0.648868434787	-0.479678019847	0.535342398788	0.4375	0.77783203125	-0.02783203125	36.375	17.0	-28.0
18	12	13	19	51	08	-0.644892300579	-0.488887689536	0.533198858401	0.57177734375	0.87158203125	-0.08251953125	49.0	18.0	-37.125
18	12	13	19	51	08	-0.640738180232	-0.498528239297	0.530144011573	0.53271484375	1.00341796875	-0.0830078125	47.5	17.875	-40.1875
18	12	13	19	51	08	-0.638364028628	-0.506040363453	0.525388427042	0.38525390625	1.12158203125	-0.07470703125	24.9375	18.25	-34.5
18	12	13	19	51	08	-0.638983761164	-0.509099584666	0.520391207153	0.32666015625	1.09375	-0.025390625	-2.625	16.125	-22.0
18	12	13	19	51	08	-0.641731128692	-0.509161220805	0.515936202285	0.37353515625	1.03271484375	0.0380859375	-14.125	15.8125	-11.1875
18	12	13	19	51	08	-0.64385483355	-0.509822677471	0.512569238046	0.43212890625	1.05712890625	0.0283203125	-3.75	17.0625	-6.75
18	12	13	19	51	08	-0.647473699663	-0.509714636679	0.509470491241	0.45751953125	0.99462890625	0.01953125	-3.3125	28.25	5.5
18	12	13	19	51	08	-0.653500424784	-0.509275011151	0.504575325646	0.41552734375	0.92041015625	0.04150390625	-7.1875	47.625	13.9375
18	12	13	19	51	08	-0.658862245703	-0.510549577148	0.499014147371	0.287109375	0.7353515625	0.04638671875	2.125	53.0	12.25
18	12	13	19	51	08	-0.661605748871	-0.514392366373	0.493274692101	0.25439453125	0.70166015625	0.0234375	12.125	45.25	-5.1875
18	12	13	19	51	08	-0.661305479969	-0.520621665356	0.488090440546	0.205078125	0.806640625	0.01220703125	25.0625	32.6875	-15.8125
18	12	13	19	51	08	-0.661281118758	-0.525362978336	0.481786169956	0.10107421875	0.796875	0.0185546875	4.875	21.6875	-26.4375
18	12	13	19	51	08	-0.6610732919	-0.530152581797	0.475770132985	0.22607421875	0.84130859375	-0.00341796875	5.8125	22.3125	-31.75
18	12	13	19	51	08	-0.660756867588	-0.537406633947	0.468132752116	0.24951171875	0.9345703125	-0.013671875	18.75	38.625	-34.625
18	12	13	19	51	08	-0.662363462177	-0.54248861517	0.460517169381	0.22314453125	0.990234375	0.01416015625	9.0625	42.875	-20.75
18	12	13	19	51	08	-0.665291487242	-0.545722127287	0.454900683891	0.42138671875	0.92041015625	0.07958984375	14.375	46.375	-8.3125
18	12	13	19	51	08	-0.665744072505	-0.552040258142	0.449688515422	0.431640625	0.99560546875	0.109375	40.1875	45.375	-12.375
18	12	13	19	51	08	-0.664918769448	-0.559083525624	0.443848842613	0.3291015625	1.125	0.1103515625	39.5625	36.6875	-19.125
18	12	13	19	51	08	-0.667033241935	-0.56236108438	0.437303795266	0.35205078125	1.064453125	0.11376953125	10.5625	36.875	-18.5625
18	12	13	19	51	08	-0.671127029916	-0.565294520833	0.427419297063	0.28857421875	0.951171875	0.115234375	-5.0625	50.4375	-29.0
18	12	13	19	51	08	-0.675230475904	-0.568907463247	0.414916096465	0.07568359375	0.91748046875	0.1396484375	-11.25	53.0625	-37.5
18	12	13	19	51	08	-0.679502361865	-0.571897703286	0.402037371563	0.0703125	0.78369140625	0.1279296875	-18.25	51.125	-44.3125
18	12	13	19	51	08	-0.682172636704	-0.576828629282	0.389638553522	0.1767578125	0.8447265625	0.10498046875	-2.75	55.4375	-48.9375
18	12	13	19	51	08	-0.683404124567	-0.58312431956	0.378292289369	0.20458984375	0.94775390625	0.0751953125	10.1875	56.125	-44.5625
18	12	13	19	51	08	-0.684444263309	-0.587276859422	0.370115035911	0.19482421875	1.00146484375	0.09619140625	6.875	39.5625	-29.5
18	12	13	19	51	08	-0.684427420454	-0.590069939446	0.366199796926	0.24462890625	0.97412109375	0.14794921875	15.625	19.75	-16.0
18	12	13	19	51	08	-0.682285657215	-0.59372706623	0.365464398909	0.287109375	0.939453125	0.134765625	32.125	8.0	-9.0625
18	12	13	19	51	08	-0.678575077692	-0.598681681695	0.366508665366	0.35986328125	0.96240234375	0.06982421875	45.0	6.25	-5.625
18	12	13	19	51	08	-0.676252998948	-0.602585366301	0.365835783005	0.275390625	1.017578125	0.1162109375	34.6875	9.125	-5.8125
18	12	13	19	51	08	-0.674617920385	-0.605221324395	0.364927218491	0.20751953125	0.96484375	0.10888671875	23.625	4.125	-6.0625
18	12	13	19	51	08	-0.673814415932	-0.605883669108	0.364921774715	0.1943359375	1.03857421875	0.138671875	13.5	-5.375	-1.5
18	12	13	19	51	08	-0.675044678821	-0.603389845825	0.366452825646	0.23193359375	1.099609375	0.1630859375	-2.3125	-11.0625	12.1875
18	12	13	19	51	08	-0.678386924319	-0.597334487477	0.368581073861	0.17041015625	1.11669921875	0.19287109375	-26.0625	-21.5625	21.0625
18	12	13	19	51	08	-0.682604511261	-0.588673150136	0.372856845431	0.15625	1.00830078125	0.263671875	-33.625	-33.0	33.4375
18	12	13	19	51	08	-0.68455478982	-0.581163579588	0.380301435036	0.19091796875	0.94580078125	0.27685546875	-12.375	-43.0625	43.4375
18	12	13	19	51	08	-0.683753332669	-0.576335153119	0.389512966982	0.193359375	0.96142578125	0.2568359375	12.5	-45.3125	49.6875
18	12	13	19	51	08	-0.681911960748	-0.572786516747	0.398661856941	0.1591796875	1.03857421875	0.2158203125	19.375	-44.0625	52.0625
18	12	13	19	51	08	-0.681018101068	-0.567983012057	0.407463420212	0.185546875	1.07177734375	0.1728515625	7.1875	-42.875	53.3125
18	12	13	19	51	08	-0.681706080263	-0.560855687307	0.415835215761	0.203125	1.05029296875	0.15576171875	-12.3125	-44.625	52.75
18	12	13	19	51	09	-0.683039521415	-0.55199798335	0.424191285303	0.2177734375	0.9501953125	0.13720703125	-26.9375	-50.75	48.625
18	12	13	19	51	09	-0.683702414362	-0.543263273544	0.432303535166	0.2041015625	0.90576171875	0.15576171875	-27.3125	-56.625	41.3125
18	12	13	19	51	09	-0.682951400881	-0.535985630254	0.440958344179	0.23828125	0.869140625	0.1162109375	-16.9375	-56.375	39.0
18	12	13	19	51	09	-0.682053304576	-0.529895909649	0.448781919333	0.27880859375	0.87939453125	0.111328125	-10.3125	-48.125	36.375
18	12	13	19	51	09	-0.680545661943	-0.524905174234	0.455874040274	0.17919921875	0.8544921875	0.1318359375	-3.9375	-47.4375	35.75
18	12	13	19	51	09	-0.678181945402	-0.520537600102	0.462862839627	0.1875	0.83203125	0.14208984375	-1.0625	-51.3125	28.1875
18	12	13	19	51	09	-0.675460148838	-0.518176259477	0.469593420544	0.31640625	0.89306640625	0.08349609375	12.75	-37.25	28.25
18	12	13	19	51	09	-0.675346491585	-0.516412712634	0.47295616478	0.30859375	0.9296875	0.041015625	6.5625	-9.1875	30.4375
18	12	13	19	51	09	-0.679907648595	-0.511090363495	0.471785109842	0.22607421875	0.83154296875	0.1279296875	-31.5625	4.4375	22.9375
18	12	13	19	51	09	-0.683826578756	-0.50829237307	0.468192938739	0.2275390625	0.6435546875	0.1484375	-24.9375	11.5625	-1.5625
18	12	13	19	51	09	-0.68290890929	-0.513417619533	0.463735981123	0.21484375	0.68798828125	0.14599609375	23.0	17.4375	-24.5
18	12	13	19	51	09	-0.68159340033	-0.518809340271	0.458078129262	0.17578125	0.99072265625	0.10400390625	13.125	14.6875	-29.8125
18	12	13	19	51	09	-0.682911541005	-0.520072324685	0.45342299027	0.255859375	0.90625	0.11865234375	-7.0625	14.0	-17.6875
18	12	13	19	51	09	-0.68338095869	-0.523475795542	0.448222716855	0.31640625	0.865234375	0.12939453125	7.6875	20.9375	-26.5625
18	12	13	19	51	09	-0.683399221351	-0.528189413376	0.441826110865	0.15625	0.96630859375	0.14892578125	12.0625	23.9375	-24.0
18	12	13	19	51	09	-0.683040988314	-0.532773191582	0.436948479612	0.22705078125	0.8525390625	0.17333984375	21.0	21.75	-20.9375
18	12	13	19	51	09	-0.681445724107	-0.539663510305	0.431389017285	0.27099609375	0.91162109375	0.14404296875	32.8125	27.375	-30.1875
18	12	13	19	51	09	-0.680052056635	-0.54766712477	0.423460883947	0.2314453125	1.0166015625	0.1142578125	29.375	36.6875	-39.5
18	12	13	19	51	09	-0.679983713603	-0.554741223672	0.413263596159	0.14990234375	1.0615234375	0.09521484375	12.8125	42.375	-44.125
18	12	13	19	51	09	-0.682420121611	-0.558033017788	0.404471706101	0.18603515625	0.93896484375	0.12060546875	-3.4375	41.5625	-28.0625
18	12	13	19	51	09	-0.686755418332	-0.558644893707	0.397026661593	0.2578125	0.796875	0.1943359375	-8.9375	41.5	-15.9375
18	12	13	19	51	09	-0.687369759976	-0.563225727674	0.390925529448	0.28076171875	0.81884765625	0.22998046875	25.0625	36.4375	-23.4375
18	12	13	19	51	09	-0.686780547066	-0.56818699899	0.384955999853	0.2099609375	0.9306640625	0.2373046875	26.4375	26.625	-27.3125
18	12	13	19	51	09	-0.687062778295	-0.571463870763	0.379144885739	0.1474609375	0.90869140625	0.2490234375	15.6875	21.875	-22.5625
18	12	13	19	51	09	-0.686751918642	-0.57536529835	0.373770774063	0.17333984375	0.91162109375	0.24609375	21.9375	22.625	-23.375
18	12	13	19	51	09	-0.687088595481	-0.579236987751	0.367623222047	0.21435546875	0.95751953125	0.2294921875	19.125	29.6875	-24.4375
18	12	13	19	51	09	-0.688035471789	-0.583057115408	0.360100175956	0.22607421875	0.90771484375	0.22998046875	14.4375	36.125	-31.375
18	12	13	19	51	09	-0.689599085639	-0.587004514176	0.351238404978	0.26025390625	0.861328125	0.24853515625	13.5625	44.4375	-37.25
18	12	13	19	51	09	-0.689925871007	-0.593126292856	0.341361942369	0.26220703125	0.8701171875	0.189453125	22.25	52.25	-44.5625
18	12	13	19	51	09	-0.689992341008	-0.600027837634	0.330805704402	0.25146484375	0.90380859375	0.09814453125	20.8125	60.0	-45.3125
18	12	13	19	51	09	-0.690825254232	-0.60684473035	0.318283744219	0.20556640625	0.84423828125	0.04638671875	11.9375	69.875	-48.75
18	12	13	19	51	09	-0.693248390378	-0.612741731908	0.303288541274	0.1435546875	0.82421875	0.0927734375	2.5	80.5625	-51.0625
18	12	13	19	51	09	-0.693290336079	-0.620232097476	0.290523989764	0.09033203125	0.9228515625	0.07666015625	20.8125	73.75	-41.25
18	12	13	19	51	09	-0.692892099147	-0.626306590456	0.28037930974	0.0517578125	1.05712890625	0.03857421875	15.5	57.0	-30.875
18	12	13	19	51	09	-0.694735903042	-0.628759489865	0.270436157988	-0.0009765625	0.99609375	0.0888671875	-7.0	46.25	-29.0
18	12	13	19	51	09	-0.696890399097	-0.63097328305	0.260494677119	-0.0166015625	0.96875	0.1640625	-3.125	48.875	-25.125
18	12	13	19	51	09	-0.69724146805	-0.634499501212	0.252249561226	-0.07275390625	1.04541015625	0.19677734375	13.8125	42.1875	-17.375
18	12	13	19	51	09	-0.698223497652	-0.635908271157	0.245415794061	-0.11962890625	1.08349609375	0.2392578125	4.4375	26.8125	-14.6875
18	12	13	19	51	09	-0.700129681735	-0.635921118821	0.239439346303	-0.12109375	1.04736328125	0.318359375	1.3125	22.75	-8.875
18	12	13	19	51	09	-0.701766459994	-0.636155141113	0.233393193861	-0.12548828125	1.08349609375	0.34521484375	4.6875	22.5625	-10.4375
18	12	13	19	51	09	-0.704083619361	-0.635298751208	0.227044995148	-0.12939453125	1.052734375	0.349609375	-4.3125	19.5625	-14.0
18	12	13	19	51	09	-0.706659354177	-0.633967067874	0.221006522843	-0.1044921875	1.001953125	0.34619140625	-7.3125	18.3125	-14.5
18	12	13	19	51	09	-0.708843923365	-0.633406426441	0.214410943928	-0.1005859375	0.958984375	0.30712890625	-5.5	23.4375	-16.875
18	12	13	19	51	09	-0.71087166764	-0.633357542294	0.208128478291	-0.0576171875	0.88134765625	0.26123046875	-3.8125	28.625	-13.8125
18	12	13	19	51	09	-0.7121942396	-0.63401094875	0.202263408178	-0.044921875	0.84765625	0.20703125	-1.5	28.375	-14.375
18	12	13	19	51	09	-0.713051525275	-0.635295157629	0.196405016548	-0.0322265625	0.82177734375	0.15869140625	0.625	30.4375	-15.125
18	12	13	19	51	09	-0.713762186277	-0.636374375059	0.191516523347	-0.03125	0.8310546875	0.16064453125	1.1875	25.875	-11.625
18	12	13	19	51	09	-0.713431916402	-0.638237449724	0.187619959879	0.0107421875	0.90673828125	0.0888671875	3.5625	21.625	-14.625
18	12	13	19	51	09	-0.714147288065	-0.638832549712	0.183038006744	-0.068359375	0.92333984375	0.10791015625	-5.75	20.5625	-12.0
18	12	13	19	51	10	-0.713991506699	-0.639772522928	0.179810136667	-0.1220703125	0.958984375	0.0791015625	-2.375	11.75	-8.125
18	12	13	19	51	10	-0.714144630521	-0.640233926516	0.176873014208	-0.10498046875	0.96826171875	0.06494140625	-6.3125	9.9375	-8.0625
18	12	13	19	51	10	-0.713958258331	-0.641146478353	0.173759545347	-0.11767578125	0.923828125	0.1357421875	1.8125	11.5	-8.4375
18	12	13	19	51	10	-0.712872731402	-0.642806130747	0.171992753176	-0.05810546875	1.00537109375	0.16259765625	11.625	7.8125	-8.6875
18	12	13	19	51	10	-0.711731333531	-0.64459262614	0.169616788945	-0.08251953125	1.0322265625	0.16943359375	11.8125	9.6875	-10.8125
18	12	13	19	51	10	-0.711469352938	-0.645369901172	0.166621886722	-0.1640625	1.0400390625	0.21630859375	6.4375	9.1875	-7.875
18	12	13	19	51	10	-0.711474044015	-0.645740360786	0.165158167891	-0.140625	1.00146484375	0.2353515625	8.1875	6.3125	0.4375
18	12	13	19	51	10	-0.711217846492	-0.646339740354	0.163751607495	-0.14892578125	0.99365234375	0.24462890625	10.8125	5.375	0.0625
18	12	13	19	51	10	-0.710536923136	-0.647124462808	0.161430180527	-0.2509765625	1.0126953125	0.2568359375	11.3125	3.0625	-3.8125
18	12	13	19	51	10	-0.710301034778	-0.647070937508	0.159601065986	-0.2724609375	1.009765625	0.28369140625	8.1875	-1.875	-1.5625
18	12	13	19	51	10	-0.709861059249	-0.646998288118	0.157217959645	-0.3271484375	1.046875	0.2919921875	7.3125	-3.875	-5.25
18	12	13	19	51	10	-0.710051979561	-0.645784768415	0.154656327678	-0.3701171875	1.02490234375	0.3056640625	-0.3125	-9.125	-6.5625
18	12	13	19	51	10	-0.710787641946	-0.643712627477	0.1518495323	-0.37158203125	1.01123046875	0.33642578125	-4.9375	-11.25	-9.75
18	12	13	19	51	10	-0.710982974696	-0.642014757561	0.14953286016	-0.349609375	0.9912109375	0.3115234375	-3.125	-13.6875	-11.625
18	12	13	19	51	10	-0.710927192462	-0.640493643346	0.147825005163	-0.27685546875	0.98876953125	0.28466796875	-2.5	-14.625	-14.375
18	12	13	19	51	10	-0.710302765192	-0.639931645733	0.147028644213	-0.1923828125	0.9580078125	0.2099609375	0.875	-11.625	-12.875
18	12	13	19	51	10	-0.7100056454	-0.639084424739	0.146847209046	-0.14697265625	0.9287109375	0.16845703125	-2.625	-12.0625	-10.375
18	12	13	19	51	10	-0.709382496983	-0.638645655031	0.147271785702	-0.11669921875	0.90185546875	0.14013671875	-0.25	-12.125	-9.25
18	12	13	19	51	10	-0.709322543678	-0.637670102938	0.147577173517	-0.1396484375	0.90283203125	0.15869140625	-3.625	-11.4375	-6.0
18	12	13	19	51	10	-0.709079334525	-0.636755439585	0.148126660776	-0.1494140625	0.873046875	0.15087890625	-2.75	-13.25	-5.5625
18	12	13	19	51	10	-0.709267126564	-0.635477955579	0.148554873596	-0.134765625	0.8681640625	0.17236328125	-4.1875	-12.125	-5.125
18	12	13	19	51	10	-0.709080754241	-0.634620561422	0.149042451528	-0.169921875	0.86767578125	0.173828125	-1.3125	-11.6875	-3.125
18	12	13	19	51	10	-0.708468987824	-0.63400894603	0.150018674369	-0.17431640625	0.884765625	0.16015625	0.875	-14.875	-3.4375
18	12	13	19	51	10	-0.707946413396	-0.633361490801	0.151428144809	-0.17431640625	0.927734375	0.1787109375	1.875	-15.0	-0.0625
18	12	13	19	51	10	-0.70743171183	-0.632605443285	0.153131409281	-0.1650390625	0.9326171875	0.1640625	0.75	-16.75	-0.1875
18	12	13	19	51	10	-0.707285147514	-0.631356365713	0.154848327515	-0.17333984375	0.94189453125	0.19775390625	-0.375	-17.375	1.125
18	12	13	19	51	10	-0.706734040914	-0.630384793489	0.156299298686	-0.20361328125	0.97314453125	0.208984375	1.5625	-18.0	-1.125
18	12	13	19	51	10	-0.706261715792	-0.629483523737	0.158194812248	-0.19482421875	0.9814453125	0.20654296875	2.5625	-17.625	2.25
18	12	13	19	51	10	-0.706100830631	-0.628343681506	0.159481499735	-0.2109375	0.9892578125	0.236328125	1.0	-15.3125	1.9375
18	12	13	19	51	10	-0.705671849393	-0.627365588991	0.160518678767	-0.20703125	0.96044921875	0.2294921875	1.75	-15.6875	-1.5625
18	12	13	19	51	10	-0.705608549935	-0.626020837011	0.160884364469	-0.2138671875	0.98583984375	0.26123046875	-0.75	-14.0625	-3.9375
18	12	13	19	51	10	-0.705019886969	-0.625246621255	0.161255522584	-0.21142578125	0.955078125	0.2216796875	1.125	-14.1875	-5.5625
18	12	13	19	51	10	-0.705447289811	-0.623293625502	0.161255558027	-0.2177734375	0.97705078125	0.24072265625	-7.625	-14.3125	-4.9375
18	12	13	19	51	10	-0.704943977261	-0.622364825639	0.161191086056	-0.2265625	0.91259765625	0.22802734375	-0.5	-13.4375	-6.75
18	12	13	19	51	10	-0.704698693643	-0.62108209826	0.161740129755	-0.21484375	0.93408203125	0.2314453125	-1.9375	-15.625	-4.1875
18	12	13	19	51	10	-0.704073588745	-0.620275648614	0.162408098097	-0.21044921875	0.900390625	0.234375	2.3125	-14.375	-4.3125
18	12	13	19	51	10	-0.703102765437	-0.619609312042	0.163385946448	-0.22314453125	0.876953125	0.22900390625	4.5	-17.3125	-4.3125
18	12	13	19	51	10	-0.702320405266	-0.618276327918	0.164487137585	-0.2626953125	0.92529296875	0.24755859375	0.6875	-21.8125	-3.625
18	12	13	19	51	10	-0.701151474327	-0.617291609623	0.165949761377	-0.2353515625	0.923828125	0.21044921875	1.6875	-22.8125	-5.5
18	12	13	19	51	10	-0.700734330801	-0.615225333549	0.167416973207	-0.24560546875	0.951171875	0.228515625	-5.0625	-25.5	-4.375
18	12	13	19	51	10	-0.699374782248	-0.613867838367	0.16997633027	-0.2421875	0.955078125	0.21240234375	1.625	-29.875	-3.375
18	12	13	19	51	10	-0.698152784456	-0.612218776194	0.172722473993	-0.2314453125	0.98583984375	0.21044921875	-0.3125	-30.875	-3.4375
