18	12	13	19	52	21	-0.559989854588	-0.471795267135	0.511833778809	0.16357421875	1.0361328125	0.05810546875	-3.0	-3.75	2.5
18	12	13	19	52	21	-0.560304754883	-0.470460680897	0.511476453804	0.13525390625	0.9638671875	0.064453125	-7.9375	-5.3125	-0.1875
18	12	13	19	52	21	-0.560428565798	-0.469485572655	0.511966326499	0.17626953125	0.95947265625	0.05126953125	-2.125	-4.8125	1.4375
18	12	13	19	52	21	-0.560673701239	-0.46881501189	0.51215034042	0.15087890625	0.94091796875	0.03759765625	-2.5	-2.3125	2.0
18	12	13	19	52	21	-0.560910726835	-0.468137679523	0.51299833069	0.17626953125	0.93359375	0.03466796875	1.25	-2.125	4.5
18	12	13	19	52	21	-0.560599463703	-0.468010526693	0.513297930293	0.1416015625	0.931640625	0.0556640625	2.375	-2.875	-0.1875
18	12	13	19	52	21	-0.560307776293	-0.467899718198	0.513493390191	0.13916015625	0.92919921875	0.04443359375	0.625	-2.5625	-0.375
18	12	13	19	52	21	-0.560599557678	-0.466911988703	0.51445766703	0.17822265625	0.93701171875	0.03466796875	0.125	-3.625	5.5
18	12	13	19	52	21	-0.560301492441	-0.466002385053	0.515440752033	0.12646484375	0.908203125	0.03564453125	0.125	-7.125	5.0625
18	12	13	19	52	21	-0.559690391632	-0.465086236013	0.517515248708	0.18017578125	0.923828125	0.03662109375	6.375	-9.125	6.9375
18	12	13	19	52	21	-0.559118040158	-0.464700879572	0.519446964281	0.17822265625	0.9501953125	0.02197265625	8.125	-5.75	6.8125
18	12	13	19	52	21	-0.558097553766	-0.464959226224	0.520195259268	0.14892578125	0.9697265625	0.00341796875	3.5625	-5.0625	-1.0625
18	12	13	19	52	21	-0.558522623739	-0.464163977001	0.521291851093	0.203125	0.97607421875	0.0166015625	1.375	-1.375	6.875
18	12	13	19	52	21	-0.558725214852	-0.46302048065	0.521920396788	0.12646484375	0.93212890625	0.0224609375	-3.3125	-5.0	7.1875
18	12	13	19	52	21	-0.558462964806	-0.462089957	0.523246229211	0.18310546875	0.93798828125	0.0302734375	2.3125	-6.8125	4.75
18	12	13	19	52	21	-0.558473878756	-0.461671739772	0.525209587617	0.22314453125	0.97412109375	0.021484375	8.9375	-2.1875	9.0625
18	12	13	19	52	21	-0.557979860609	-0.461789064249	0.525997641514	0.1650390625	0.9794921875	-0.00048828125	3.8125	-2.4375	2.5
18	12	13	19	52	21	-0.557977127256	-0.461786802102	0.526056099302	0.19482421875	0.99951171875	0.009765625	-0.1875	-0.6875	-0.4375
18	12	13	19	52	21	-0.5587793888	-0.461366837787	0.525515077834	0.15478515625	0.95458984375	0.02197265625	-4.75	2.875	2.5625
18	12	13	19	52	21	-0.559490271266	-0.460311511497	0.525128645574	0.16015625	0.93603515625	0.06298828125	-5.625	-1.5625	2.5
18	12	13	19	52	21	-0.559630294841	-0.459532826901	0.5253896366	0.15380859375	0.9306640625	0.0634765625	-0.3125	-3.875	3.0
18	12	13	19	52	21	-0.559650810179	-0.458756188167	0.526446530461	0.171875	0.9287109375	0.04345703125	2.875	-4.375	6.625
18	12	13	19	52	21	-0.559017144521	-0.458309830572	0.527523220886	0.17529296875	0.94775390625	0.01220703125	2.5	-6.375	2.5625
18	12	13	19	52	21	-0.559019114551	-0.457456956388	0.528928883797	0.2041015625	0.92919921875	0.00537109375	1.875	-4.25	6.75
18	12	13	19	52	21	-0.55908729025	-0.456364156026	0.530461532703	0.21484375	0.94091796875	0.0048828125	1.6875	-5.0625	7.3125
18	12	13	19	52	21	-0.558781206076	-0.455997202686	0.531559314442	0.185546875	0.935546875	-0.00634765625	2.5	-3.6875	4.75
18	12	13	19	52	21	-0.558705636405	-0.455619136527	0.532583065684	0.20263671875	0.94677734375	-0.00830078125	2.0	-2.5	4.625
18	12	13	19	52	21	-0.558754211054	-0.45499865029	0.533425647691	0.20751953125	0.96923828125	0.01171875	1.0625	-2.6875	4.375
18	12	13	19	52	21	-0.558902929627	-0.454348957971	0.53345108714	0.1826171875	0.9814453125	0.0390625	-2.375	-3.0	1.6875
18	12	13	19	52	21	-0.559263315814	-0.453916979124	0.533140353993	0.16357421875	0.97412109375	0.03369140625	-3.25	-0.125	2.1875
18	12	13	19	52	21	-0.559492255361	-0.453233281151	0.533186903331	0.166015625	0.93310546875	0.03759765625	-2.5625	-2.25	3.0
18	12	13	19	52	21	-0.559201953798	-0.452940154894	0.533933496161	0.197265625	0.9453125	0.0224609375	2.75	-3.625	2.1875
18	12	13	19	52	21	-0.559071664686	-0.452201087735	0.535207361095	0.208984375	0.94384765625	0.0078125	2.5	-4.5	5.75
18	12	13	19	52	21	-0.55860857197	-0.451977324677	0.535963928155	0.1767578125	0.912109375	0.00732421875	2.0	-4.1875	2.375
18	12	13	19	52	21	-0.558346100424	-0.451596283017	0.536922895215	0.22802734375	0.94189453125	-0.00634765625	1.8125	-3.4375	1.8125
18	12	13	19	52	21	-0.558769497137	-0.45043352145	0.537712645524	0.24609375	0.94873046875	0.02880859375	-1.0	-3.375	4.25
18	12	13	19	52	21	-0.558577110636	-0.449754668736	0.53843610905	0.208984375	0.9345703125	0.0029296875	-0.875	-4.5	2.3125
18	12	13	19	52	21	-0.558294403953	-0.449589655572	0.538701914211	0.169921875	0.921875	0.01025390625	-0.0625	-2.6875	0.9375
18	12	13	19	52	21	-0.558112409971	-0.449529516561	0.53974059945	0.23095703125	0.9560546875	0.01171875	6.0	-1.625	3.625
18	12	13	19	52	21	-0.557743696958	-0.449405432338	0.540226467693	0.19287109375	0.96337890625	0.0146484375	2.0	-3.25	1.1875
18	12	13	19	52	21	-0.557477045482	-0.449326254525	0.540631888425	0.19287109375	0.9482421875	0.00390625	1.0	-1.75	1.4375
18	12	13	19	52	21	-0.557725194118	-0.448413985685	0.541429218321	0.1982421875	0.94677734375	0.017578125	0.0	-3.5	6.75
18	12	13	19	52	22	-0.557352374583	-0.4477372996	0.542277250129	0.18798828125	0.9296875	-0.00830078125	-0.5625	-5.5625	3.6875
18	12	13	19	52	22	-0.556761515152	-0.447875027207	0.542906564051	0.2001953125	0.94189453125	-0.015625	2.5	-2.6875	0.125
18	12	13	19	52	22	-0.556824130815	-0.447510087376	0.543884668387	0.2509765625	0.98388671875	0.01171875	3.9375	-1.5625	4.375
18	12	13	19	52	22	-0.556687728385	-0.447315465556	0.543748599077	0.216796875	0.99658203125	0.01416015625	-1.8125	-2.125	-2.125
18	12	13	19	52	22	-0.557436684034	-0.446901500109	0.542666107275	0.2265625	0.96142578125	0.037109375	-6.6875	2.4375	-3.6875
18	12	13	19	52	22	-0.558170101186	-0.446719187598	0.54181257389	0.22314453125	0.94580078125	0.03076171875	-4.5625	3.625	-2.125
18	12	13	19	52	22	-0.557745381015	-0.447392607008	0.540594313816	0.14990234375	0.91650390625	0.00439453125	-4.625	0.75	-7.5625
18	12	13	19	52	22	-0.557501659321	-0.448003304074	0.540289543279	0.19677734375	0.9091796875	0.0068359375	1.0	1.4375	-4.0
18	12	13	19	52	22	-0.557002718122	-0.449093359625	0.540706451878	0.20361328125	0.931640625	-0.0126953125	7.4375	2.9375	-0.9375
18	12	13	19	52	22	-0.556579864572	-0.449768288412	0.541076927232	0.20361328125	0.9404296875	-0.01513671875	4.3125	1.25	-0.875
18	12	13	19	52	22	-0.556580946902	-0.450257445476	0.54101694411	0.21923828125	0.9267578125	0.0087890625	2.5625	2.3125	-2.25
18	12	13	19	52	22	-0.556329154073	-0.450922631958	0.540826399807	0.2080078125	0.9306640625	0.01025390625	3.0625	1.75	-3.5625
18	12	13	19	52	22	-0.556515377546	-0.451291368894	0.540524257902	0.21044921875	0.91845703125	0.00830078125	0.5	3.0	-2.25
18	12	13	19	52	22	-0.556486778642	-0.451561828276	0.540555765235	0.21923828125	0.92138671875	0.01708984375	2.5625	1.25	-1.9375
18	12	13	19	52	22	-0.556212245495	-0.452269586208	0.540465207271	0.17529296875	0.91015625	0.00927734375	3.9375	1.75	-1.5
18	12	13	19	52	22	-0.555850005874	-0.452822136113	0.541018387182	0.21728515625	0.96142578125	0.00048828125	6.1875	0.625	0.1875
18	12	13	19	52	22	-0.555471365945	-0.453483380834	0.540762147267	0.1806640625	0.9619140625	-0.0029296875	1.4375	0.9375	-3.0
18	12	13	19	52	22	-0.555474322885	-0.453546829289	0.540703991478	0.20849609375	0.9697265625	-0.0146484375	-1.0625	0.75	-0.75
18	12	13	19	52	22	-0.555323068002	-0.454061145622	0.54030773774	0.16162109375	0.94287109375	-0.0087890625	-0.3125	1.8125	-1.5625
18	12	13	19	52	22	-0.555553362673	-0.454110856766	0.540782552547	0.248046875	0.96484375	-0.00634765625	2.9375	1.8125	1.3125
18	12	13	19	52	22	-0.555236558888	-0.45495584368	0.540405022798	0.1767578125	0.94970703125	0.00390625	2.8125	2.375	-3.3125
18	12	13	19	52	22	-0.555109833711	-0.455196167105	0.540583595072	0.232421875	0.986328125	0.009765625	2.9375	0.25	-1.5
18	12	13	19	52	22	-0.55534619048	-0.455433923878	0.539599480166	0.17236328125	0.96484375	0.0234375	-3.125	2.375	-3.5
18	12	13	19	52	22	-0.556021845208	-0.454949158527	0.539359500121	0.24267578125	0.943359375	0.009765625	-3.1875	1.75	-0.5
18	12	13	19	52	22	-0.556032172897	-0.45538485642	0.538576058578	0.16943359375	0.92822265625	0.0263671875	-0.625	1.875	-3.8125
18	12	13	19	52	22	-0.556093270411	-0.455690084172	0.538454048026	0.1982421875	0.931640625	0.0107421875	1.75	2.0	-0.875
18	12	13	19	52	22	-0.555780393573	-0.45653825433	0.537714173883	0.154296875	0.92822265625	0.0166015625	0.875	2.1875	-4.6875
18	12	13	19	52	22	-0.555790224096	-0.456912543112	0.537479542432	0.1923828125	0.9296875	0.00048828125	0.8125	2.0	-2.125
18	12	13	19	52	22	-0.556138800699	-0.45695908701	0.537340430351	0.20654296875	0.91064453125	-0.01220703125	-1.25	2.75	-0.25
18	12	13	19	52	22	-0.556096632686	-0.457462875862	0.537541767541	0.21044921875	0.90576171875	-0.025390625	2.5	2.625	-0.875
18	12	13	19	52	22	-0.555591715293	-0.458669860532	0.537891880355	0.20166015625	0.931640625	-0.0439453125	6.0625	3.875	-1.9375
18	12	13	19	52	22	-0.555240147624	-0.459902661575	0.538333307908	0.21044921875	0.94921875	-0.03857421875	7.5625	4.625	-0.3125
18	12	13	19	52	22	-0.554801747539	-0.460808932224	0.538017316233	0.1845703125	0.99267578125	-0.009765625	3.0625	2.0625	-4.125
18	12	13	19	52	22	-0.555537698945	-0.460689799125	0.536861085467	0.19189453125	0.97119140625	0.01318359375	-6.3125	3.625	-2.9375
18	12	13	19	52	22	-0.556445825263	-0.460500576024	0.534839834022	0.17822265625	0.94873046875	0.03271484375	-10.4375	4.4375	-6.8125
18	12	13	19	52	22	-0.557540979012	-0.460619788572	0.532944480431	0.19873046875	0.91162109375	0.03466796875	-7.9375	7.1875	-6.625
18	12	13	19	52	22	-0.558427796915	-0.461073732418	0.531449429199	0.18310546875	0.904296875	0.03955078125	-3.3125	7.625	-4.5625
18	12	13	19	52	22	-0.558475348631	-0.461978132654	0.530521063421	0.14892578125	0.91552734375	0.0302734375	1.4375	4.8125	-3.6875
18	12	13	19	52	22	-0.558276366269	-0.462819469271	0.529956673042	0.1552734375	0.94091796875	0.02197265625	2.625	3.0	-3.1875
18	12	13	19	52	22	-0.558897187269	-0.463011255064	0.530088683131	0.2373046875	0.9638671875	0.00439453125	2.5	4.875	0.875
18	12	13	19	52	22	-0.55913170415	-0.463186388254	0.529896458403	0.1904296875	0.98095703125	-0.01416015625	-1.3125	2.8125	0.1875
18	12	13	19	52	22	-0.559207558661	-0.463442806474	0.52917807614	0.1533203125	0.9521484375	-0.017578125	-4.75	2.125	-2.125
18	12	13	19	52	22	-0.559620971949	-0.463858587284	0.529042925603	0.2197265625	0.99853515625	0.01318359375	2.6875	5.0	-0.4375
18	12	13	19	52	22	-0.560054083049	-0.46435172884	0.528804334736	0.19775390625	1.0029296875	0.03076171875	3.3125	5.0625	1.125
18	12	13	19	52	22	-0.560197199836	-0.464308138936	0.527969686052	0.1728515625	0.99755859375	0.03564453125	-3.375	0.1875	-3.8125
18	12	13	19	52	22	-0.560206390257	-0.464559908068	0.526818626532	0.15087890625	0.943359375	0.05517578125	-2.5625	0.9375	-5.6875
18	12	13	19	52	22	-0.560475000449	-0.46416338652	0.526906313719	0.17724609375	0.935546875	0.025390625	-0.875	-0.375	2.0625
18	12	13	19	52	22	-0.560304589985	-0.463929759094	0.526674107515	0.14697265625	0.90673828125	0.0068359375	-3.4375	-2.5625	-1.4375
18	12	13	19	52	22	-0.560045393685	-0.464039355731	0.527270287276	0.1845703125	0.92041015625	0.01025390625	3.6875	-1.125	1.25
18	12	13	19	52	23	-0.559922564942	-0.464465960236	0.527330604	0.1484375	0.958984375	0.0068359375	2.5625	1.4375	1.6875
18	12	13	19	52	23	-0.560055233664	-0.463986474097	0.527401620978	0.20263671875	0.97900390625	0.01220703125	-2.5	-1.4375	-0.125
18	12	13	19	52	23	-0.56082005115	-0.462986277943	0.527435725545	0.21484375	0.9599609375	0.03466796875	-3.875	-0.875	2.4375
18	12	13	19	52	23	-0.560916512854	-0.462283097754	0.527469042882	0.173828125	0.94482421875	0.01171875	-4.375	-3.125	1.0
18	12	13	19	52	23	-0.560910560716	-0.461789913208	0.528012759604	0.20703125	0.95654296875	0.02587890625	0.5625	-2.8125	1.25
18	12	13	19	52	23	-0.560846385631	-0.461848362179	0.52874221773	0.19482421875	0.951171875	-0.00244140625	3.8125	0.0625	3.1875
18	12	13	19	52	23	-0.560473463797	-0.462209032052	0.528674849549	0.16552734375	0.9580078125	0.00830078125	0.9375	-0.3125	-1.3125
18	12	13	19	52	23	-0.560597878665	-0.462333035481	0.52843292689	0.17431640625	0.95703125	0.01318359375	-0.3125	1.25	-0.25
18	12	13	19	52	23	-0.560915809704	-0.46209941189	0.527834594377	0.1591796875	0.9580078125	0.0185546875	-4.625	0.875	-0.625
18	12	13	19	52	23	-0.561216069632	-0.461790188454	0.527585829896	0.177734375	0.91748046875	0.017578125	-3.0625	0.125	0.0625
18	12	13	19	52	23	-0.561030335684	-0.462032162873	0.527827495974	0.1640625	0.9208984375	0.00244140625	1.9375	0.3125	1.125
18	12	13	19	52	23	-0.560603838812	-0.46258208975	0.528255440927	0.1669921875	0.947265625	-0.005859375	4.125	0.25	0.8125
18	12	13	19	52	23	-0.560241834878	-0.463012807428	0.528259405259	0.162109375	0.98046875	0.0048828125	1.8125	0.125	-0.375
18	12	13	19	52	23	-0.56073789541	-0.462653014826	0.528144661912	0.2060546875	1.0107421875	0.0107421875	-2.5625	1.375	1.0625
18	12	13	19	52	23	-0.561411390409	-0.461983345728	0.52704798393	0.17822265625	0.9814453125	0.03857421875	-8.6875	0.4375	-2.3125
18	12	13	19	52	23	-0.561949548958	-0.461485884618	0.526305089678	0.18359375	0.95166015625	0.0458984375	-5.4375	0.4375	-2.1875
18	12	13	19	52	23	-0.561840997822	-0.461802171594	0.526134644348	0.18212890625	0.9462890625	0.0146484375	0.4375	1.0	-1.9375
18	12	13	19	52	23	-0.561583924536	-0.462462927531	0.525939428076	0.1513671875	0.9150390625	0.01416015625	2.5	1.875	-1.5
18	12	13	19	52	23	-0.561215532329	-0.462949408669	0.526059453305	0.1806640625	0.9345703125	0.02490234375	4.0625	0.0	-1.9375
18	12	13	19	52	23	-0.56084958747	-0.463376871049	0.525510387214	0.1376953125	0.91162109375	0.0185546875	-1.0	-0.0625	-3.625
18	12	13	19	52	23	-0.561040044868	-0.462589479988	0.52594452422	0.169921875	0.9375	0.0009765625	-3.1875	-2.8125	3.8125
18	12	13	19	52	23	-0.561274297532	-0.461360636695	0.526728706797	0.16796875	0.9091796875	0.0234375	-2.3125	-5.0625	6.3125
18	12	13	19	52	23	-0.560430741285	-0.461064454331	0.528081765802	0.1689453125	0.9404296875	0.02001953125	5.4375	-7.25	3.5625
18	12	13	19	52	23	-0.559941903118	-0.460819857046	0.529118853078	0.16796875	0.99951171875	0.021484375	4.75	-4.5	5.0
18	12	13	19	52	23	-0.559570717948	-0.459900235573	0.529602434515	0.13623046875	1.001953125	0.017578125	-3.1875	-7.25	4.0625
18	12	13	19	52	23	-0.559935465876	-0.458495227781	0.529723120595	0.19970703125	0.994140625	0.0244140625	-7.6875	-5.25	1.9375
18	12	13	19	52	23	-0.560506096363	-0.457413991739	0.529377041681	0.16162109375	0.93701171875	0.0224609375	-8.0625	-2.0	2.375
18	12	13	19	52	23	-0.560007183311	-0.45740532226	0.529305972062	0.12890625	0.9287109375	0.01171875	-1.8125	-3.25	-0.4375
18	12	13	19	52	23	-0.559638248436	-0.45783035244	0.530096868543	0.18603515625	0.96923828125	-0.0078125	5.375	0.125	2.375
18	12	13	19	52	23	-0.558951494546	-0.458733285981	0.530509542542	0.12939453125	0.97119140625	-0.0166015625	5.25	0.6875	2.25
18	12	13	19	52	23	-0.558100710779	-0.45910253133	0.530574089983	0.126953125	1.005859375	-0.0068359375	0.1875	-3.3125	-0.625
18	12	13	19	52	23	-0.557988236559	-0.459171461784	0.529911821243	0.10693359375	0.95947265625	-0.00341796875	-5.1875	-0.125	-0.125
18	12	13	19	52	23	-0.558047375229	-0.458864723501	0.529604842487	0.1533203125	0.9326171875	0.00341796875	-5.125	-1.125	-0.1875
18	12	13	19	52	23	-0.557433975086	-0.459594638388	0.528747457152	0.06982421875	0.88134765625	0.00439453125	-2.0625	-0.0625	-3.25
18	12	13	19	52	23	-0.556988844379	-0.459518848272	0.530012176702	0.16796875	0.931640625	0.0068359375	6.375	-3.0	5.4375
18	12	13	19	52	23	-0.555604568303	-0.460267389825	0.529725590278	0.03955078125	0.9052734375	0.01123046875	0.8125	-5.125	-2.0
18	12	13	19	52	23	-0.554991328804	-0.459898786159	0.530638360566	0.1494140625	0.92626953125	-0.015625	0.5625	-5.375	2.9375
18	12	13	19	52	23	-0.554510720815	-0.459905149294	0.530462594893	0.107421875	0.9228515625	-0.005859375	-2.5625	-2.9375	-0.25
18	12	13	19	52	23	-0.554030688912	-0.459912001868	0.530592572294	0.12109375	0.96240234375	-0.029296875	-3.0	-2.5	1.1875
18	12	13	19	52	23	-0.553900015623	-0.460393147972	0.53052329871	0.12548828125	0.982421875	-0.03271484375	-0.75	2.125	2.4375
18	12	13	19	52	23	-0.5535901324	-0.461121659348	0.530885002383	0.134765625	0.99365234375	-0.0146484375	4.6875	2.125	3.1875
18	12	13	19	52	23	-0.552862856806	-0.461980455196	0.530584766418	0.11181640625	1.02587890625	0.0087890625	2.9375	-0.1875	-1.75
18	12	13	19	52	23	-0.552613324747	-0.462281126754	0.52996923998	0.1376953125	1.0439453125	0.02587890625	-1.4375	0.0	-2.375
18	12	13	19	52	23	-0.552997870393	-0.461991267219	0.528827102548	0.12060546875	1.01171875	0.0283203125	-7.5	0.625	-1.125
18	12	13	19	52	23	-0.554197416404	-0.460752896083	0.528562734147	0.1796875	0.92724609375	0.0322265625	-7.0	0.8125	4.5625
18	12	13	19	52	23	-0.553527626857	-0.461547680482	0.528259081536	0.1279296875	0.8955078125	0.013671875	2.25	0.0625	-4.3125
18	12	13	19	52	23	-0.552425941498	-0.462948930092	0.5291716841	0.17041015625	0.9375	-0.00830078125	11.875	0.5	-1.625
18	12	13	19	52	23	-0.551818408768	-0.463622678133	0.530089910425	0.17919921875	0.98388671875	-0.025390625	7.125	0.125	1.375
18	12	13	19	52	23	-0.551748545701	-0.46343215791	0.530386599794	0.16064453125	0.95556640625	-0.01611328125	-1.1875	-1.125	1.75
18	12	13	19	52	23	-0.552495811116	-0.46216286807	0.530706040395	0.203125	0.9482421875	0.021484375	-4.4375	-2.25	4.1875
18	12	13	19	52	24	-0.552967107668	-0.461294194233	0.530262497949	0.1787109375	0.90625	0.0322265625	-6.0625	-1.75	-1.375
18	12	13	19	52	24	-0.552921318905	-0.461428984537	0.529666762938	0.1435546875	0.89208984375	0.01611328125	-2.5625	0.25	-3.125
18	12	13	19	52	24	-0.553580280057	-0.460930350054	0.530143143613	0.19677734375	0.91357421875	0.0341796875	1.875	1.125	4.8125
18	12	13	19	52	24	-0.553936113184	-0.460555521164	0.530926647045	0.17333984375	0.9287109375	-0.00048828125	2.0	0.4375	6.6875
18	12	13	19	52	24	-0.554067701302	-0.459525856257	0.532339556152	0.2060546875	0.9541015625	-0.00830078125	0.9375	-4.4375	7.375
18	12	13	19	52	24	-0.554492106151	-0.458180763993	0.533313376285	0.19775390625	0.9443359375	0.01708984375	-1.25	-4.5	7.3125
18	12	13	19	52	24	-0.555122294315	-0.456488140647	0.534247987041	0.2431640625	0.99462890625	0.02685546875	-3.3125	-5.0625	5.9375
18	12	13	19	52	24	-0.555966198898	-0.455014602348	0.534481941349	0.20947265625	0.97119140625	0.02880859375	-5.8125	-2.4375	4.875
18	12	13	19	52	24	-0.556948557153	-0.453066207096	0.535769253117	0.26171875	1.01220703125	0.03857421875	-1.625	-4.25	10.25
18	12	13	19	52	24	-0.557617799262	-0.450989264311	0.536926858593	0.22900390625	1.0087890625	0.052734375	-2.4375	-7.1875	9.8125
18	12	13	19	52	24	-0.557126929378	-0.449461295787	0.537656783621	0.17626953125	1.01025390625	0.05126953125	-3.4375	-11.6875	3.125
18	12	13	19	52	24	-0.557248954626	-0.447508141875	0.538450194711	0.22900390625	0.99365234375	0.060546875	-4.3125	-9.625	3.6875
18	12	13	19	52	24	-0.557672598913	-0.445308009376	0.539179133063	0.25	0.97998046875	0.06884765625	-5.4375	-9.4375	3.875
18	12	13	19	52	24	-0.558277624462	-0.4432896454	0.539662266918	0.20703125	0.87841796875	0.0341796875	-8.0625	-6.75	5.5625
18	12	13	19	52	24	-0.558361439833	-0.442392185823	0.540599833034	0.24560546875	0.8720703125	0.01953125	0.3125	-4.1875	2.0625
18	12	13	19	52	24	-0.557729030415	-0.442801938681	0.541738112713	0.212890625	0.87353515625	0.0166015625	8.5625	-1.9375	1.5
18	12	13	19	52	24	-0.557129987571	-0.442810918036	0.543091874388	0.18798828125	0.89208984375	0.00439453125	7.1875	-3.8125	4.8125
18	12	13	19	52	24	-0.556285347754	-0.443001871187	0.544444294707	0.2431640625	0.9228515625	-0.01806640625	6.375	-3.8125	0.4375
18	12	13	19	52	24	-0.556089155176	-0.442991448608	0.546201498153	0.2412109375	0.93603515625	-0.02685546875	8.25	-0.875	7.4375
18	12	13	19	52	24	-0.556139236788	-0.442189285615	0.547350381421	0.2099609375	0.93212890625	-0.02099609375	0.0625	-3.5	7.3125
18	12	13	19	52	24	-0.555650828364	-0.441945040442	0.548387817756	0.24072265625	0.97216796875	0.00537109375	4.3125	-4.1875	2.1875
18	12	13	19	52	24	-0.555850183956	-0.440859325652	0.549441457777	0.21630859375	0.98583984375	0.001953125	-0.125	-4.1875	8.375
18	12	13	19	52	24	-0.555795121953	-0.439460232601	0.549386326894	0.1611328125	0.9326171875	0.029296875	-7.875	-7.875	3.0
18	12	13	19	52	24	-0.55622323076	-0.437996039058	0.549875462078	0.28369140625	0.96435546875	0.0322265625	-4.0625	-5.125	1.4375
18	12	13	19	52	24	-0.557134716611	-0.436833169016	0.550420779403	0.25634765625	0.92919921875	0.01953125	-2.125	-0.375	6.6875
18	12	13	19	52	24	-0.556651642618	-0.436898295818	0.550609042551	0.1923828125	0.9140625	-0.01220703125	-0.6875	-2.25	-0.5
18	12	13	19	52	24	-0.55601979258	-0.437980025418	0.551137072119	0.23876953125	0.9619140625	-0.01318359375	8.0	1.875	-2.1875
18	12	13	19	52	24	-0.555591622158	-0.439077900671	0.551380282827	0.1943359375	0.990234375	-0.013671875	6.3125	2.875	1.1875
18	12	13	19	52	24	-0.55560622622	-0.438845300069	0.551150634161	0.23388671875	0.98095703125	0.00634765625	-2.8125	-0.9375	-1.8125
18	12	13	19	52	24	-0.556267051385	-0.438287655913	0.550346719589	0.259765625	0.92822265625	0.03466796875	-6.25	1.0625	-4.0625
18	12	13	19	52	24	-0.556953052296	-0.437871912019	0.54938459438	0.224609375	0.8857421875	0.033203125	-6.3125	1.6875	-3.1875
18	12	13	19	52	24	-0.557719551487	-0.43730144303	0.548930799527	0.26171875	0.87109375	0.0380859375	-3.75	1.75	-2.125
18	12	13	19	52	24	-0.5576136468	-0.437924465389	0.548580501033	0.20751953125	0.88427734375	0.0205078125	2.1875	2.375	-3.375
18	12	13	19	52	24	-0.557794228518	-0.438227657376	0.548944227081	0.22900390625	0.91064453125	0.00634765625	3.8125	2.8125	2.1875
18	12	13	19	52	24	-0.557794090338	-0.438410652248	0.548699953183	0.2138671875	0.9482421875	0.02392578125	0.125	0.6875	-1.25
18	12	13	19	52	24	-0.558481537211	-0.438118084601	0.548715739839	0.26611328125	0.9580078125	0.013671875	-0.625	2.75	1.5625
18	12	13	19	52	24	-0.559065773027	-0.437975544459	0.548201831149	0.2265625	0.9638671875	0.0244140625	-2.625	2.9375	0.375
18	12	13	19	52	24	-0.559642495357	-0.437630787623	0.5484118029	0.2890625	0.958984375	0.0205078125	0.3125	2.0	0.4375
18	12	13	19	52	24	-0.559639689084	-0.43817791776	0.548470089008	0.2470703125	0.95458984375	0.00390625	3.25	2.8125	-1.1875
18	12	13	19	52	24	-0.559333042845	-0.438787128439	0.548590723384	0.22998046875	0.9658203125	-0.00048828125	3.0625	1.0	-1.5625
18	12	13	19	52	24	-0.55950359345	-0.438655211752	0.548334273324	0.2470703125	0.95947265625	0.0263671875	-1.125	0.4375	-2.3125
18	12	13	19	52	24	-0.560193429672	-0.438242408482	0.548291302979	0.2890625	0.916015625	0.02587890625	-1.375	2.0	-0.6875
18	12	13	19	52	24	-0.560890811467	-0.437726757327	0.548257035844	0.29833984375	0.9091796875	0.02685546875	-1.5625	1.875	-1.4375
18	12	13	19	52	24	-0.561292199393	-0.437815239914	0.548291412261	0.3095703125	0.87744140625	0.0146484375	1.5625	3.125	-3.9375
18	12	13	19	52	24	-0.561398258372	-0.438840343303	0.548397842083	0.27783203125	0.91748046875	0.0048828125	6.8125	5.875	-2.9375
18	12	13	19	52	24	-0.561587279183	-0.439211179328	0.548098442241	0.22998046875	0.9453125	0.02294921875	1.3125	3.0	-0.75
18	12	13	19	52	24	-0.561890009515	-0.439148231421	0.546814316234	0.1875	0.93359375	0.04833984375	-6.0	1.0	-4.25
18	12	13	19	52	24	-0.562921431016	-0.438838240161	0.545465556651	0.2158203125	0.93896484375	0.04638671875	-7.25	4.5	-1.8125
18	12	13	19	52	24	-0.564256737022	-0.4382221062	0.543993542139	0.23095703125	0.91162109375	0.04931640625	-9.625	5.1875	-2.0
18	12	13	19	52	24	-0.565431295735	-0.437745385688	0.543641682979	0.28955078125	0.8828125	0.037109375	-2.625	5.125	-0.0625
18	12	13	19	52	25	-0.565382926347	-0.438609706221	0.543775935531	0.259765625	0.890625	0.0185546875	6.125	4.0	-2.75
18	12	13	19	52	25	-0.564566900449	-0.440301148091	0.54454766333	0.24365234375	0.94921875	-0.00634765625	12.75	3.5625	-1.6875
18	12	13	19	52	25	-0.564134626503	-0.441212724764	0.544847972606	0.21044921875	1.00244140625	-0.013671875	5.0625	2.5625	0.9375
18	12	13	19	52	25	-0.564500994916	-0.441029753407	0.544420896816	0.24755859375	0.9931640625	0.0205078125	-3.1875	1.0625	-1.25
18	12	13	19	52	25	-0.565618120775	-0.440372800409	0.543340078897	0.28369140625	0.96435546875	0.052734375	-7.5625	3.625	-3.6875
18	12	13	19	52	25	-0.566856659866	-0.439837309249	0.541831223175	0.314453125	0.9189453125	0.091796875	-6.4375	4.375	-8.375
18	12	13	19	52	25	-0.567375924189	-0.440363306048	0.540581815893	0.27197265625	0.89404296875	0.080078125	-0.0625	5.375	-8.9375
18	12	13	19	52	25	-0.56800178248	-0.440436370339	0.540596581498	0.28173828125	0.91845703125	0.06591796875	4.125	3.625	-0.125
18	12	13	19	52	25	-0.568001892514	-0.440375419567	0.540596686223	0.2060546875	0.89453125	0.0390625	0.5625	0.125	-0.4375
18	12	13	19	52	25	-0.567702839008	-0.440624319406	0.540358373695	0.181640625	0.900390625	0.015625	-1.125	-0.875	-1.5625
18	12	13	19	52	25	-0.568365898525	-0.440373706815	0.540167332683	0.2568359375	0.89990234375	0.02001953125	-2.375	3.375	-0.1875
18	12	13	19	52	25	-0.569569123324	-0.440604318611	0.5399066079	0.28857421875	0.90185546875	0.01513671875	0.75	9.25	1.625
18	12	13	19	52	25	-0.570305776887	-0.442133459735	0.539056145276	0.25537109375	0.9375	0.0029296875	3.75	12.75	-2.8125
18	12	13	19	52	25	-0.57085398633	-0.444390877202	0.537895454029	0.25634765625	0.93359375	0.0078125	7.0625	15.5	-5.75
18	12	13	19	52	25	-0.570928349558	-0.447453039407	0.536199011211	0.23486328125	0.95703125	0.0029296875	7.75	16.8125	-10.8125
18	12	13	19	52	25	-0.571602067014	-0.450018370538	0.534064931807	0.28173828125	0.986328125	0.02685546875	4.3125	17.4375	-12.6875
18	12	13	19	52	25	-0.572734143045	-0.452315935007	0.53062133841	0.212890625	0.94580078125	0.06103515625	-2.625	19.125	-14.25
18	12	13	19	52	25	-0.573912396187	-0.453978560336	0.526610247188	0.17138671875	0.9013671875	0.076171875	-9.1875	16.0	-16.25
18	12	13	19	52	25	-0.575565278925	-0.45556937878	0.523318844273	0.22607421875	0.8681640625	0.0791015625	-4.5625	19.0	-12.5625
18	12	13	19	52	25	-0.576771137538	-0.458182108942	0.520619873355	0.23779296875	0.8642578125	0.0537109375	3.625	21.625	-12.375
18	12	13	19	52	25	-0.577280983184	-0.461739335778	0.517648553435	0.224609375	0.8798828125	0.033203125	5.5	22.375	-17.25
18	12	13	19	52	25	-0.577462205295	-0.4660103517	0.514472986834	0.232421875	0.91064453125	0.0107421875	7.4375	24.8125	-20.875
18	12	13	19	52	25	-0.57780429745	-0.470690476596	0.511155697807	0.2255859375	0.9306640625	-0.00048828125	8.625	28.375	-19.9375
18	12	13	19	52	25	-0.578867154008	-0.474068028804	0.508492435685	0.24072265625	0.96875	-0.00048828125	5.25	26.0	-11.875
18	12	13	19	52	25	-0.580637647818	-0.475838442383	0.506295520724	0.2587890625	0.99072265625	0.05126953125	2.1875	21.625	-6.0625
18	12	13	19	52	25	-0.582155087803	-0.477479477027	0.504029850606	0.23193359375	0.984375	0.09716796875	3.4375	18.6875	-6.4375
18	12	13	19	52	25	-0.583140914208	-0.479012967836	0.501474330242	0.1884765625	1.04345703125	0.12890625	2.5625	13.9375	-8.9375
18	12	13	19	52	25	-0.584452189331	-0.47898713261	0.499005962821	0.16796875	1.0478515625	0.1435546875	-6.3125	7.5625	-5.8125
18	12	13	19	52	25	-0.585872179434	-0.477657638947	0.496517364277	0.1318359375	0.9951171875	0.14013671875	-15.3125	1.125	-4.625
18	12	13	19	52	25	-0.586833791934	-0.476180680673	0.495284058403	0.13232421875	0.92333984375	0.12060546875	-10.6875	-2.4375	-0.8125
18	12	13	19	52	25	-0.586549107977	-0.476136273811	0.494752036343	0.12939453125	0.90185546875	0.0703125	-2.8125	-2.3125	-3.8125
18	12	13	19	52	25	-0.586053659274	-0.47686286606	0.495173228254	0.19873046875	0.91552734375	0.05859375	7.4375	0.625	-2.75
18	12	13	19	52	25	-0.585555179918	-0.477831092722	0.495469767623	0.21240234375	0.95166015625	0.046875	7.1875	2.25	-3.9375
18	12	13	19	52	25	-0.585424496859	-0.478007157986	0.495828671026	0.2080078125	0.9609375	0.0458984375	2.6875	0.125	-1.25
18	12	13	19	52	25	-0.585946805444	-0.476997321307	0.496162664735	0.19775390625	0.947265625	0.0634765625	-3.3125	-2.3125	2.75
18	12	13	19	52	25	-0.586351005741	-0.475940995396	0.496082124978	0.16845703125	0.9208984375	0.07568359375	-5.3125	-3.4375	0.8125
18	12	13	19	52	25	-0.58654995688	-0.475526609163	0.496339672149	0.1845703125	0.923828125	0.07275390625	0.625	-1.1875	1.4375
18	12	13	19	52	25	-0.586601950736	-0.475397210934	0.496881331906	0.19189453125	0.95068359375	0.0615234375	2.8125	-0.5625	2.3125
18	12	13	19	52	25	-0.586616847886	-0.47534824798	0.497321202432	0.17529296875	0.94970703125	0.05810546875	2.5625	-0.1875	2.4375
18	12	13	19	52	25	-0.586901398042	-0.474965336893	0.497730958926	0.1865234375	0.96044921875	0.06982421875	1.6875	-0.5	3.4375
18	12	13	19	52	25	-0.587162585499	-0.474734988567	0.497684378603	0.17333984375	0.93359375	0.08447265625	0.9375	0.0	1.375
18	12	13	19	52	25	-0.586986570266	-0.474557615037	0.49805660948	0.1845703125	0.9462890625	0.0556640625	0.875	-2.3125	0.25
18	12	13	19	52	25	-0.587097982668	-0.474060716434	0.498352742331	0.1884765625	0.93896484375	0.068359375	-0.3125	-2.0625	0.9375
18	12	13	19	52	25	-0.587220233625	-0.473633615313	0.498719107052	0.185546875	0.92431640625	0.048828125	-0.8125	-1.625	2.0
18	12	13	19	52	25	-0.587199263577	-0.473067403803	0.499189562082	0.19921875	0.958984375	0.0771484375	0.9375	-3.5625	0.875
18	12	13	19	52	25	-0.587273240914	-0.472650590069	0.499749874933	0.21826171875	0.9638671875	0.07080078125	1.6875	-2.0	1.0625
18	12	13	19	52	25	-0.58716265987	-0.472171552677	0.500064830802	0.185546875	0.98974609375	0.05517578125	-1.375	-3.3125	0.875
18	12	13	19	52	25	-0.587325076369	-0.471605618321	0.500108248547	0.16845703125	0.958984375	0.05517578125	-3.0625	-2.125	1.9375
18	12	13	19	52	25	-0.587446844607	-0.471361244769	0.500352128009	0.1875	0.982421875	0.06103515625	0.3125	-1.0	2.125
18	12	13	19	52	25	-0.587463744381	-0.471313769778	0.500366522227	0.18212890625	0.9697265625	0.06103515625	0.25	-0.8125	-0.5625
18	12	13	19	52	26	-0.587528480707	-0.470950525362	0.500369674303	0.197265625	0.966796875	0.076171875	-0.8125	-1.6875	-0.625
18	12	13	19	52	26	-0.587580433358	-0.470882210799	0.500117801074	0.17822265625	0.9287109375	0.0693359375	-0.875	-0.4375	-1.8125
18	12	13	19	52	26	-0.587586784468	-0.470521088757	0.500550453872	0.205078125	0.9248046875	0.0654296875	1.1875	-1.875	0.6875
18	12	13	19	52	26	-0.587529323376	-0.470401879831	0.500675570294	0.18310546875	0.912109375	0.07080078125	0.8125	-1.25	-0.5
18	12	13	19	52	26	-0.587532784921	-0.470038435142	0.50116680833	0.21630859375	0.94189453125	0.0732421875	1.875	-2.3125	0.5
18	12	13	19	52	26	-0.587572483543	-0.46983826512	0.500904474128	0.1845703125	0.92822265625	0.07275390625	-1.25	-0.9375	-2.375
18	12	13	19	52	26	-0.587656189134	-0.469429139035	0.50086276361	0.1875	0.92138671875	0.0546875	-2.9375	-1.5625	-0.9375
18	12	13	19	52	26	-0.588129821757	-0.468868128968	0.500789247356	0.21337890625	0.9189453125	0.0732421875	-2.3125	-0.3125	-0.3125
18	12	13	19	52	26	-0.58826183136	-0.468937087605	0.500980816747	0.193359375	0.90185546875	0.04345703125	1.3125	1.5625	0.9375
18	12	13	19	52	26	-0.588130163541	-0.468929436123	0.501460919848	0.19580078125	0.95458984375	0.06103515625	2.6875	-1.1875	1.4375
18	12	13	19	52	26	-0.587925520781	-0.469217419679	0.501808744094	0.1865234375	0.95751953125	0.05322265625	3.5625	0.1875	0.875
18	12	13	19	52	26	-0.588115651415	-0.468856832106	0.501814745323	0.1787109375	1.0029296875	0.06689453125	-1.5625	-0.875	2.1875
18	12	13	19	52	26	-0.588795674399	-0.467887181501	0.501761090415	0.205078125	0.96240234375	0.091796875	-3.375	-1.375	2.25
18	12	13	19	52	26	-0.588990229826	-0.467346962671	0.501404636064	0.1748046875	0.9599609375	0.0947265625	-2.875	-1.8125	-0.75
18	12	13	19	52	26	-0.588636580156	-0.467417972919	0.501537409699	0.18310546875	0.939453125	0.06884765625	1.625	-2.25	-1.5
18	12	13	19	52	26	-0.588533463319	-0.467323522621	0.501928777594	0.193359375	0.92333984375	0.0703125	2.4375	-1.5625	0.75
18	12	13	19	52	26	-0.588457872586	-0.46717732152	0.501968420719	0.171875	0.9072265625	0.05517578125	-0.75	-1.375	-0.3125
18	12	13	19	52	26	-0.588379796156	-0.466553440023	0.502442166178	0.2080078125	0.9267578125	0.072265625	-0.5	-4.125	0.375
18	12	13	19	52	26	-0.588819889454	-0.465403924234	0.502880384494	0.20849609375	0.9033203125	0.07421875	-2.875	-3.375	3.0
18	12	13	19	52	26	-0.588867787478	-0.464355941867	0.503540552104	0.19580078125	0.923828125	0.0634765625	-2.75	-5.75	2.875
18	12	13	19	52	26	-0.588931799889	-0.463198614298	0.504580701595	0.2001953125	0.9384765625	0.080078125	0.0	-6.3125	5.6875
18	12	13	19	52	26	-0.588561409861	-0.462523941089	0.505736787525	0.18359375	0.966796875	0.0615234375	2.0	-6.3125	5.3125
18	12	13	19	52	26	-0.588216562406	-0.461930366741	0.506304491559	0.1796875	0.94775390625	0.0615234375	-0.625	-5.625	1.6875
18	12	13	19	52	26	-0.588377993333	-0.461425065311	0.506591010857	0.21630859375	0.93505859375	0.0712890625	-0.5	-1.875	1.0625
18	12	13	19	52	26	-0.588324145902	-0.461430702668	0.506902379056	0.203125	0.9345703125	0.06298828125	2.125	-0.5625	0.75
18	12	13	19	52	26	-0.588196856943	-0.461121433454	0.507386164965	0.18310546875	0.921875	0.06396484375	1.1875	-2.8125	2.375
18	12	13	19	52	26	-0.587954733158	-0.460878873671	0.507937225095	0.1923828125	0.9365234375	0.06787109375	2.25	-3.0625	1.8125
18	12	13	19	52	26	-0.587831013242	-0.460511369008	0.508363047378	0.19482421875	0.94091796875	0.06591796875	0.1875	-2.875	1.6875
18	12	13	19	52	26	-0.587821918999	-0.45977183219	0.508172079492	0.20166015625	0.92333984375	0.06787109375	-4.9375	-4.125	-2.875
18	12	13	19	52	26	-0.588254747518	-0.459104815401	0.508115871871	0.2314453125	0.8984375	0.08203125	-2.4375	-0.9375	-0.8125
18	12	13	19	52	26	-0.588493818713	-0.458551551544	0.508599770933	0.20849609375	0.8935546875	0.056640625	-0.25	-1.375	3.125
18	12	13	19	52	26	-0.5882119484	-0.458508680749	0.5094133985	0.21630859375	0.908203125	0.0595703125	4.125	-2.125	1.5625
18	12	13	19	52	26	-0.587965846087	-0.458812339358	0.510144144253	0.21044921875	0.96044921875	0.0615234375	6.375	-0.4375	2.75
18	12	13	19	52	26	-0.587715945546	-0.458685775343	0.510139149743	0.17626953125	0.97216796875	0.06103515625	-1.1875	-2.625	0.0
18	12	13	19	52	26	-0.58807804738	-0.457767032211	0.509830402674	0.18310546875	0.9677734375	0.07958984375	-6.1875	-2.625	1.375
18	12	13	19	52	26	-0.588756644133	-0.456368798277	0.510141823726	0.2041015625	0.9521484375	0.08203125	-4.6875	-3.125	5.8125
18	12	13	19	52	26	-0.588690198457	-0.455449068003	0.510991637271	0.21435546875	0.93505859375	0.08544921875	0.625	-6.125	3.5625
18	12	13	19	52	26	-0.588088907445	-0.45496779617	0.512464397188	0.21142578125	0.9375	0.08056640625	6.4375	-6.9375	4.6875
18	12	13	19	52	26	-0.587161028088	-0.454592030894	0.513918488202	0.2001953125	0.95703125	0.05224609375	4.3125	-8.5625	3.375
18	12	13	19	52	26	-0.586543083817	-0.453731663382	0.515132531469	0.23486328125	0.96533203125	0.044921875	0.0625	-8.375	1.8125
18	12	13	19	52	26	-0.587036471779	-0.451843522622	0.516479790413	0.2509765625	0.92626953125	0.05126953125	-3.6875	-6.875	8.1875
18	12	13	19	52	26	-0.58700751958	-0.449807176056	0.518102186911	0.23583984375	0.908203125	0.05126953125	-3.625	-10.875	7.25
18	12	13	19	52	26	-0.586419440533	-0.448725616861	0.519891839557	0.24658203125	0.91259765625	0.0439453125	2.375	-9.375	4.5625
18	12	13	19	52	26	-0.586048644583	-0.448233831058	0.521840857237	0.234375	0.935546875	0.03955078125	7.0	-5.5	8.9375
18	12	13	19	52	26	-0.585514935899	-0.447208165885	0.523258578699	0.20751953125	0.96826171875	0.04931640625	1.1875	-9.1875	6.6875
18	12	13	19	52	26	-0.585560372436	-0.445548334249	0.524282217972	0.236328125	0.9580078125	0.06201171875	-3.8125	-8.625	5.875
18	12	13	19	52	26	-0.585873843607	-0.443601530924	0.525327239496	0.22412109375	0.958984375	0.06494140625	-4.875	-8.3125	8.4375
18	12	13	19	52	26	-0.585692111345	-0.442015659687	0.526366065886	0.21728515625	0.91845703125	0.05029296875	-4.25	-9.4375	5.5625
18	12	13	19	52	26	-0.585334813093	-0.441473066017	0.527411691339	0.24755859375	0.9287109375	0.068359375	3.375	-5.5	2.75
18	12	13	19	52	26	-0.584957301623	-0.441464541177	0.528439098232	0.2294921875	0.92822265625	0.03857421875	4.9375	-2.8125	4.1875
18	12	13	19	52	27	-0.584451760443	-0.441329436065	0.528972786942	0.2431640625	0.9462890625	0.03662109375	0.625	-3.8125	-0.8125
18	12	13	19	52	27	-0.584781747865	-0.441042992389	0.529178348188	0.2724609375	0.92138671875	0.0498046875	0.0	1.0	0.5625
18	12	13	19	52	27	-0.584902079099	-0.440858574281	0.529298844824	0.24951171875	0.9248046875	0.03076171875	-1.4375	-0.125	0.5
18	12	13	19	52	27	-0.584954358759	-0.440790941043	0.529351956753	0.25341796875	0.92919921875	0.0498046875	0.8125	0.1875	0.75
18	12	13	19	52	27	-0.584963313877	-0.440858724555	0.52997041469	0.24658203125	0.953125	0.03955078125	3.9375	0.5	3.8125
18	12	13	19	52	27	-0.584644724953	-0.440848611373	0.530141359322	0.2138671875	0.97412109375	0.0556640625	0.5625	-2.4375	0.875
18	12	13	19	52	27	-0.584780483244	-0.440553755146	0.530031699874	0.23095703125	0.96044921875	0.0615234375	-1.4375	-0.625	0.6875
18	12	13	19	52	27	-0.58509494151	-0.440133488757	0.529979071263	0.255859375	0.94677734375	0.0556640625	-2.125	-0.4375	0.375
18	12	13	19	52	27	-0.584903517209	-0.440066196293	0.530398785823	0.23681640625	0.9033203125	0.04052734375	1.125	-1.5625	0.9375
18	12	13	19	52	27	-0.584593080164	-0.439696027302	0.531492643774	0.248046875	0.91552734375	0.04541015625	4.0625	-3.8125	3.6875
18	12	13	19	52	27	-0.584110475243	-0.439944441542	0.532108163341	0.24462890625	0.93798828125	0.046875	4.6875	-2.4375	0.5
18	12	13	19	52	27	-0.584028172542	-0.439501188261	0.532577054405	0.26513671875	0.94677734375	0.029296875	-1.0	-2.25	0.5625
18	12	13	19	52	27	-0.584413020976	-0.438599683419	0.532838190404	0.27392578125	0.931640625	0.0380859375	-4.1875	-1.875	1.8125
18	12	13	19	52	27	-0.58452332433	-0.438102581397	0.532888497935	0.23583984375	0.92578125	0.02490234375	-4.0625	-1.625	1.0625
18	12	13	19	52	27	-0.584607479	-0.43781472613	0.533214756374	0.23681640625	0.93115234375	0.0517578125	0.4375	-0.9375	2.6875
18	12	13	19	52	27	-0.584100885799	-0.438167216212	0.533442188284	0.2080078125	0.95751953125	0.033203125	1.9375	-1.5625	0.75
18	12	13	19	52	27	-0.584099044993	-0.437860663404	0.533501541513	0.22509765625	0.9609375	0.05908203125	-0.75	-1.75	1.5625
18	12	13	19	52	27	-0.584164603562	-0.437436810545	0.53338360365	0.23974609375	0.9677734375	0.05810546875	-2.75	-2.0625	0.5
18	12	13	19	52	27	-0.583922248942	-0.437010902313	0.533507304066	0.23193359375	0.94580078125	0.04248046875	-2.6875	-3.8125	-0.6875
18	12	13	19	52	27	-0.583675201672	-0.436764586758	0.533931890017	0.23779296875	0.9130859375	0.05224609375	1.0	-2.875	1.0625
18	12	13	19	52	27	-0.583136197873	-0.437077487227	0.534307544084	0.2197265625	0.904296875	0.03515625	2.875	-2.0	-0.4375
18	12	13	19	52	27	-0.582517763749	-0.437498672522	0.5345442765	0.25439453125	0.93212890625	0.03076171875	2.1875	-1.8125	-3.8125
18	12	13	19	52	27	-0.582532507524	-0.437570782317	0.534313659981	0.24609375	0.9130859375	0.0390625	-1.125	0.9375	-2.25
18	12	13	19	52	27	-0.582714829043	-0.437448117707	0.534068791675	0.23095703125	0.90087890625	0.0341796875	-2.8125	0.6875	-0.625
18	12	13	19	52	27	-0.582640180969	-0.43749893329	0.534361490089	0.2529296875	0.90576171875	0.03564453125	1.5625	-0.375	0.0
18	12	13	19	52	27	-0.582340824233	-0.437991589424	0.534672007157	0.2236328125	0.9560546875	0.03955078125	4.5625	0.625	1.6875
18	12	13	19	52	27	-0.581975650116	-0.438236514718	0.534917105151	0.21435546875	0.97265625	0.033203125	1.5	-1.0625	1.375
18	12	13	19	52	27	-0.581984309576	-0.438059925519	0.534802991138	0.23095703125	0.9716796875	0.0615234375	-0.75	-1.3125	0.375
18	12	13	19	52	27	-0.582013754214	-0.437914082056	0.534468796733	0.2197265625	0.93798828125	0.052734375	-2.375	-0.75	-0.9375
18	12	13	19	52	27	-0.58197339317	-0.437929637755	0.534487782274	0.23828125	0.92138671875	0.0283203125	-0.5625	-0.0625	-0.8125
18	12	13	19	52	27	-0.581905167167	-0.438168365334	0.534664281979	0.2373046875	0.90625	0.03857421875	2.1875	0.625	0.1875
18	12	13	19	52	27	-0.581431931077	-0.439095245871	0.534311896352	0.21337890625	0.91650390625	0.0302734375	2.4375	1.6875	-4.125
18	12	13	19	52	27	-0.58128997357	-0.439690567996	0.533988448001	0.24462890625	0.94482421875	0.02685546875	0.5	2.5625	-3.3125
18	12	13	19	52	27	-0.582149116352	-0.439449951535	0.533443413391	0.26220703125	0.92138671875	0.04052734375	-3.5625	4.5625	0.125
18	12	13	19	52	27	-0.582328300568	-0.440118370757	0.532158102154	0.21630859375	0.91455078125	0.0283203125	-4.5625	4.875	-6.3125
18	12	13	19	52	27	-0.582517763749	-0.437498672522	0.5345442765	0.25439453125	0.93212890625	0.03076171875	2.1875	-1.8125	-3.8125
18	12	13	19	52	27	-0.582532507524	-0.437570782317	0.534313659981	0.24609375	0.9130859375	0.0390625	-1.125	0.9375	-2.25
18	12	13	19	52	27	-0.582705802764	-0.441469683816	0.53076460258	0.23681640625	0.9169921875	0.03955078125	0.3125	9.625	-6.6875
18	12	13	19	52	27	-0.582760905001	-0.443967618661	0.528867117913	0.22802734375	0.93896484375	0.0009765625	1.375	14.0625	-11.25
18	12	13	19	52	27	-0.582897202187	-0.446541982325	0.52588924545	0.20751953125	0.921875	0.029296875	-2.625	14.8125	-17.1875
18	12	13	19	52	27	-0.583258397706	-0.449101641934	0.522954997022	0.21630859375	0.93017578125	0.0439453125	-1.1875	16.25	-15.9375
18	12	13	19	52	27	-0.583747435702	-0.451543656349	0.520148018303	0.16015625	0.9091796875	0.04443359375	-0.75	16.125	-11.0
18	12	13	19	52	27	-0.584290718557	-0.452942799792	0.518372618061	0.181640625	0.9453125	0.05126953125	-0.75	11.4375	-5.3125
18	12	13	19	52	27	-0.585510984608	-0.453003495024	0.517700841389	0.2421875	0.9619140625	0.09814453125	1.125	7.5625	2.4375
18	12	13	19	52	27	-0.585691521152	-0.453367717707	0.517027185877	0.212890625	0.96337890625	0.0849609375	0.6875	2.5	-3.125
18	12	13	19	52	27	-0.585673019879	-0.453841660673	0.516034325039	0.20068359375	1.01416015625	0.076171875	-1.75	2.4375	-5.0
18	12	13	19	52	27	-0.586223830517	-0.453659732663	0.515669457994	0.21240234375	0.99462890625	0.04736328125	-3.25	2.9375	1.75
18	12	13	19	52	27	-0.586727089397	-0.453305117336	0.514584010268	0.16943359375	0.9169921875	0.0400390625	-9.125	1.4375	-1.8125
18	12	13	19	52	27	-0.586747932249	-0.453809515892	0.514358142626	0.2265625	0.94921875	0.05908203125	1.875	2.9375	-2.375
18	12	13	19	52	27	-0.586423406597	-0.454954212404	0.514341178955	0.1982421875	0.96533203125	0.05322265625	6.625	3.875	-0.9375
18	12	13	19	52	27	-0.586490564524	-0.454958962219	0.513797228865	0.18115234375	0.96826171875	0.05712890625	-3.25	0.5	-1.3125
18	12	13	19	52	27	-0.586781764299	-0.454765022445	0.513235682961	0.2138671875	0.94775390625	0.07666015625	-2.625	1.0	-2.5
18	12	13	19	52	28	-0.586957055324	-0.454697937212	0.512740586646	0.18701171875	0.92529296875	0.07666015625	-1.875	0.3125	-1.125
18	12	13	19	52	28	-0.587271716086	-0.453789774381	0.512870944738	0.21875	0.9228515625	0.09130859375	-2.4375	-3.125	0.8125
18	12	13	19	52	28	-0.586730202951	-0.453612698256	0.513488109584	0.16943359375	0.90185546875	0.06982421875	2.5625	-5.0	2.25
18	12	13	19	52	28	-0.586302429937	-0.452147449612	0.515623873424	0.20556640625	0.90185546875	0.07568359375	4.375	-11.1875	9.5625
18	12	13	19	52	28	-0.585942997427	-0.450504715001	0.518376445536	0.265625	0.93896484375	0.07470703125	6.5	-11.75	11.125
18	12	13	19	52	28	-0.585812556668	-0.44848412861	0.520932503767	0.26025390625	0.96728515625	0.02587890625	0.125	-11.1875	12.375
18	12	13	19	52	28	-0.585986110923	-0.445852363326	0.523548469899	0.2421875	0.96630859375	0.0380859375	-1.875	-12.875	16.25
18	12	13	19	52	28	-0.585935914211	-0.44299196514	0.525572308049	0.21533203125	0.9833984375	0.0625	-5.5625	-15.75	13.5
18	12	13	19	52	28	-0.585625626667	-0.441096029591	0.526666340022	0.19677734375	0.9638671875	0.060546875	-5.625	-12.125	6.8125
18	12	13	19	52	28	-0.585618044748	-0.43962551082	0.527758127456	0.24609375	0.97607421875	0.0615234375	-2.5	-7.625	6.0625
18	12	13	19	52	28	-0.585893057369	-0.43793964857	0.528884606949	0.25	0.92333984375	0.0634765625	-2.8125	-7.1875	7.4375
18	12	13	19	52	28	-0.585816239335	-0.436463005572	0.530396240864	0.26708984375	0.91455078125	0.0712890625	0.875	-8.5625	6.5
18	12	13	19	52	28	-0.585035173588	-0.436533287585	0.530895768374	0.2119140625	0.88623046875	0.05078125	2.0625	-4.875	-1.125
18	12	13	19	52	28	-0.584597386745	-0.436891636492	0.531435523741	0.2607421875	0.90234375	0.0302734375	3.8125	-0.625	-1.5625
18	12	13	19	52	28	-0.584765980441	-0.437246997587	0.531361301087	0.271484375	0.93017578125	0.0283203125	0.6875	3.375	-1.8125
18	12	13	19	52	28	-0.58514788169	-0.437380799018	0.531314520716	0.27587890625	0.94482421875	0.03662109375	0.0	3.5	0.0625
18	12	13	19	52	28	-0.585324923236	-0.437559371708	0.531370050229	0.2421875	0.95703125	0.05517578125	2.0	1.75	1.875
18	12	13	19	52	28	-0.585086705546	-0.438052084884	0.530581966546	0.212890625	0.9873046875	0.072265625	-0.875	0.75	-4.125
18	12	13	19	52	28	-0.585626352042	-0.438166918323	0.529352511856	0.23095703125	0.9638671875	0.07763671875	-4.5	3.8125	-3.75
18	12	13	19	52	28	-0.586230153561	-0.437917891911	0.528247993657	0.24560546875	0.92041015625	0.0771484375	-6.0625	2.8125	-4.1875
18	12	13	19	52	28	-0.586361720752	-0.437986021455	0.527890342749	0.24365234375	0.86865234375	0.06298828125	-0.875	1.125	-3.5
18	12	13	19	52	28	-0.585902661685	-0.438313054856	0.528160822123	0.2392578125	0.8798828125	0.06640625	4.0	-1.5625	-2.8125
18	12	13	19	52	28	-0.585396746461	-0.439215408981	0.528877365038	0.26953125	0.87939453125	0.03564453125	8.375	1.4375	-1.6875
18	12	13	19	52	28	-0.584900862161	-0.439575916653	0.529724990368	0.27978515625	0.9072265625	0.017578125	4.75	-0.625	-1.5
18	12	13	19	52	28	-0.58490486817	-0.439334784628	0.530461046569	0.28564453125	0.92333984375	0.0322265625	1.5625	-1.1875	1.1875
18	12	13	19	52	28	-0.585276623634	-0.438667545527	0.530649177795	0.25390625	0.96875	0.041015625	-3.0	-1.0	3.0
18	12	13	19	52	28	-0.58570275804	-0.43799530968	0.530587127516	0.240234375	0.9775390625	0.07373046875	-2.6875	-1.0625	2.75
18	12	13	19	52	28	-0.586172510802	-0.437249049082	0.530448281068	0.25341796875	0.99169921875	0.083984375	-2.9375	-1.1875	2.1875
18	12	13	19	52	28	-0.586470996666	-0.436877863892	0.529587765436	0.2255859375	0.97705078125	0.10595703125	-4.0	-0.4375	-2.625
18	12	13	19	52	28	-0.586804005557	-0.436532374428	0.52894149284	0.236328125	0.9326171875	0.09228515625	-3.3125	-0.125	-1.9375
18	12	13	19	52	28	-0.587030701771	-0.436092156806	0.528864736	0.2490234375	0.89697265625	0.0751953125	-1.75	-0.9375	-0.875
18	12	13	19	52	28	-0.587099528965	-0.436036909755	0.529176932751	0.28125	0.8876953125	0.06201171875	2.375	0.0	-1.0
18	12	13	19	52	28	-0.586732307825	-0.436463407184	0.529481199457	0.25927734375	0.89013671875	0.0439453125	3.0625	0.1875	-2.8125
18	12	13	19	52	28	-0.58666339057	-0.436518577753	0.529962361665	0.27978515625	0.8671875	0.04150390625	2.8125	-0.125	-1.1875
18	12	13	19	52	28	-0.586676333191	-0.436467172144	0.530279232497	0.2880859375	0.9150390625	0.04638671875	1.0	0.3125	-1.5
18	12	13	19	52	28	-0.586972715313	-0.436521665791	0.530454390016	0.267578125	0.919921875	0.0390625	0.875	2.3125	1.0
18	12	13	19	52	28	-0.587346056648	-0.435977645499	0.530582902467	0.23876953125	0.9375	0.0537109375	-2.1875	-0.25	3.5
18	12	13	19	52	28	-0.587405055003	-0.435976133405	0.530520026817	0.24853515625	0.935546875	0.0810546875	-0.5	0.6875	-0.125
18	12	13	19	52	28	-0.587649775795	-0.436281740485	0.529849159086	0.23876953125	0.9482421875	0.08154296875	0.0	3.0625	-2.5
18	12	13	19	52	28	-0.588197240405	-0.435914152846	0.529298170467	0.26123046875	0.9375	0.0888671875	-2.8125	1.25	-1.25
18	12	13	19	52	28	-0.588797183434	-0.435479206365	0.529044675651	0.26171875	0.916015625	0.07861328125	-1.8125	1.4375	0.5625
18	12	13	19	52	28	-0.589060639759	-0.435310380557	0.528878918611	0.25390625	0.93212890625	0.07080078125	-1.0625	0.625	-0.25
18	12	13	19	52	28	-0.588886101406	-0.435438790157	0.528764541509	0.25390625	0.92333984375	0.0673828125	0.5	-0.3125	-3.0
18	12	13	19	52	28	-0.588925734757	-0.435484000155	0.528745324925	0.26904296875	0.96533203125	0.06396484375	0.25	0.375	-1.0625
18	12	13	19	52	28	-0.589362612005	-0.434819723273	0.528204644189	0.2548828125	0.93115234375	0.0703125	-6.5	-0.5	-2.125
18	12	13	19	52	28	-0.589664437096	-0.434267929815	0.528323710538	0.27294921875	0.916015625	0.0703125	-1.6875	-0.625	0.1875
18	12	13	19	52	28	-0.589664437096	-0.434267929815	0.528323710538	0.24853515625	0.927734375	0.05517578125	0.625	-0.75	0.4375
18	12	13	19	52	28	-0.58960490394	-0.434513179208	0.528386092485	0.244140625	0.91455078125	0.07763671875	2.8125	0.3125	-0.5
18	12	13	19	52	28	-0.589300802242	-0.435002259718	0.528570165449	0.2666015625	0.95849609375	0.0673828125	4.25	0.5	-2.0
18	12	13	19	52	28	-0.589356285485	-0.434937126177	0.528565185615	0.26171875	0.9404296875	0.08740234375	-0.0625	0.4375	0.4375
18	12	13	19	52	29	-0.589675535135	-0.434092993053	0.528150543994	0.22607421875	0.9013671875	0.09326171875	-5.25	-2.75	-0.5
18	12	13	19	52	29	-0.589594309462	-0.434017094677	0.528315563426	0.26220703125	0.89111328125	0.08349609375	2.25	-1.3125	-1.6875
18	12	13	19	52	29	-0.589290276851	-0.434140004064	0.529049002563	0.26025390625	0.91015625	0.0615234375	4.875	-1.5625	1.125
18	12	13	19	52	29	-0.589367912255	-0.433358759011	0.530284633562	0.2734375	0.8876953125	0.07275390625	3.8125	-3.6875	5.8125
18	12	13	19	52	29	-0.588741159514	-0.433468765796	0.531490567805	0.279296875	0.92529296875	0.05078125	6.5625	-3.6875	1.125
18	12	13	19	52	29	-0.588298467142	-0.433274283457	0.532147975413	0.2353515625	0.947265625	0.05419921875	2.0	-4.0625	1.9375
18	12	13	19	52	29	-0.588874468529	-0.431584926096	0.532965574129	0.27880859375	0.9541015625	0.05419921875	-5.25	-4.625	7.3125
18	12	13	19	52	29	-0.589452164014	-0.430401393729	0.533058107321	0.2421875	0.9052734375	0.08642578125	-4.0625	-2.875	4.6875
18	12	13	19	52	29	-0.589217522171	-0.429736956039	0.53428736162	0.26171875	0.90478515625	0.07373046875	4.25	-5.5	5.3125
18	12	13	19	52	29	-0.588851356197	-0.429187680014	0.535813231349	0.28955078125	0.94921875	0.05322265625	5.25	-5.25	5.125
18	12	13	19	52	29	-0.588873745679	-0.428471568685	0.536688105904	0.27734375	0.94287109375	0.0556640625	0.875	-3.6875	4.9375
18	12	13	19	52	29	-0.58903508319	-0.427540229794	0.53721757354	0.27587890625	0.94921875	0.0595703125	-2.4375	-3.625	3.5
18	12	13	19	52	29	-0.589792146172	-0.426398420073	0.53766728921	0.302734375	0.95068359375	0.0517578125	-3.3125	-0.875	5.5625
18	12	13	19	52	29	-0.590449300966	-0.425594684271	0.537349146754	0.263671875	0.93359375	0.03662109375	-7.5625	0.875	2.1875
18	12	13	19	52	29	-0.591375384389	-0.424747786146	0.537236673898	0.2734375	0.92529296875	0.0810546875	-3.0	1.4375	4.8125
18	12	13	19	52	29	-0.591723673101	-0.423941478428	0.537403500944	0.25341796875	0.92919921875	0.0810546875	-2.5	-2.125	4.3125
18	12	13	19	52	29	-0.591677556601	-0.423769060809	0.536806695926	0.24853515625	0.90234375	0.0947265625	-2.625	-1.5625	-3.8125
18	12	13	19	52	29	-0.591435133408	-0.424258577122	0.536686184526	0.26416015625	0.86328125	0.048828125	1.5	1.0625	-3.5
18	12	13	19	52	29	-0.591324257355	-0.424632830142	0.537184639655	0.29541015625	0.84619140625	0.04541015625	4.6875	1.3125	-1.375
18	12	13	19	52	29	-0.59111790875	-0.424982343689	0.538018003679	0.30126953125	0.82080078125	0.03466796875	6.0	0.625	-0.1875
18	12	13	19	52	29	-0.590958532078	-0.425670812096	0.539077231493	0.2919921875	0.880859375	0.0517578125	10.75	2.0	3.75
18	12	13	19	52	29	-0.591066660529	-0.425355592444	0.539980043959	0.279296875	0.94873046875	0.05224609375	3.9375	-1.0	6.25
18	12	13	19	52	29	-0.5914433574	-0.424508622365	0.5399896164	0.28076171875	1.00390625	0.0830078125	-3.125	-2.0	3.5
18	12	13	19	52	29	-0.592236260017	-0.423409557429	0.53974494974	0.28076171875	1.013671875	0.078125	-6.25	-0.75	4.75
18	12	13	19	52	29	-0.592344993193	-0.42297277721	0.539305549701	0.23388671875	0.99560546875	0.0908203125	-3.75	-2.0	1.625
18	12	13	19	52	29	-0.59233386207	-0.422964828866	0.53923438139	0.27685546875	0.99755859375	0.0908203125	1.5	-0.8125	0.1875
18	12	13	19	52	29	-0.591965338941	-0.423512474163	0.539354335521	0.2890625	0.986328125	0.06201171875	3.75	0.1875	-1.625
18	12	13	19	52	29	-0.591617335527	-0.423525502035	0.539859211053	0.30126953125	0.9296875	0.0361328125	1.1875	-1.625	-0.875
18	12	13	19	52	29	-0.591013265136	-0.423774150557	0.539987024337	0.25927734375	0.8720703125	0.025390625	-0.5	-2.125	-3.9375
18	12	13	19	52	29	-0.590762650022	-0.423891580163	0.539981110109	0.2763671875	0.84130859375	0.04833984375	0.25	-1.25	-4.0625
18	12	13	19	52	29	-0.590528435203	-0.424081815792	0.54041744344	0.31640625	0.8388671875	0.0419921875	2.875	-0.3125	-3.5
18	12	13	19	52	29	-0.590749939784	-0.423943494342	0.541251210456	0.31103515625	0.8603515625	0.033203125	3.8125	1.25	3.0625
18	12	13	19	52	29	-0.590952279598	-0.423652114511	0.542245409208	0.28515625	0.876953125	0.02880859375	3.375	-0.0625	6.6875
18	12	13	19	52	29	-0.590764652749	-0.423893017185	0.542973690552	0.27978515625	0.9462890625	0.02978515625	4.625	0.0625	3.5625
18	12	13	19	52	29	-0.59118816529	-0.423768266736	0.54284818729	0.26611328125	0.9853515625	0.060546875	-0.625	2.0	4.0
18	12	13	19	52	29	-0.591852074024	-0.423152565661	0.542230981297	0.27978515625	0.998046875	0.07470703125	-5.125	0.9375	1.75
18	12	13	19	52	29	-0.592644467938	-0.422419398826	0.541558636871	0.271484375	0.96240234375	0.0849609375	-5.6875	1.25	1.875
18	12	13	19	52	29	-0.592828533037	-0.42242008413	0.5410712391	0.24560546875	0.91796875	0.060546875	-2.625	1.0625	0.0
18	12	13	19	52	29	-0.592824025715	-0.422599974679	0.541128159373	0.31005859375	0.92138671875	0.05712890625	1.9375	0.8125	-2.125
18	12	13	19	52	29	-0.592400386429	-0.423151852371	0.540826274897	0.287109375	0.896484375	0.0419921875	-0.0625	0.5625	-6.3125
18	12	13	19	52	29	-0.592244535077	-0.423049249987	0.540729087525	0.3076171875	0.9248046875	0.0498046875	-2.0	-1.4375	-4.25
18	12	13	19	52	29	-0.592327573577	-0.422777238761	0.540205188432	0.2705078125	0.8974609375	0.0478515625	-5.375	-0.625	-3.3125
18	12	13	19	52	29	-0.592530359714	-0.42260817992	0.539673819591	0.2509765625	0.87451171875	0.064453125	-3.5	0.3125	-1.8125
18	12	13	19	52	29	-0.592600529065	-0.422492621505	0.539682138015	0.30029296875	0.90966796875	0.0859375	0.8125	0.75	-0.125
18	12	13	19	52	29	-0.592170540083	-0.423406208674	0.539008249791	0.25439453125	0.90234375	0.08740234375	2.8125	1.0	-6.875
18	12	13	19	52	29	-0.591175400826	-0.424552559173	0.53911339206	0.28173828125	0.9384765625	0.0703125	7.0	-1.0	-6.625
18	12	13	19	52	29	-0.590739509001	-0.425583902909	0.539166527793	0.27978515625	0.95361328125	0.0693359375	7.125	2.0	-2.9375
18	12	13	19	52	29	-0.590516712911	-0.42633170436	0.53943015077	0.28857421875	0.9697265625	0.03271484375	4.5	2.5	-0.125
18	12	13	19	52	29	-0.590265755012	-0.426876092499	0.53985116359	0.2841796875	0.93896484375	0.02978515625	4.25	1.375	0.1875
18	12	13	19	52	30	-0.590068634909	-0.42698801922	0.540509705291	0.31103515625	0.9375	0.0419921875	4.1875	-0.8125	0.5
18	12	13	19	52	30	-0.58960795269	-0.427435247691	0.540596028673	0.2724609375	0.98193359375	0.02294921875	0.6875	-0.3125	-1.875
18	12	13	19	52	30	-0.58995476572	-0.426749816047	0.540151011444	0.2431640625	0.99609375	0.0380859375	-7.9375	-0.875	2.125
18	12	13	19	52	30	-0.590992820567	-0.425468444921	0.53935800427	0.2734375	0.9873046875	0.06689453125	-10.75	0.4375	2.1875
18	12	13	19	52	30	-0.591739545454	-0.424807347742	0.537417916217	0.21630859375	0.89697265625	0.0927734375	-13.0	1.4375	-5.1875
18	12	13	19	52	30	-0.591924517603	-0.424991793779	0.535710609507	0.2236328125	0.8720703125	0.111328125	-5.5625	1.5	-8.375
18	12	13	19	52	30	-0.592141719977	-0.425277623666	0.535259006824	0.29345703125	0.87744140625	0.095703125	1.75	2.375	-4.5
18	12	13	19	52	30	-0.59241606204	-0.425421383929	0.535164231606	0.26318359375	0.85595703125	0.07861328125	2.3125	2.25	-0.3125
18	12	13	19	52	30	-0.591792411807	-0.426144247034	0.535335318065	0.24267578125	0.8466796875	0.05126953125	4.1875	-0.5	-3.1875
18	12	13	19	52	30	-0.590950388482	-0.427434989728	0.535956967699	0.25732421875	0.8486328125	0.0576171875	11.125	0.4375	-2.875
18	12	13	19	52	30	-0.589547702946	-0.4293279369	0.536568366973	0.24853515625	0.91943359375	0.04150390625	12.8125	0.4375	-4.75
18	12	13	19	52	30	-0.587836679566	-0.431279615597	0.537604140132	0.26904296875	0.978515625	0.03564453125	15.125	-1.625	-4.625
18	12	13	19	52	30	-0.586658913742	-0.432670103986	0.537831704941	0.28369140625	1.0302734375	0.025390625	6.625	-0.4375	-6.1875
18	12	13	19	52	30	-0.586358200712	-0.433344772047	0.537469586288	0.29443359375	1.03955078125	0.0185546875	-0.4375	2.125	-5.3125
18	12	13	19	52	30	-0.587148691731	-0.433342589531	0.536368264338	0.296875	0.98876953125	0.0361328125	-6.6875	5.6875	-3.625
18	12	13	19	52	30	-0.587886204407	-0.433468420235	0.535213260636	0.28564453125	0.9267578125	0.0439453125	-5.75	5.9375	-4.8125
18	12	13	19	52	30	-0.588372920311	-0.433955545997	0.534235287498	0.24267578125	0.8896484375	0.05908203125	-1.25	5.5625	-3.4375
18	12	13	19	52	30	-0.588261225416	-0.434207341524	0.534244709075	0.26513671875	0.90087890625	0.05078125	1.625	0.8125	-1.9375
18	12	13	19	52	30	-0.588828058693	-0.433548844293	0.534870973186	0.31005859375	0.8955078125	0.02001953125	-1.4375	0.75	3.5
18	12	13	19	52	30	-0.589227684765	-0.433040234453	0.534906922445	0.263671875	0.9306640625	0.03271484375	-3.5	0.4375	2.1875
18	12	13	19	52	30	-0.589470628451	-0.432551081366	0.534600666246	0.2255859375	0.94873046875	0.05322265625	-4.6875	-1.0	1.8125
18	12	13	19	52	30	-0.590037078732	-0.431770176368	0.533578580974	0.228515625	1.0	0.08837890625	-8.5625	-0.5	0.0
18	12	13	19	52	30	-0.590695502556	-0.431211378958	0.532285128931	0.2333984375	1.0048828125	0.10205078125	-8.0625	0.875	-1.75
18	12	13	19	52	30	-0.591388824785	-0.430494930458	0.530412724469	0.19140625	0.95068359375	0.123046875	-11.0625	0.25	-3.6875
18	12	13	19	52	30	-0.591836340259	-0.430099070826	0.528972420441	0.21533203125	0.875	0.1328125	-6.125	0.0625	-5.375
18	12	13	19	52	30	-0.591366856421	-0.431150322402	0.528928184306	0.24365234375	0.84033203125	0.091796875	7.625	1.625	-4.8125
18	12	13	19	52	30	-0.590586598272	-0.432319644022	0.530221763041	0.26806640625	0.87158203125	0.0390625	13.1875	1.0	1.0625
18	12	13	19	52	30	-0.589222254406	-0.433402447539	0.532094428622	0.27099609375	0.87255859375	0.0009765625	12.75	-3.125	0.625
18	12	13	19	52	30	-0.587583903843	-0.434630204556	0.533873107605	0.2607421875	0.90087890625	-0.0107421875	12.3125	-3.9375	-0.8125
18	12	13	19	52	30	-0.585989098212	-0.436028134322	0.534781426782	0.2392578125	0.95361328125	0.00439453125	9.1875	-2.875	-3.625
18	12	13	19	52	30	-0.585205027984	-0.436706505551	0.534789993241	0.23681640625	0.9921875	0.03515625	2.0	-1.625	-3.6875
18	12	13	19	52	30	-0.585253095227	-0.436818896917	0.533923670565	0.24462890625	0.98876953125	0.0634765625	-3.625	0.6875	-4.5
18	12	13	19	52	30	-0.585454356088	-0.436649339393	0.532658482651	0.2314453125	0.95703125	0.11083984375	-4.9375	-0.1875	-6.0625
18	12	13	19	52	30	-0.585266686697	-0.436768006049	0.531738802222	0.23095703125	0.9404296875	0.099609375	-1.875	-1.5	-6.8125
18	12	13	19	52	30	-0.584409528909	-0.437437398819	0.531492237884	0.2373046875	0.92236328125	0.09619140625	4.4375	-2.875	-7.625
18	12	13	19	52	30	-0.582387367138	-0.438896201749	0.532217338235	0.21923828125	0.9365234375	0.05810546875	11.6875	-6.1875	-7.875
18	12	13	19	52	30	-0.57947189873	-0.439822467058	0.533390027702	0.14697265625	0.923828125	0.07080078125	10.375	-15.0	-6.6875
18	12	13	19	52	30	-0.575741807422	-0.439817180566	0.535947080565	0.15283203125	0.94189453125	0.078125	13.125	-25.5625	-3.625
18	12	13	19	52	30	-0.572450579388	-0.438722120124	0.539613559267	0.26513671875	0.96044921875	0.076171875	13.5625	-27.8125	-0.9375
18	12	13	19	52	30	-0.567987206729	-0.4388992052	0.54314615868	0.1953125	0.97119140625	0.0615234375	19.3125	-28.9375	-4.3125
18	12	13	19	52	30	-0.563127260185	-0.438001432808	0.546891421121	0.17236328125	0.92236328125	0.06787109375	14.1875	-36.8125	-4.875
18	12	13	19	52	30	-0.557801295591	-0.437073539526	0.551270522134	0.22607421875	0.87744140625	0.03857421875	16.375	-39.375	-8.1875
18	12	13	19	52	30	-0.552128041484	-0.436953863474	0.554569465501	0.14794921875	0.84521484375	0.03125	14.125	-37.125	-12.1875
18	12	13	19	52	30	-0.546347060783	-0.436845705957	0.558981832493	0.1953125	0.90087890625	-0.02001953125	18.875	-36.625	-8.25
18	12	13	19	52	30	-0.540573245469	-0.437121551773	0.563460788322	0.21484375	0.91259765625	-0.08642578125	18.375	-33.6875	-8.5625
18	12	13	19	52	30	-0.534867889513	-0.436720272676	0.565935760762	0.1513671875	0.95556640625	-0.0712890625	2.625	-36.5625	-16.25
18	12	13	19	52	30	-0.53040605042	-0.434578950402	0.566600617497	0.185546875	0.96826171875	-0.037109375	-15.9375	-37.8125	-21.625
18	12	13	19	52	30	-0.526818413575	-0.431599235592	0.565760615853	0.2392578125	0.96240234375	-0.00341796875	-27.5	-37.0	-29.25
18	12	13	19	52	30	-0.522893487834	-0.428715286395	0.563238135372	0.2265625	0.9580078125	-0.00341796875	-38.4375	-37.625	-41.25
18	12	13	19	52	30	-0.518857576671	-0.425352129376	0.558713358058	0.18212890625	0.97607421875	-0.00244140625	-54.25	-39.75	-50.3125
18	12	13	19	52	30	-0.515441162948	-0.420897840105	0.551512889094	0.15625	0.9267578125	0.02734375	-75.375	-39.4375	-60.3125
18	12	13	19	52	31	-0.511595439939	-0.417174282031	0.543333644278	0.1328125	0.92724609375	0.01220703125	-77.8125	-35.875	-66.8125
18	12	13	19	52	31	-0.507212980201	-0.413644087464	0.534618350612	0.1015625	1.05126953125	-0.0458984375	-85.125	-35.875	-69.125
18	12	13	19	52	31	-0.505928984819	-0.406256885385	0.521126996306	0.07958984375	1.02490234375	0.0341796875	-122.1875	-34.25	-71.25
18	12	13	19	52	31	-0.506092534572	-0.397879550515	0.506092534572	0.0732421875	0.89697265625	0.10888671875	-131.6875	-27.6875	-66.3125
18	12	13	19	52	31	-0.50580432243	-0.391667230244	0.493658182673	0.0693359375	0.810546875	0.20654296875	-99.6875	-19.6875	-58.0
18	12	13	19	52	31	-0.501765968939	-0.390682881302	0.486324199065	0.04443359375	0.7509765625	0.23095703125	-43.0625	-15.6875	-58.6875
18	12	13	19	52	31	-0.494021029994	-0.395448758751	0.4841943206	0.02197265625	0.82275390625	0.2470703125	14.125	-10.0625	-60.5
18	12	13	19	52	31	-0.484862317615	-0.403258475892	0.486021983279	-0.00146484375	0.92919921875	0.18115234375	46.0625	-5.125	-52.4375
18	12	13	19	52	31	-0.47693047965	-0.410523983379	0.487855813136	-0.0244140625	1.0087890625	0.15087890625	41.9375	-1.9375	-44.0
18	12	13	19	52	31	-0.470341481962	-0.416141736831	0.488957385414	-0.03466796875	1.05859375	0.119140625	28.75	-3.0625	-38.0625
18	12	13	19	52	31	-0.464781081229	-0.419798329178	0.488584708501	-0.06787109375	1.0546875	0.11572265625	11.375	-6.8125	-35.4375
18	12	13	19	52	31	-0.461123211406	-0.422060490651	0.48620880239	-0.0498046875	1.072265625	0.12646484375	-6.125	-3.6875	-34.75
18	12	13	19	52	31	-0.458912065298	-0.423451510711	0.482410023156	-0.05810546875	1.14453125	0.10400390625	-21.8125	-0.5	-32.875
18	12	13	19	52	31	-0.459105971559	-0.422729055971	0.475768552021	-0.1103515625	1.0849609375	0.14111328125	-45.75	1.5	-27.1875
18	12	13	19	52	31	-0.461481911686	-0.420283619081	0.468317776533	-0.11181640625	0.955078125	0.2236328125	-52.375	3.625	-16.0625
18	12	13	19	52	31	-0.463191491308	-0.419185553077	0.464412183076	-0.0966796875	0.88134765625	0.2421875	-24.375	5.75	-6.0625
18	12	13	19	52	31	-0.462947873779	-0.420040509868	0.464046497606	-0.1015625	0.900390625	0.25732421875	5.4375	3.8125	-3.0
18	12	13	19	52	31	-0.46215548807	-0.421384243216	0.465756541133	-0.0859375	0.966796875	0.23291015625	17.6875	2.125	1.0
18	12	13	19	52	31	-0.461476564464	-0.422475966038	0.467091674096	-0.10888671875	0.98046875	0.19873046875	11.9375	1.25	1.9375
18	12	13	19	52	31	-0.461310398588	-0.422491476452	0.467047786451	-0.13916015625	0.95556640625	0.20068359375	-0.3125	-1.3125	1.75
18	12	13	19	52	31	-0.461433959348	-0.421394187214	0.465950640961	-0.14697265625	0.955078125	0.20361328125	-11.3125	-4.75	0.375
18	12	13	19	52	31	-0.461561785349	-0.419934552129	0.464003265303	-0.15673828125	0.89404296875	0.23681640625	-15.0	-6.5	-2.125
18	12	13	19	52	31	-0.461106951219	-0.41911600715	0.462510718244	-0.13525390625	0.923828125	0.24609375	-9.125	-5.1875	-5.75
18	12	13	19	52	31	-0.460572520126	-0.418946432302	0.460999767362	-0.14453125	0.95068359375	0.2333984375	-8.125	-2.4375	-6.75
18	12	13	19	52	31	-0.460578676452	-0.418280634737	0.459235881477	-0.12939453125	0.91796875	0.2353515625	-11.4375	-2.0	-5.0
18	12	13	19	52	31	-0.460573636243	-0.41858123474	0.458132217551	-0.103515625	0.958984375	0.2216796875	-5.3125	2.375	-5.625
18	12	13	19	52	31	-0.460513652417	-0.418826333054	0.457034622837	-0.125	0.9677734375	0.2119140625	-5.9375	1.625	-4.375
18	12	13	19	52	31	-0.460630986611	-0.41863892105	0.455992328206	-0.1162109375	0.9853515625	0.21728515625	-8.4375	0.3125	-3.6875
18	12	13	19	52	31	-0.460927992568	-0.418021162751	0.454824602835	-0.1044921875	0.9794921875	0.224609375	-10.3125	-0.875	-3.375
18	12	13	19	52	31	-0.460995820903	-0.417722149909	0.453732680073	-0.11865234375	0.95068359375	0.23388671875	-7.4375	-0.25	-3.875
18	12	13	19	52	31	-0.461128744659	-0.417670946354	0.453194034294	-0.126953125	0.9404296875	0.2373046875	-3.25	0.625	-0.625
18	12	13	19	52	31	-0.461474585841	-0.417591471541	0.452868856889	-0.11474609375	0.94580078125	0.24072265625	-1.875	1.1875	0.75
18	12	13	19	52	31	-0.461690535712	-0.417377033738	0.452351739841	-0.11083984375	0.90673828125	0.25048828125	-2.5625	0.375	-0.5625
18	12	13	19	52	31	-0.461732320202	-0.417298595271	0.45233287839	-0.115234375	0.923828125	0.2529296875	-0.6875	0.625	0.0625
18	12	13	19	52	31	-0.461620324384	-0.417490813009	0.451732384076	-0.14013671875	0.94189453125	0.22705078125	-3.125	0.375	-1.5
18	12	13	19	52	31	-0.461905116508	-0.417167213442	0.450308661416	-0.1474609375	0.9541015625	0.26025390625	-8.5	0.5625	-2.125
18	12	13	19	52	31	-0.462409136044	-0.416571060388	0.448309807847	-0.14404296875	0.9384765625	0.26220703125	-12.375	0.6875	-3.375
18	12	13	19	52	31	-0.462453576427	-0.416434044076	0.446584772168	-0.1484375	0.92041015625	0.27001953125	-8.5	0.875	-4.9375
18	12	13	19	52	31	-0.46204163909	-0.416691977552	0.445684022276	-0.13525390625	0.92529296875	0.25830078125	-2.6875	0.3125	-5.375
18	12	13	19	52	31	-0.461746896135	-0.416701395891	0.444900611491	-0.13525390625	0.91015625	0.2568359375	-3.125	-0.625	-4.0
18	12	13	19	52	31	-0.461489045329	-0.416689024264	0.444765331744	-0.1220703125	0.9091796875	0.25390625	-0.25	-1.1875	-2.0625
18	12	13	19	52	31	-0.461005218382	-0.416754088589	0.445196883739	-0.12353515625	0.9375	0.234375	1.8125	-2.25	-1.0
18	12	13	19	52	31	-0.46057768384	-0.416631761183	0.445135574906	-0.13916015625	0.93115234375	0.2392578125	-1.25	-2.625	-1.5625
18	12	13	19	52	31	-0.460337858064	-0.416452559741	0.444834567697	-0.1337890625	0.95947265625	0.24951171875	-2.8125	-1.875	-2.0
18	12	13	19	52	31	-0.460274293117	-0.416206127141	0.444160725503	-0.13232421875	0.943359375	0.2578125	-4.5	-1.0625	-3.0
18	12	13	19	52	31	-0.460216252118	-0.415903652776	0.443431176609	-0.12939453125	0.90625	0.26220703125	-4.375	-1.1875	-2.4375
18	12	13	19	52	31	-0.460257866157	-0.415825068576	0.443412464876	-0.12353515625	0.9072265625	0.26513671875	0.25	0.1875	-0.9375
18	12	13	19	52	31	-0.460334507045	-0.415595022337	0.443427498499	-0.123046875	0.88232421875	0.259765625	0.125	-1.0	1.0625
18	12	13	19	52	31	-0.460397384414	-0.415413575278	0.443795490133	-0.1220703125	0.8818359375	0.25439453125	2.125	-1.1875	2.0625
18	12	13	19	52	31	-0.459720381344	-0.415896797461	0.444766651467	-0.1455078125	0.91748046875	0.22509765625	6.0625	-1.5625	1.25
18	12	13	19	52	32	-0.459358254081	-0.416022569733	0.445014752924	-0.1474609375	0.94873046875	0.24365234375	1.375	-1.625	0.1875
18	12	13	19	52	32	-0.459229113537	-0.416016166649	0.444458586493	-0.14404296875	0.96240234375	0.2490234375	-3.875	-0.4375	-2.0625
18	12	13	19	52	32	-0.459415157829	-0.416018827655	0.443545895037	-0.1474609375	0.95751953125	0.2607421875	-5.0	1.3125	-2.0625
18	12	13	19	52	32	-0.459720155278	-0.415957628548	0.442752257885	-0.138671875	0.95751953125	0.25732421875	-5.1875	1.6875	-0.8125
18	12	13	19	52	32	-0.46044753347	-0.415342718089	0.442137053613	-0.1171875	0.9189453125	0.27197265625	-5.1875	0.6875	1.3125
18	12	13	19	52	32	-0.460810411939	-0.414790405237	0.442194891987	-0.11669921875	0.8857421875	0.27490234375	-0.25	-1.125	2.5
18	12	13	19	52	32	-0.461006608647	-0.414435968848	0.443367139575	-0.12109375	0.89794921875	0.2568359375	5.3125	-2.3125	6.0
18	12	13	19	52	32	-0.461422200729	-0.413876182956	0.444637663004	-0.1357421875	0.9208984375	0.23828125	3.125	-2.75	9.1875
18	12	13	19	52	32	-0.46205096699	-0.412977125846	0.444960574552	-0.1494140625	0.91357421875	0.2373046875	-3.0625	-3.125	7.5625
18	12	13	19	52	32	-0.462704397044	-0.41204555922	0.445004321178	-0.123046875	0.92041015625	0.25830078125	-4.0625	-2.0625	5.3125
18	12	13	19	52	32	-0.463011534488	-0.411742131777	0.44451792851	-0.1328125	0.92138671875	0.26171875	-3.75	-0.125	0.75
18	12	13	19	52	32	-0.463304025794	-0.41154775997	0.443529226116	-0.1328125	0.9189453125	0.2705078125	-5.375	1.0	-1.3125
18	12	13	19	52	32	-0.463698731583	-0.41145098718	0.442701974487	-0.12744140625	0.93310546875	0.26806640625	-4.8125	1.875	-0.6875
18	12	13	19	52	32	-0.464285914528	-0.410820098684	0.441825389151	-0.11328125	0.91455078125	0.26708984375	-7.5	0.3125	0.0
18	12	13	19	52	32	-0.464668273218	-0.410224020005	0.441047279951	-0.11962890625	0.8740234375	0.27294921875	-5.375	-0.8125	-0.375
18	12	13	19	52	32	-0.464308913017	-0.410535263435	0.441481052695	-0.12841796875	0.91455078125	0.25732421875	3.1875	-0.375	0.125
18	12	13	19	52	32	-0.463993116725	-0.410953124824	0.441715099413	-0.13330078125	0.95361328125	0.25244140625	2.3125	0.125	-0.5
18	12	13	19	52	32	-0.463677716849	-0.411188203029	0.441400190635	-0.1337890625	0.984375	0.2666015625	-1.5625	-0.125	-2.9375
18	12	13	19	52	32	-0.463568395348	-0.411260546129	0.440252644588	-0.142578125	0.99951171875	0.28466796875	-6.1875	1.0	-4.875
18	12	13	19	52	32	-0.463872583399	-0.411076559104	0.438298555446	-0.13720703125	0.98095703125	0.29150390625	-11.1875	2.5	-5.75
18	12	13	19	52	32	-0.464412321479	-0.410640833081	0.436336402452	-0.11865234375	0.9345703125	0.30078125	-11.1875	2.375	-5.6875
18	12	13	19	52	32	-0.465025408955	-0.409971869268	0.434935170523	-0.10791015625	0.90087890625	0.30712890625	-8.5	1.3125	-2.8125
18	12	13	19	52	32	-0.465276974256	-0.409856340303	0.434575896196	-0.138671875	0.9267578125	0.29345703125	-1.6875	0.75	0.6875
18	12	13	19	52	32	-0.465590580258	-0.409375461692	0.434583761331	-0.154296875	0.95263671875	0.27685546875	-3.0	-1.9375	3.625
18	12	13	19	52	32	-0.466321944205	-0.408153774987	0.434216532863	-0.13525390625	0.9150390625	0.298828125	-6.3125	-2.9375	4.4375
18	12	13	19	52	32	-0.466142384017	-0.407729622264	0.434708139187	-0.13916015625	0.91015625	0.28662109375	1.5625	-3.75	2.1875
18	12	13	19	52	32	-0.465880144929	-0.407469651192	0.435545750585	-0.13623046875	0.91259765625	0.296875	4.8125	-3.8125	3.0
18	12	13	19	52	32	-0.466188557103	-0.407106268117	0.435731881273	-0.14208984375	0.87548828125	0.2998046875	1.75	-1.0	4.625
18	12	13	19	52	32	-0.466183024066	-0.407162471006	0.436337056697	-0.13623046875	0.91357421875	0.27978515625	3.375	-0.625	3.4375
18	12	13	19	52	32	-0.466357793576	-0.406727959219	0.436390292379	-0.12353515625	0.923828125	0.29052734375	-0.75	-1.625	1.8125
18	12	13	19	52	32	-0.46644242712	-0.406260245343	0.436046152754	-0.12451171875	0.9423828125	0.30859375	-2.6875	-1.5625	-0.5
18	12	13	19	52	32	-0.466384040994	-0.405957369016	0.435194112327	-0.1376953125	0.93701171875	0.2998046875	-5.0625	-1.1875	-2.75
18	12	13	19	52	32	-0.466383245211	-0.40552941777	0.43421677875	-0.1240234375	0.939453125	0.31005859375	-5.75	-0.8125	-3.8125
18	12	13	19	52	32	-0.466247180817	-0.405334144234	0.433837539108	-0.11572265625	0.94287109375	0.29833984375	-2.5625	-0.9375	-3.125
18	12	13	19	52	32	-0.46613267823	-0.404913472225	0.433783546443	-0.10888671875	0.9189453125	0.2861328125	-2.0	-2.125	-1.25
18	12	13	19	52	32	-0.466073090218	-0.404121258556	0.434029039359	-0.11328125	0.88525390625	0.296875	-0.75	-4.625	0.8125
18	12	13	19	52	32	-0.465464703305	-0.403207425916	0.435800941725	-0.08447265625	0.912109375	0.28662109375	6.0	-8.3125	2.0625
18	12	13	19	52	32	-0.463576250691	-0.403088552938	0.438367956874	-0.080078125	0.90673828125	0.27978515625	14.8125	-10.625	-2.4375
18	12	13	19	52	32	-0.460633118724	-0.403015831845	0.440918729251	-0.11328125	0.92236328125	0.265625	14.125	-15.1875	-6.4375
18	12	13	19	52	32	-0.457712203343	-0.402657341706	0.441720658167	-0.125	0.935546875	0.26171875	3.0625	-15.1875	-12.9375
18	12	13	19	52	32	-0.454181607206	-0.403459269403	0.441058499351	-0.1904296875	0.90234375	0.26416015625	1.25	-11.0	-18.8125
18	12	13	19	52	32	-0.451250874113	-0.404740233497	0.439043356891	-0.23486328125	1.048828125	0.2978515625	-5.4375	-5.0	-20.5
18	12	13	19	52	32	-0.450927675581	-0.40521234951	0.433959904356	-0.3544921875	1.138671875	0.29345703125	-29.75	2.0	-11.0625
18	12	13	19	52	32	-0.453429028002	-0.404662061604	0.424620507176	-0.50244140625	0.921875	0.37451171875	-49.6875	10.6875	0.375
18	12	13	19	52	32	-0.456774667312	-0.405750666527	0.414783623604	-0.52978515625	0.70458984375	0.4482421875	-37.5625	23.875	5.1875
18	12	13	19	52	32	-0.460696659695	-0.410891615403	0.40594773233	-0.44873046875	0.84326171875	0.44970703125	-19.125	48.3125	1.8125
18	12	13	19	52	32	-0.468146392461	-0.411504951496	0.398138059717	-0.1689453125	1.13916015625	0.4755859375	-40.8125	44.375	7.625
18	12	13	19	52	32	-0.483593831343	-0.403452634757	0.389353155388	0.32763671875	1.029296875	0.4501953125	-88.1875	43.25	26.1875
18	12	13	19	52	32	-0.496339128537	-0.401246117929	0.381104466132	0.02490234375	0.90771484375	0.2265625	-70.5625	53.5625	32.25
18	12	13	19	52	32	-0.500789051473	-0.409420226359	0.369198412231	-1.3271484375	0.541015625	0.03759765625	-40.875	42.6875	53.75
18	12	13	19	52	33	-0.500305522445	-0.41387968131	0.361023199373	-0.79248046875	0.2529296875	0.17578125	-17.5625	15.3125	9.4375
18	12	13	19	52	33	-0.496224699127	-0.42450710731	0.359259357818	-0.51513671875	0.462890625	0.34765625	48.8125	34.75	-8.5625
18	12	13	19	52	33	-0.500478582589	-0.420524077322	0.351067415494	0.18603515625	0.71826171875	0.81884765625	-29.6875	25.25	-28.625
18	12	13	19	52	33	-0.503665909838	-0.416018764113	0.348330265081	1.537109375	2.54345703125	0.27392578125	-34.9375	-7.5625	9.375
18	12	13	19	52	33	-0.526375194898	-0.393011349715	0.353154786373	0.9287109375	0.48583984375	0.78662109375	-56.875	-5.8125	99.5625
18	12	13	19	52	33	-0.52106027447	-0.394716738315	0.376650223	0.3017578125	1.2138671875	0.18603515625	121.25	-50.5625	51.5
18	12	13	19	52	33	-0.517021079398	-0.399408091557	0.392389153518	-0.59375	0.7705078125	0.25732421875	97.875	-32.125	69.0
18	12	13	19	52	33	-0.510577572191	-0.404555666286	0.400832386919	-0.7744140625	0.75927734375	0.0810546875	55.0625	-31.8125	37.625
18	12	13	19	52	33	-0.51232308775	-0.408381436756	0.389704898175	-0.5478515625	0.65283203125	0.07763671875	-52.0625	30.625	-7.25
18	12	13	19	52	33	-0.51641921309	-0.410034779995	0.376953676875	-0.03759765625	0.94482421875	0.1787109375	-73.25	46.0	-35.0625
18	12	13	19	52	33	-0.526728165235	-0.40398768548	0.359188325888	-0.3056640625	0.54150390625	0.2841796875	-119.75	37.75	-3.4375
18	12	13	19	52	33	-0.526362966777	-0.405148118444	0.355832107643	-0.06103515625	0.25146484375	0.626953125	20.5	15.5625	-14.8125
