18	12	13	19	53	23	0.0108037637324	-0.137946361781	0.551419217847	-0.23974609375	0.8447265625	0.36279296875	-0.5	1.5	-5.8125
18	12	13	19	53	23	0.0115360339135	-0.139103816343	0.550677767024	-0.251953125	0.84765625	0.3642578125	-2.125	2.9375	-6.0
18	12	13	19	53	23	0.0122683443074	-0.140200929721	0.550488543822	-0.244140625	0.85986328125	0.341796875	0.1875	2.625	-6.3125
18	12	13	19	53	23	0.0130007457944	-0.141116076416	0.549510396181	-0.2275390625	0.8505859375	0.37109375	-3.375	2.25	-7.5
18	12	13	19	53	23	0.0141604691511	-0.142642312095	0.549450617665	-0.23828125	0.86962890625	0.36083984375	2.4375	3.9375	-10.5625
18	12	13	19	53	23	0.0153816833602	-0.144050685437	0.549834141701	-0.24755859375	0.91455078125	0.36474609375	4.375	3.8125	-10.875
18	12	13	19	53	23	0.016236100374	-0.145514523653	0.549341741978	-0.2548828125	0.8984375	0.38818359375	0.25	4.5	-9.125
18	12	13	19	53	23	0.0172128325499	-0.147407768114	0.549711950158	-0.24169921875	0.85791015625	0.36279296875	6.125	7.25	-10.9375
18	12	13	19	53	23	0.019165614035	-0.150334099899	0.55079777405	-0.263671875	0.8125	0.3447265625	12.25	8.8125	-16.375
18	12	13	19	53	23	0.0215457003125	-0.153566521208	0.552741818782	-0.30078125	0.81005859375	0.3271484375	18.3125	8.625	-16.5
18	12	13	19	53	23	0.0241099225493	-0.15717227991	0.554833407528	-0.27978515625	0.8046875	0.31884765625	19.75	10.8125	-20.3125
18	12	13	19	53	23	0.0264293680321	-0.161628098266	0.557030976123	-0.30517578125	0.86083984375	0.29541015625	18.125	15.0625	-21.9375
18	12	13	19	53	23	0.0283205451862	-0.166016989022	0.557560733353	-0.3193359375	0.87109375	0.31982421875	8.25	15.0625	-21.125
18	12	13	19	53	23	0.030580338658	-0.170480810123	0.557282419057	-0.3046875	0.85595703125	0.3486328125	5.3125	15.125	-24.6875
18	12	13	19	53	23	0.0342432686517	-0.176160558518	0.557414490779	-0.31689453125	0.779296875	0.31005859375	9.9375	16.125	-33.0625
18	12	13	19	53	24	0.0386356443876	-0.181642460817	0.558721467178	-0.34716796875	0.85205078125	0.328125	18.625	14.0625	-35.625
18	12	13	19	53	24	0.0422378522278	-0.186652242937	0.560567102398	-0.3232421875	0.88720703125	0.2822265625	18.3125	14.9375	-33.125
18	12	13	19	53	24	0.0455333561092	-0.191838255028	0.56049974417	-0.32861328125	0.837890625	0.30419921875	7.75	15.5	-32.8125
18	12	13	19	53	24	0.0490731179001	-0.197391123494	0.560556610441	-0.32421875	0.83642578125	0.29736328125	8.875	16.875	-36.5625
18	12	13	19	53	24	0.0532248285283	-0.203255365825	0.560935979558	-0.3525390625	0.8134765625	0.287109375	12.5	16.6875	-38.625
18	12	13	19	53	24	0.0579838618818	-0.208986045351	0.561527925592	-0.39111328125	0.88134765625	0.2626953125	12.1875	13.3125	-40.75
18	12	13	19	53	24	0.0623180598334	-0.213382896354	0.561045647394	-0.38037109375	0.9443359375	0.28369140625	3.875	8.375	-39.1875
18	12	13	19	53	24	0.0655526718697	-0.2174102581	0.55817428701	-0.37353515625	0.92626953125	0.310546875	-12.1875	7.625	-35.6875
18	12	13	19	53	24	0.0687870462167	-0.221314844349	0.554324714942	-0.39501953125	0.861328125	0.3212890625	-17.5625	6.1875	-34.0
18	12	13	19	53	24	0.0718394720203	-0.224551756638	0.551827244295	-0.4248046875	0.90771484375	0.3349609375	-9.125	5.0	-29.8125
18	12	13	19	53	24	0.0739149021276	-0.225651026561	0.550302855147	-0.44140625	0.95947265625	0.318359375	-7.4375	-2.0	-18.375
18	12	13	19	53	24	0.0734287388754	-0.22425368797	0.547877273604	-0.4267578125	0.9775390625	0.34423828125	-17.625	-6.8125	-0.75
18	12	13	19	53	24	0.0714757465658	-0.220347946288	0.545681617676	-0.3974609375	0.97412109375	0.31689453125	-22.0625	-15.1875	13.5
18	12	13	19	53	24	0.0672008864066	-0.213382651115	0.542245844538	-0.35986328125	1.0439453125	0.42333984375	-30.8125	-21.5	29.8125
18	12	13	19	53	24	0.0600604113494	-0.202337666284	0.537858073995	-0.22412109375	1.11181640625	0.46533203125	-42.8125	-31.25	46.8125
18	12	13	19	53	24	0.0530407452394	-0.188358733957	0.534374826894	-0.0888671875	1.19189453125	0.41064453125	-43.875	-43.625	48.3125
18	12	13	19	53	24	0.0468765964849	-0.172369151658	0.529559050915	0.03759765625	1.091796875	0.43896484375	-48.25	-54.3125	46.5
18	12	13	19	53	24	0.039125358427	-0.154548217687	0.528772199771	0.00439453125	1.0595703125	0.33056640625	-28.625	-58.9375	68.4375
18	12	13	19	53	24	0.0375999885024	-0.155649303054	0.521150489989	-1.01513671875	0.12939453125	0.228515625	-42.25	-19.5625	56.6875
18	12	13	19	53	24	0.0476692285413	-0.158266721648	0.525460164548	-0.9541015625	0.00244140625	0.3154296875	58.6875	-33.25	3.875
18	12	13	19	53	24	0.0579851947105	-0.165959730966	0.534684532278	-0.85009765625	1.15673828125	0.32275390625	64.75	0.5	-41.9375
18	12	13	19	53	24	0.0559119243166	-0.161937047175	0.525303516014	-0.458984375	1.38525390625	0.45556640625	-77.6875	-24.9375	10.9375
18	12	13	19	53	24	0.0497451643533	-0.152714602714	0.509475934794	0.0205078125	0.79931640625	0.74462890625	-94.1875	-24.875	27.5625
18	12	13	19	53	24	0.0461435144628	-0.142764127419	0.508555241408	0.14013671875	0.9453125	0.6162109375	-4.625	-23.375	18.75
18	12	13	19	53	24	0.0445579719834	-0.135749218755	0.511379026407	-0.103515625	0.7705078125	0.40576171875	15.9375	-23.6875	21.4375
18	12	13	19	53	24	0.0465092063618	-0.132752655954	0.521428018306	-0.4599609375	0.7705078125	0.30224609375	63.625	-21.125	18.625
18	12	13	19	53	24	0.0485239580833	-0.130556913636	0.529674098424	-0.54345703125	1.02294921875	0.31982421875	46.9375	-20.3125	15.6875
18	12	13	19	53	24	0.0508458298116	-0.129769788931	0.524145426882	-0.95849609375	0.75537109375	0.43798828125	-30.5	-34.5	32.6875
18	12	13	19	53	24	0.0584744813231	-0.131598102017	0.509851088196	-0.93408203125	-0.06787109375	0.38671875	-63.4375	-45.0	6.0625
18	12	13	19	53	24	0.076721814191	-0.137818501546	0.505008982193	-0.6171875	-0.00927734375	0.44482421875	12.75	-35.125	-74.375
18	12	13	19	53	24	0.101380311143	-0.138551057372	0.507511912797	-0.5263671875	0.7578125	0.27490234375	41.4375	-65.8125	-119.0
18	12	13	19	53	24	0.118472836627	-0.128666017316	0.494277707887	-0.1318359375	0.90478515625	0.76806640625	-51.75	-97.375	-73.8125
18	12	13	19	53	24	0.138554291695	-0.116275738185	0.494644925065	0.2646484375	0.6826171875	1.0546875	38.5625	-107.625	-71.1875
18	12	13	19	53	24	0.163403976499	-0.105049773461	0.512491515384	0.17578125	1.28173828125	0.3251953125	145.875	-98.375	-98.4375
18	12	13	19	53	24	0.171205704929	-0.10217409984	0.53320963931	0.04052734375	1.67333984375	-0.70263671875	126.5	-12.4375	-40.5625
18	12	13	19	53	24	0.155586045421	-0.108464653869	0.541712888626	-0.25830078125	1.681640625	-0.26611328125	-28.5	73.3125	31.125
18	12	13	19	53	24	0.154482797534	-0.113039170697	0.521799066028	-0.2060546875	1.2001953125	0.4169921875	-139.625	0.3125	-14.8125
18	12	13	19	53	24	0.149790865763	-0.108161945449	0.511022464618	-0.2353515625	0.33251953125	0.5732421875	-52.1875	-17.6875	42.875
18	12	13	19	53	24	0.147714911697	-0.0980289868537	0.530064583959	-0.53564453125	0.26708984375	0.46435546875	133.9375	-21.5625	49.125
18	12	13	19	53	24	0.155647806615	-0.101384708544	0.554838651817	0.0439453125	1.98193359375	-0.27001953125	158.3125	22.25	-61.6875
18	12	13	19	53	24	0.141549596633	-0.0973573120437	0.551976283894	-1.44775390625	-0.052734375	0.466796875	-26.25	14.0625	103.125
18	12	13	19	53	24	0.148261428453	-0.094914170953	0.569362949614	0.11376953125	0.822265625	0.45556640625	130.0625	-7.875	-30.875
18	12	13	19	53	24	0.159064756836	-0.117986252864	0.56478365119	-1.31396484375	0.65283203125	0.38330078125	-20.125	46.9375	-65.3125
18	12	13	19	53	24	0.154789343832	-0.111575284118	0.561294481813	-0.8232421875	-0.16552734375	0.5634765625	10.8125	-26.75	95.4375
18	12	13	19	53	24	0.163336921206	-0.125127312583	0.563500170617	-0.96630859375	0.29833984375	0.63720703125	52.3125	34.125	-36.125
18	12	13	19	53	24	0.165719263084	-0.13123256561	0.563567571291	-0.78076171875	0.61181640625	0.5009765625	17.0625	17.125	-2.125
18	12	13	19	53	24	0.153752921573	-0.128239336334	0.562031322684	-0.5478515625	0.810546875	0.41162109375	-20.0	18.6875	78.6875
18	12	13	19	53	24	0.141054269686	-0.125429045523	0.561653565405	-0.4580078125	0.904296875	0.302734375	-21.1875	22.0625	74.8125
18	12	13	19	53	24	0.12738515414	-0.122319045949	0.562948383627	-0.40478515625	0.84765625	0.1904296875	-15.5625	24.3125	80.3125
18	12	13	19	53	24	0.111947644673	-0.117319178332	0.566269519972	-0.3125	0.85693359375	0.1591796875	-4.0	24.625	90.625
18	12	13	19	53	25	0.0977210197234	-0.112064829614	0.572592683339	-0.228515625	0.91845703125	0.1357421875	17.125	24.6875	81.625
18	12	13	19	53	25	0.084416727251	-0.104071236416	0.580174253449	-0.23388671875	0.9736328125	0.201171875	32.25	11.375	87.6875
18	12	13	19	53	25	0.0701336013339	-0.0924738085473	0.588536278556	-0.07373046875	1.025390625	0.19970703125	38.5	1.9375	95.9375
18	12	13	19	53	25	0.0551780746675	-0.0811801319776	0.596643451189	0.00634765625	1.048828125	0.232421875	41.125	7.0	94.625
18	12	13	19	53	25	0.0396745044337	-0.0709868440867	0.605127749162	0.01220703125	1.05029296875	0.2392578125	47.1875	14.3125	95.3125
18	12	13	19	53	25	0.0247807689001	-0.0610974129777	0.615368748892	-0.0048828125	0.990234375	0.17822265625	60.5625	13.1875	95.9375
18	12	13	19	53	25	0.0115366021243	-0.0506023447675	0.626699968309	-0.02099609375	0.9580078125	0.1572265625	72.625	4.5	94.75
18	12	13	19	53	25	-0.00207532293502	-0.0385155521176	0.639077386166	0.052734375	0.98681640625	0.1357421875	82.5	-0.375	99.25
18	12	13	19	53	25	-0.0159305286852	-0.0275885017844	0.650466069726	0.158203125	0.95947265625	0.1259765625	80.4375	5.1875	100.8125
18	12	13	19	53	25	-0.0322281637702	-0.0169686165305	0.660738395478	0.23583984375	0.9248046875	0.11328125	74.9375	17.3125	97.3125
18	12	13	19	53	25	-0.0490757197894	-0.00793512882167	0.670518385432	0.26220703125	0.93505859375	0.076171875	73.25	25.625	94.5625
18	12	13	19	53	25	-0.0650046956044	-6.1037272868e-05	0.679161735202	0.248046875	0.93212890625	0.03955078125	66.4375	27.125	89.25
18	12	13	19	53	25	-0.0792273920164	0.00714145213091	0.686128747039	0.21533203125	0.91796875	0.0224609375	55.125	23.25	83.125
18	12	13	19	53	25	-0.0923496651355	0.0136723892864	0.691798482912	0.2177734375	0.89453125	0.013671875	47.25	22.0625	77.375
18	12	13	19	53	25	-0.104802182914	0.0187386547202	0.697480806149	0.220703125	0.92333984375	0.0	49.1875	25.4375	70.3125
18	12	13	19	53	25	-0.116520754923	0.0221566443358	0.702176408924	0.2041015625	0.92333984375	0.00439453125	43.8125	29.25	63.1875
18	12	13	19	53	25	-0.127812260091	0.0245370241436	0.706019299176	0.2109375	0.89306640625	0.01904296875	40.5625	32.375	57.375
18	12	13	19	53	25	-0.138923939007	0.0259414209482	0.710489740792	0.27099609375	0.89208984375	0.03076171875	48.4375	34.6875	50.375
18	12	13	19	53	25	-0.149476898782	0.0255740386237	0.71625618914	0.32470703125	0.9130859375	0.00830078125	60.3125	37.8125	39.625
18	12	13	19	53	25	-0.159251357153	0.0233780259829	0.720873333834	0.34912109375	0.94189453125	0.00341796875	53.0625	42.625	28.125
18	12	13	19	53	25	-0.16870886539	0.0204477098067	0.72348269952	0.37939453125	0.92236328125	0.0087890625	38.5	45.9375	20.4375
18	12	13	19	53	25	-0.178476716792	0.0170297551248	0.725382114348	0.40185546875	0.87841796875	0.01806640625	34.5625	49.3125	17.75
18	12	13	19	53	25	-0.187683903231	0.0126953664625	0.72790836746	0.37890625	0.85791015625	-0.01953125	38.9375	50.5625	13.875
18	12	13	19	53	25	-0.196359457736	0.00769079629306	0.728916581997	0.3408203125	0.86181640625	-0.0439453125	25.5	53.0	10.875
18	12	13	19	53	25	-0.204657913404	0.00225837840619	0.729090001674	0.349609375	0.86328125	-0.10107421875	15.25	55.5625	6.3125
18	12	13	19	53	25	-0.211617992618	-0.00390641809275	0.727143105295	0.27587890625	0.92431640625	-0.05126953125	0.5625	54.25	1.75
18	12	13	19	53	25	-0.216377522885	-0.00732448596507	0.724452699329	0.30810546875	0.89599609375	-0.03076171875	-10.8125	35.375	0.125
18	12	13	19	53	25	-0.219180087973	-0.00982678756995	0.721322829203	0.384765625	0.85888671875	-0.01220703125	-17.3125	24.125	-10.5625
18	12	13	19	53	25	-0.219914008364	-0.014465617536	0.718336931566	0.28955078125	0.8310546875	0.02734375	-13.8125	22.625	-22.3125
18	12	13	19	53	25	-0.219116643155	-0.0200806060161	0.717164500575	0.20849609375	0.91845703125	-0.01123046875	-2.0	18.9375	-23.5625
18	12	13	19	53	25	-0.221079247998	-0.0234995887573	0.715303066616	0.3525390625	1.009765625	-0.021484375	-7.8125	23.125	-11.9375
18	12	13	19	53	25	-0.224674292089	-0.0254520999188	0.710888747612	0.376953125	1.06591796875	-0.01318359375	-29.0625	27.0	-3.4375
18	12	13	19	53	25	-0.227421052899	-0.0261235133228	0.705029678484	0.33984375	0.97900390625	0.0556640625	-39.75	19.625	-3.375
18	12	13	19	53	25	-0.229191220156	-0.0254521275114	0.70020816981	0.32177734375	0.943359375	0.08935546875	-32.875	8.8125	0.625
18	12	13	19	53	25	-0.230116162446	-0.024842779341	0.696940674486	0.30126953125	0.8701171875	0.09619140625	-21.25	3.6875	-1.25
18	12	13	19	53	25	-0.229688661286	-0.0264297609187	0.695475048285	0.24853515625	0.86376953125	0.08837890625	-5.75	4.9375	-9.9375
18	12	13	19	53	25	-0.229800774336	-0.0286259131908	0.69520074892	0.2802734375	0.9541015625	0.07177734375	3.8125	8.6875	-8.6875
18	12	13	19	53	25	-0.230469814196	-0.0297852937838	0.694339143617	0.30810546875	0.94580078125	0.05712890625	-2.6875	7.5625	-5.4375
18	12	13	19	53	25	-0.230963618186	-0.0302132640069	0.692158411794	0.302734375	0.943359375	0.05810546875	-14.8125	5.9375	-4.8125
18	12	13	19	53	25	-0.231584438106	-0.0300925482305	0.689931181844	0.3359375	0.927734375	0.064453125	-15.8125	4.5	-4.75
18	12	13	19	53	25	-0.231938971165	-0.0305182856796	0.688004232362	0.2998046875	0.90185546875	0.07666015625	-12.5	4.8125	-5.6875
18	12	13	19	53	25	-0.231811244075	-0.0308227167608	0.686217434737	0.2802734375	0.8916015625	0.0791015625	-11.75	2.25	-6.25
18	12	13	19	53	25	-0.232183105341	-0.031250722906	0.685196514342	0.29443359375	0.8681640625	0.10205078125	-4.0	3.4375	-4.5
18	12	13	19	53	25	-0.232558396005	-0.0325947988102	0.684918047657	0.2958984375	0.9111328125	0.06494140625	1.0	7.375	-6.5
18	12	13	19	53	25	-0.233100745868	-0.0346080447518	0.684348144193	0.27197265625	0.91943359375	0.0498046875	-1.5625	10.9375	-7.0
18	12	13	19	53	25	-0.233218020563	-0.0365604800621	0.683296451245	0.265625	0.91845703125	0.05419921875	-5.375	9.5	-9.375
18	12	13	19	53	25	-0.233527408416	-0.0374766933528	0.682881506891	0.2998046875	0.921875	0.04931640625	-2.25	5.625	-5.75
18	12	13	19	53	25	-0.232909550193	-0.0385741183758	0.682188166276	0.24951171875	0.9150390625	0.07373046875	-3.8125	2.5	-8.0
18	12	13	19	53	25	-0.232801890439	-0.0396141654155	0.68125377535	0.2685546875	0.95458984375	0.10302734375	-3.4375	4.0625	-6.25
18	12	13	19	53	25	-0.234134604279	-0.0412604255716	0.681102202593	0.31689453125	0.91015625	0.06982421875	3.0625	12.3125	-5.75
18	12	13	19	53	25	-0.235047630541	-0.0443727934052	0.681033877325	0.26220703125	0.92724609375	0.08251953125	6.375	15.625	-8.8125
18	12	13	19	53	26	-0.235666937389	-0.0468159909291	0.680815596901	0.23828125	0.9443359375	0.0771484375	3.6875	12.4375	-6.1875
18	12	13	19	53	26	-0.23603045313	-0.0487686403028	0.680746740047	0.22265625	0.9423828125	0.091796875	4.4375	8.6875	-4.0625
18	12	13	19	53	26	-0.236210452291	-0.0497445784541	0.68018844453	0.216796875	0.9541015625	0.0771484375	-1.75	4.6875	-1.8125
18	12	13	19	53	26	-0.236463452273	-0.0499905956148	0.67874899052	0.21337890625	0.900390625	0.08447265625	-9.6875	3.3125	-0.5625
18	12	13	19	53	26	-0.23756496485	-0.049258717018	0.677597295683	0.28955078125	0.896484375	0.11572265625	-5.9375	2.125	2.0625
18	12	13	19	53	26	-0.239147155685	-0.0473045037406	0.678193988467	0.34228515625	0.943359375	0.11083984375	5.5625	-2.375	9.25
18	12	13	19	53	26	-0.238783884398	-0.0463895071938	0.678812775662	0.220703125	0.94970703125	0.08447265625	3.75	-6.1875	5.25
18	12	13	19	53	26	-0.237619926927	-0.0462055701731	0.67837345694	0.1865234375	0.9853515625	0.07666015625	-5.1875	-5.3125	-0.125
18	12	13	19	53	26	-0.238051343994	-0.0453518329711	0.678080097545	0.26123046875	0.951171875	0.09716796875	-1.6875	-1.9375	4.5625
18	12	13	19	53	26	-0.238473479336	-0.044374256329	0.677699268254	0.25146484375	0.927734375	0.08984375	-3.25	-1.9375	5.0625
18	12	13	19	53	26	-0.238464902249	-0.0430909191165	0.677247646624	0.2666015625	0.90087890625	0.08349609375	-4.9375	-4.875	2.5625
18	12	13	19	53	26	-0.239393544847	-0.0418114681846	0.677712016428	0.32177734375	0.89404296875	0.1162109375	5.6875	-2.25	4.75
18	12	13	19	53	26	-0.240674297747	-0.0402853250096	0.679784340352	0.35498046875	0.9404296875	0.05615234375	14.0	-2.625	8.375
18	12	13	19	53	26	-0.240794656054	-0.0399798478365	0.680695058126	0.29443359375	0.95361328125	0.01806640625	3.125	-0.6875	1.8125
18	12	13	19	53	26	-0.239565015042	-0.039734222877	0.680425678392	0.19482421875	0.9189453125	0.0361328125	-6.0625	-5.375	-0.75
18	12	13	19	53	26	-0.239198378626	-0.0386965481115	0.680119299063	0.22900390625	0.90283203125	0.0625	-4.75	-5.25	3.6875
18	12	13	19	53	26	-0.23957390225	-0.0374162553068	0.679596389211	0.25537109375	0.92529296875	0.09033203125	-4.3125	-3.5	6.3125
18	12	13	19	53	26	-0.240613888685	-0.03582961762	0.678809501793	0.279296875	0.9052734375	0.11669921875	-4.5	-2.0625	8.1875
18	12	13	19	53	26	-0.242191285347	-0.0343022939429	0.67835532897	0.3037109375	0.9169921875	0.13525390625	-0.1875	-0.3125	9.9375
18	12	13	19	53	26	-0.243108862524	-0.0325935557589	0.678666191916	0.28125	0.9443359375	0.1162109375	3.375	-4.4375	10.9375
18	12	13	19	53	26	-0.242688567162	-0.0308854162435	0.678502543404	0.2294921875	0.9228515625	0.10791015625	-2.25	-8.9375	7.4375
18	12	13	19	53	26	-0.242438516433	-0.0293587428006	0.678302928781	0.2626953125	0.9267578125	0.109375	-1.625	-7.9375	5.4375
18	12	13	19	53	26	-0.242687713168	-0.0282606668	0.678744308458	0.29833984375	0.9482421875	0.0654296875	1.125	-3.5	5.25
18	12	13	19	53	26	-0.242500027624	-0.0275276900222	0.678792551523	0.265625	0.9375	0.0712890625	-1.3125	-4.0625	3.5625
18	12	13	19	53	26	-0.242552396687	-0.0266111839344	0.678524155502	0.2724609375	0.9111328125	0.08740234375	-2.6875	-3.375	3.75
18	12	13	19	53	26	-0.243356671319	-0.0258799168897	0.679042630655	0.3388671875	0.92236328125	0.0859375	4.875	-0.3125	3.625
18	12	13	19	53	26	-0.243899218808	-0.0255740171873	0.680183407007	0.32861328125	0.94775390625	0.06689453125	8.4375	-0.25	2.875
18	12	13	19	53	26	-0.243843568072	-0.0253914704175	0.680442577439	0.29248046875	0.96630859375	0.05810546875	0.4375	-0.875	1.5
18	12	13	19	53	26	-0.243354735201	-0.0250251922329	0.680074858193	0.27197265625	0.927734375	0.07275390625	-3.875	-3.25	-0.375
18	12	13	19	53	26	-0.242983472551	-0.0241091363118	0.679572465053	0.3037109375	0.91552734375	0.0888671875	-4.6875	-4.5	-0.125
18	12	13	19	53	26	-0.242186365919	-0.0236204948616	0.678951898811	0.27001953125	0.89111328125	0.0888671875	-5.4375	-4.875	-2.1875
18	12	13	19	53	26	-0.2422538909	-0.0217900325148	0.678970088782	0.318359375	0.90380859375	0.10595703125	-0.5	-7.625	5.0
18	12	13	19	53	26	-0.242981334037	-0.018859892544	0.679993730849	0.35986328125	0.9326171875	0.0791015625	5.0	-9.75	11.8125
18	12	13	19	53	26	-0.242677848359	-0.0160523828265	0.680975038767	0.3037109375	0.94140625	0.07763671875	3.4375	-13.625	11.125
18	12	13	19	53	26	-0.242256699999	-0.013306112522	0.681846710932	0.2958984375	0.919921875	0.05810546875	1.375	-13.625	10.5625
18	12	13	19	53	26	-0.241647667468	-0.0117192099404	0.682705016578	0.2998046875	0.92333984375	0.0615234375	3.4375	-9.75	5.0625
18	12	13	19	53	26	-0.241777505914	-0.010376716992	0.683520452217	0.3271484375	0.966796875	0.0625	4.25	-5.8125	6.5625
18	12	13	19	53	26	-0.241702817728	-0.00915540976243	0.683664964993	0.29833984375	0.96240234375	0.04931640625	-1.75	-5.0625	6.125
18	12	13	19	53	26	-0.24122275156	-0.00836222595236	0.682589582666	0.25732421875	0.916015625	0.1015625	-8.0	-4.8125	2.8125
18	12	13	19	53	26	-0.241704003166	-0.00762954555449	0.682386554393	0.33837890625	0.876953125	0.08984375	-0.125	-1.0	2.0
18	12	13	19	53	26	-0.242557314055	-0.00891126518672	0.682688363791	0.33837890625	0.8994140625	0.07080078125	5.625	8.125	-3.375
18	12	13	19	53	26	-0.242984106648	-0.0113526862186	0.682748107752	0.29248046875	0.90576171875	0.04296875	3.125	11.375	-6.6875
18	12	13	19	53	26	-0.243479820412	-0.0129400155245	0.682829970155	0.29833984375	0.9033203125	0.04541015625	2.375	8.5625	-3.8125
18	12	13	19	53	26	-0.24311919127	-0.0144662938315	0.682357378661	0.27392578125	0.89990234375	0.06689453125	-1.75	5.3125	-6.8125
18	12	13	19	53	26	-0.242863763758	-0.0156863501598	0.681898459086	0.3193359375	0.89453125	0.0517578125	-3.1875	4.6875	-8.1875
18	12	13	19	53	26	-0.243475402897	-0.0165409461482	0.681779957474	0.34326171875	0.8779296875	0.0478515625	0.0	6.5625	-4.9375
18	12	13	19	53	26	-0.244085642607	-0.0173954508985	0.681108198512	0.32177734375	0.87060546875	0.0546875	-3.8125	7.125	-4.125
18	12	13	19	53	26	-0.245245101783	-0.0181278733772	0.681229611997	0.34814453125	0.90869140625	0.05859375	2.875	7.5	-0.875
18	12	13	19	53	26	-0.245916182015	-0.0186771783809	0.681961157026	0.33740234375	1.00146484375	0.06103515625	6.625	4.1875	1.25
18	12	13	19	53	26	-0.244142996542	-0.0195924754725	0.680914817356	0.23583984375	0.98828125	0.083984375	-8.5625	-2.5625	-7.5
18	12	13	19	53	27	-0.242865263888	-0.0203862774915	0.678667722837	0.2451171875	0.931640625	0.1181640625	-15.0	-0.125	-9.0
18	12	13	19	53	27	-0.243784895926	-0.0203255809573	0.677641440804	0.3466796875	0.9658203125	0.1044921875	-5.8125	4.5	0.125
18	12	13	19	53	27	-0.24482522396	-0.0193491887298	0.677099528642	0.287109375	0.908203125	0.10595703125	-2.375	0.25	7.8125
18	12	13	19	53	27	-0.24481474912	-0.0164796764554	0.676521236412	0.251953125	0.86865234375	0.1630859375	-3.1875	-12.875	12.1875
18	12	13	19	53	27	-0.244147065387	-0.0130008312318	0.677202922617	0.3330078125	0.9072265625	0.15625	4.625	-19.0	9.3125
18	12	13	19	53	27	-0.242995125158	-0.0111700848792	0.678750512876	0.31689453125	0.9736328125	0.10498046875	9.4375	-14.3125	4.5
18	12	13	19	53	27	-0.242616565936	-0.00891119965452	0.679204313394	0.30029296875	1.03662109375	0.03662109375	-3.625	-10.5	10.8125
18	12	13	19	53	27	-0.243290965862	-0.00543223681931	0.677930947776	0.30419921875	0.92626953125	0.048828125	-15.8125	-8.6875	15.3125
18	12	13	19	53	27	-0.242994308099	-0.00225842486804	0.677405383392	0.32568359375	0.84130859375	0.103515625	-7.25	-13.625	8.0
18	12	13	19	53	27	-0.24273783145	-0.000732424937743	0.678286527761	0.31787109375	0.8740234375	0.11083984375	6.875	-9.125	5.125
18	12	13	19	53	27	-0.242741471245	-0.000244145306759	0.679334316056	0.2958984375	0.9111328125	0.078125	7.625	-3.6875	4.625
18	12	13	19	53	27	-0.242866588965	-0.000488296735793	0.679342833673	0.2890625	0.890625	0.072265625	0.75	1.1875	1.25
18	12	13	19	53	27	-0.243722694072	-0.000366224934744	0.679591403906	0.369140625	0.88818359375	0.04541015625	1.1875	3.625	0.75
18	12	13	19	53	27	-0.24348290329	-0.0013428488023	0.679725648292	0.3232421875	0.87646484375	0.08251953125	2.625	2.1875	-5.8125
18	12	13	19	53	27	-0.242685247079	-0.00231942640568	0.679958162087	0.30126953125	0.93408203125	0.0849609375	2.8125	0.1875	-5.6875
18	12	13	19	53	27	-0.242676257679	-0.00250244631913	0.680421257698	0.330078125	0.953125	0.07666015625	3.9375	-0.0625	-0.125
18	12	13	19	53	27	-0.243351730707	-0.000976580810462	0.681287187899	0.34716796875	0.9189453125	0.0615234375	5.0625	-4.1875	8.375
18	12	13	19	53	27	-0.243285205661	0.000976558778369	0.681821132072	0.30517578125	0.91650390625	0.06103515625	0.6875	-8.625	9.3125
18	12	13	19	53	27	-0.242930831749	0.00238047799955	0.682403693204	0.3271484375	0.87109375	0.0537109375	1.25	-7.3125	3.75
18	12	13	19	53	27	-0.243354303197	0.00299081034779	0.683369645997	0.34326171875	0.91162109375	0.06494140625	7.375	-2.1875	4.25
18	12	13	19	53	27	-0.24317137264	0.00433362636985	0.684102596525	0.32470703125	0.9736328125	0.033203125	1.6875	-6.5	7.4375
18	12	13	19	53	27	-0.243177190333	0.00714149881248	0.683630655554	0.27392578125	0.91162109375	0.0771484375	-6.75	-10.8125	14.125
18	12	13	19	53	27	-0.244878711065	0.0111696919554	0.684891330225	0.3095703125	0.8818359375	0.111328125	10.4375	-12.625	26.625
18	12	13	19	53	27	-0.246046725863	0.0151375807527	0.687783306133	0.3447265625	0.91943359375	0.07958984375	21.0	-15.9375	25.125
18	12	13	19	53	27	-0.247503056664	0.0193485743434	0.689956733054	0.43212890625	0.8916015625	0.03076171875	12.875	-13.5625	20.875
18	12	13	19	53	27	-0.242866588965	-0.000488296735793	0.679342833673	0.2890625	0.890625	0.072265625	0.75	1.1875	1.25
18	12	13	19	53	27	-0.243722694072	-0.000366224934744	0.679591403906	0.369140625	0.88818359375	0.04541015625	1.1875	3.625	0.75
18	12	13	19	53	27	-0.247747453762	0.021362800891	0.691788529424	0.40234375	0.8505859375	-0.02294921875	8.125	-7.875	7.4375
18	12	13	19	53	27	-0.246649294843	0.0214238808439	0.693132737501	0.3447265625	0.87548828125	-0.0185546875	5.3125	-5.25	-2.5625
18	12	13	19	53	27	-0.246647610082	0.0213626982254	0.693616293237	0.3544921875	0.8759765625	-0.0068359375	1.25	0.5	0.1875
18	12	13	19	53	27	-0.246524682942	0.0212405520336	0.693308708476	0.3388671875	0.87060546875	-0.0068359375	-5.25	1.6875	-0.875
18	12	13	19	53	27	-0.24799170538	0.0216069563634	0.692887482027	0.40380859375	0.84619140625	0.02783203125	-1.9375	5.125	3.0625
18	12	13	19	53	27	-0.248969887725	0.0215460579473	0.692891925828	0.4033203125	0.873046875	0.03662109375	1.375	4.125	0.875
18	12	13	19	53	27	-0.248725388104	0.0209966953393	0.692341614051	0.3642578125	0.8935546875	0.03173828125	-4.5	2.3125	-4.5625
18	12	13	19	53	27	-0.247988955483	0.019348387617	0.691109757059	0.29052734375	0.87646484375	0.052734375	-7.9375	4.875	-7.5625
18	12	13	19	53	27	-0.248110665463	0.0185548935549	0.689888032405	0.3720703125	0.9072265625	0.04638671875	-8.3125	5.5625	-5.3125
18	12	13	19	53	27	-0.2486632386	0.017700623268	0.688859428286	0.39599609375	0.88037109375	0.0341796875	-7.0625	7.5625	-5.4375
18	12	13	19	53	27	-0.24843106816	0.0163586059624	0.688038083612	0.34375	0.857421875	0.0537109375	-4.875	5.1875	-8.125
18	12	13	19	53	27	-0.247928381836	0.014648648853	0.687570955535	0.35302734375	0.8798828125	0.03857421875	-2.9375	6.0625	-10.4375
18	12	13	19	53	27	-0.247755136493	0.0121466548811	0.687048981614	0.3271484375	0.85546875	0.052734375	-0.875	9.5	-11.4375
18	12	13	19	53	27	-0.247626269466	0.0098269236835	0.686969105949	0.359375	0.861328125	0.0419921875	1.5	9.1875	-12.3125
18	12	13	19	53	27	-0.247622201212	0.00646979377089	0.687446106052	0.3671875	0.876953125	0.0595703125	8.9375	12.1875	-15.125
18	12	13	19	53	27	-0.247749181587	0.000854517995127	0.689290837069	0.35107421875	0.94189453125	0.095703125	25.5625	18.6875	-19.5
18	12	13	19	53	27	-0.248970272191	-0.00476089267735	0.690878771987	0.3359375	0.96240234375	0.0986328125	26.0	23.25	-13.8125
18	12	13	19	53	27	-0.251779172688	-0.00897249415396	0.691492423607	0.35400390625	1.03662109375	0.16943359375	23.0625	23.875	-2.375
18	12	13	19	53	27	-0.255562773961	-0.0119022548178	0.691673597927	0.40283203125	1.001953125	0.10498046875	15.375	24.75	2.25
18	12	13	19	53	27	-0.26032804855	-0.013672563394	0.689670954412	0.3759765625	0.9833984375	0.1123046875	-2.4375	27.1875	9.8125
18	12	13	19	53	27	-0.26672814944	-0.0131227808077	0.686412990528	0.49169921875	1.02099609375	0.10107421875	-14.625	27.5625	18.0625
18	12	13	19	53	27	-0.274795072319	-0.00793499764582	0.684485104617	0.671875	1.03125	0.05517578125	-12.625	15.9375	35.9375
18	12	13	19	53	27	-0.281982553183	0.00256347775621	0.680603344274	0.71923828125	1.1181640625	0.13671875	-32.5625	-6.375	50.6875
18	12	13	19	53	27	-0.289261602098	0.0172739044933	0.67471993028	0.74169921875	1.21630859375	0.21044921875	-50.6875	-20.5625	69.5625
18	12	13	19	53	27	-0.298538783228	0.033510078101	0.667882103062	0.74853515625	1.142578125	0.22265625	-55.3125	-17.375	84.9375
18	12	13	19	53	28	-0.308546878405	0.0496238599689	0.660613820964	0.71826171875	1.083984375	0.20458984375	-57.0	-12.75	91.3125
18	12	13	19	53	28	-0.319536490642	0.0660436452483	0.652379371917	0.751953125	1.041015625	0.16650390625	-63.9375	-6.0625	96.75
18	12	13	19	53	28	-0.330816549274	0.0817275570992	0.643017038118	0.798828125	1.052734375	0.12353515625	-69.1875	-0.6875	101.5
18	12	13	19	53	28	-0.341256351508	0.0982080968658	0.631424960893	0.8046875	0.955078125	0.09619140625	-91.875	3.875	93.0
18	12	13	19	53	28	-0.348336676302	0.112856932624	0.617386627089	0.7734375	0.85302734375	0.0751953125	-107.0	1.0625	73.6875
18	12	13	19	53	28	-0.352552277115	0.126347509285	0.605552482905	0.66748046875	0.640625	0.0791015625	-99.1875	-4.125	51.5625
18	12	13	19	53	28	-0.353717483159	0.134772770115	0.597016514716	0.55029296875	0.669921875	0.0517578125	-77.375	-1.625	29.3125
18	12	13	19	53	28	-0.352977954599	0.140324454025	0.590717732079	0.4345703125	0.73974609375	0.03076171875	-64.875	-1.75	21.0625
18	12	13	19	53	28	-0.350529672554	0.14514357676	0.583748178358	0.27783203125	0.736328125	0.0400390625	-72.5625	-5.25	17.25
18	12	13	19	53	28	-0.347363053892	0.151372407951	0.57545929926	0.22021484375	0.59765625	0.080078125	-80.6875	-12.6875	15.375
18	12	13	19	53	28	-0.345098082967	0.157351053748	0.568246047475	0.2177734375	0.4697265625	0.15087890625	-64.375	-15.125	14.9375
18	12	13	19	53	28	-0.343458122124	0.161200088952	0.564352905129	0.24267578125	0.47607421875	0.18603515625	-35.75	-13.75	12.0625
18	12	13	19	53	28	-0.340585073105	0.162968126378	0.563613362913	0.20947265625	0.4326171875	0.181640625	-14.625	-17.375	-0.375
18	12	13	19	53	28	-0.334368036255	0.162300950786	0.565031929831	0.14013671875	0.30078125	0.23974609375	0.5625	-25.625	-27.6875
18	12	13	19	53	28	-0.323799371746	0.156803126487	0.570509467994	-0.2412109375	0.3310546875	0.38232421875	30.6875	-40.8125	-44.8125
18	12	13	19	53	28	-0.312869902197	0.153261085528	0.585334054246	-0.39306640625	0.68310546875	0.3154296875	83.0625	-74.5625	-10.9375
18	12	13	19	53	28	-0.312642431978	0.161265385647	0.593300359006	0.21533203125	0.73876953125	0.24853515625	46.375	-63.125	53.0625
18	12	13	19	53	28	-0.319530198461	0.171148553292	0.594747326418	0.7265625	0.4990234375	0.21923828125	19.9375	-23.5	56.5
18	12	13	19	53	28	-0.323007619847	0.17249046366	0.601458255097	1.02099609375	0.6640625	0.2294921875	55.9375	-7.8125	2.1875
18	12	13	19	53	28	-0.320266027957	0.170601019276	0.602871652017	0.861328125	0.98486328125	0.216796875	1.5625	-0.5625	-21.9375
18	12	13	19	53	28	-0.317571341687	0.172976587035	0.596384697217	0.5673828125	0.9296875	0.34326171875	-51.4375	-6.9375	3.75
18	12	13	19	53	28	-0.314639308478	0.179262007566	0.589422270024	0.57666015625	0.69384765625	0.40234375	-52.5625	-25.875	7.25
18	12	13	19	53	28	-0.313612280568	0.184212118092	0.587061680519	0.68701171875	0.55419921875	0.3681640625	-13.875	-23.1875	2.25
18	12	13	19	53	28	-0.31416572103	0.184275560869	0.591219967729	0.76318359375	0.66552734375	0.28173828125	33.3125	-9.6875	-5.0625
18	12	13	19	53	28	-0.315870050626	0.181526092862	0.596338240506	0.794921875	0.81103515625	0.17919921875	39.1875	7.75	-5.0
18	12	13	19	53	28	-0.316715266237	0.178957248142	0.598151784375	0.6806640625	0.86767578125	0.18994140625	13.375	10.8125	-1.6875
18	12	13	19	53	28	-0.317396096959	0.178962568516	0.596887775416	0.66796875	0.77880859375	0.20849609375	-8.4375	6.4375	2.5625
18	12	13	19	53	28	-0.317582513565	0.180002081972	0.595368025621	0.7177734375	0.73974609375	0.19384765625	-12.8125	2.9375	0.0625
18	12	13	19	53	28	-0.31757359194	0.18109568466	0.593520201427	0.66259765625	0.70068359375	0.193359375	-15.1875	2.125	0.5
18	12	13	19	53	28	-0.317645479157	0.181773296873	0.592136585953	0.59375	0.67041015625	0.19482421875	-11.125	1.75	1.4375
18	12	13	19	53	28	-0.317444866446	0.181763278653	0.591554632877	0.498046875	0.6162109375	0.2265625	-2.8125	-0.625	0.6875
18	12	13	19	53	28	-0.316714319383	0.180970891689	0.593145067598	0.5107421875	0.63330078125	0.21044921875	10.5	-4.1875	-4.0625
18	12	13	19	53	28	-0.316063246419	0.180066932587	0.595624789215	0.6083984375	0.6708984375	0.19140625	15.6875	-3.625	-7.5
18	12	13	19	53	28	-0.314823861845	0.178347290483	0.597725878063	0.5576171875	0.6796875	0.17431640625	11.5	-0.75	-10.8125
18	12	13	19	53	28	-0.313729788414	0.177129152914	0.598650148788	0.57373046875	0.6669921875	0.19140625	4.6875	-0.25	-10.0
18	12	13	19	53	28	-0.312701830714	0.175852815594	0.599828399458	0.61669921875	0.66650390625	0.19287109375	6.5625	0.5625	-12.625
18	12	13	19	53	28	-0.311900736845	0.174383640933	0.600912476367	0.63427734375	0.70263671875	0.189453125	6.0625	2.3125	-11.625
18	12	13	19	53	28	-0.31109720431	0.173645584905	0.600770999024	0.60009765625	0.6787109375	0.20751953125	-1.6875	1.3125	-8.9375
18	12	13	19	53	28	-0.310491089432	0.173281738333	0.600596092002	0.59228515625	0.70166015625	0.23095703125	-0.9375	-0.8125	-5.0625
18	12	13	19	53	28	-0.310494734285	0.173711030819	0.600969363824	0.64453125	0.73291015625	0.22021484375	2.6875	-2.875	-0.375
18	12	13	19	53	28	-0.30995468868	0.174692855258	0.600865292509	0.65234375	0.70654296875	0.22216796875	-2.0625	-5.3125	-2.625
18	12	13	19	53	28	-0.308795257622	0.174448872561	0.600804846961	0.61572265625	0.6943359375	0.259765625	0.0625	-4.125	-9.0
18	12	13	19	53	28	-0.308294177155	0.173648175412	0.60132928793	0.6005859375	0.69970703125	0.2685546875	6.75	-2.125	-6.3125
18	12	13	19	53	28	-0.308166063645	0.172973385694	0.602477166616	0.5908203125	0.7490234375	0.2626953125	10.9375	-3.0	-1.75
18	12	13	19	53	28	-0.308664785702	0.174016868506	0.603413104895	0.6767578125	0.72265625	0.224609375	7.9375	-5.0625	2.375
18	12	13	19	53	28	-0.307617806322	0.173828474684	0.603883050744	0.5771484375	0.6015625	0.21630859375	3.5	-4.625	-9.8125
18	12	13	19	53	28	-0.306353757806	0.171580078341	0.606054285964	0.50732421875	0.63671875	0.2099609375	16.0625	-1.3125	-13.375
18	12	13	19	53	28	-0.305978672473	0.169866077297	0.608112011539	0.5263671875	0.720703125	0.17919921875	14.6875	0.3125	-4.625
18	12	13	19	53	28	-0.305846370983	0.170531782184	0.608091677131	0.5751953125	0.73388671875	0.16015625	-3.125	-1.875	2.8125
18	12	13	19	53	28	-0.305735105222	0.17181958898	0.606465163802	0.57958984375	0.625	0.1923828125	-11.5625	-1.625	-0.25
18	12	13	19	53	29	-0.305482867191	0.171692968114	0.606937388881	0.56787109375	0.6728515625	0.1787109375	2.625	-0.9375	-2.9375
18	12	13	19	53	29	-0.30524376373	0.172489277405	0.606459115461	0.57080078125	0.64208984375	0.17919921875	-4.375	-2.6875	-1.0
18	12	13	19	53	29	-0.303485163546	0.171213975009	0.60666513284	0.47216796875	0.63134765625	0.2255859375	1.125	-3.4375	-11.4375
18	12	13	19	53	29	-0.303658770084	0.170537206757	0.60908761139	0.57470703125	0.78564453125	0.189453125	17.3125	-2.625	2.1875
18	12	13	19	53	29	-0.305360755731	0.173340904713	0.608463196859	0.708984375	0.73583984375	0.14306640625	-5.4375	-1.5	13.125
18	12	13	19	53	29	-0.305124370488	0.174321904804	0.60713584982	0.59765625	0.611328125	0.21240234375	-8.3125	-2.625	-3.4375
18	12	13	19	53	29	-0.304521638946	0.172800312659	0.608066660087	0.5283203125	0.65380859375	0.2236328125	9.25	0.1875	-8.5
18	12	13	19	53	29	-0.304937567663	0.172122486151	0.609508917271	0.62841796875	0.7890625	0.1953125	11.375	0.625	0.8125
18	12	13	19	53	29	-0.305063020296	0.173162022525	0.607928707913	0.5615234375	0.72900390625	0.22998046875	-10.0625	-1.9375	5.5625
18	12	13	19	53	29	-0.305923817937	0.174996725065	0.605804846972	0.607421875	0.6845703125	0.22509765625	-12.0625	-0.8125	7.6875
18	12	13	19	53	29	-0.306962062678	0.175851601228	0.605317712384	0.66015625	0.6611328125	0.2021484375	-0.75	1.3125	2.0
18	12	13	19	53	29	-0.306406336981	0.175054457064	0.605488219692	0.54248046875	0.7041015625	0.20556640625	1.3125	0.125	-3.8125
18	12	13	19	53	29	-0.306409103507	0.175117075291	0.605676799621	0.5859375	0.78515625	0.18603515625	-0.1875	-0.375	3.3125
18	12	13	19	53	29	-0.307328037108	0.17640079985	0.604828901629	0.6455078125	0.73486328125	0.17919921875	-5.875	0.6875	7.0
18	12	13	19	53	29	-0.307568898876	0.176948251209	0.603906863559	0.583984375	0.6962890625	0.20263671875	-5.75	0.5	2.25
18	12	13	19	53	29	-0.308111295058	0.177005300251	0.604137400651	0.599609375	0.73193359375	0.21337890625	3.5	0.125	3.5
18	12	13	19	53	29	-0.308607750223	0.177559324643	0.604275460285	0.65966796875	0.77001953125	0.20751953125	1.4375	-1.0625	3.6875
18	12	13	19	53	29	-0.308608724647	0.178109228346	0.603605948978	0.6376953125	0.732421875	0.22216796875	-4.25	-0.875	0.4375
18	12	13	19	53	29	-0.309092078458	0.178289486804	0.603535243244	0.6484375	0.7529296875	0.21826171875	0.9375	0.8125	1.8125
18	12	13	19	53	29	-0.309647586284	0.178598233287	0.602997931184	0.6318359375	0.755859375	0.21728515625	-2.3125	1.1875	3.625
18	12	13	19	53	29	-0.310313585436	0.179266522507	0.602254946399	0.66552734375	0.74658203125	0.2177734375	-3.875	1.1875	3.8125
18	12	13	19	53	29	-0.310615090818	0.179325434628	0.602308845784	0.66162109375	0.76611328125	0.203125	0.6875	1.375	0.6875
18	12	13	19	53	29	-0.310917851053	0.179324037376	0.602304152765	0.65673828125	0.77587890625	0.1826171875	-1.4375	2.5	1.1875
18	12	13	19	53	29	-0.311479208153	0.179330964835	0.601472882058	0.64111328125	0.74658203125	0.19873046875	-5.25	4.375	1.9375
18	12	13	19	53	29	-0.311722107663	0.179208166849	0.600371774226	0.5634765625	0.70654296875	0.212890625	-6.125	3.5	1.875
18	12	13	19	53	29	-0.311960732817	0.179021880132	0.600971507595	0.60107421875	0.7421875	0.19384765625	3.8125	0.0	2.0625
18	12	13	19	53	29	-0.312091003655	0.179087620717	0.601658717588	0.619140625	0.72265625	0.177734375	3.5625	-0.25	0.8125
18	12	13	19	53	29	-0.311467508896	0.178225578283	0.601694435175	0.5185546875	0.6943359375	0.18701171875	-1.1875	1.3125	-3.125
18	12	13	19	53	29	-0.311159915248	0.177491768054	0.602727376044	0.55615234375	0.74169921875	0.1865234375	6.0	-0.5	-0.5
18	12	13	19	53	29	-0.311721023528	0.178108859733	0.603665737751	0.6796875	0.77099609375	0.1865234375	5.9375	-1.75	3.9375
18	12	13	19	53	29	-0.311353015581	0.178779255565	0.60366228663	0.64599609375	0.736328125	0.197265625	-2.1875	-3.4375	-0.375
18	12	13	19	53	29	-0.310748384983	0.179026716393	0.604100720129	0.62744140625	0.7197265625	0.21875	2.6875	-4.75	-3.0
18	12	13	19	53	29	-0.310557291468	0.178961080697	0.605244910024	0.6337890625	0.75341796875	0.22265625	8.5	-4.25	-0.625
18	12	13	19	53	29	-0.310796253585	0.179568456018	0.605601026722	0.6591796875	0.759765625	0.22314453125	3.4375	-3.25	2.6875
18	12	13	19	53	29	-0.310740396712	0.180242858277	0.605916306847	0.6748046875	0.78271484375	0.228515625	2.4375	-4.5	1.9375
18	12	13	19	53	29	-0.31080062049	0.181280016272	0.605792646969	0.7001953125	0.73974609375	0.21875	-0.5625	-4.0	0.5
18	12	13	19	53	29	-0.310558807141	0.180976191662	0.605858238932	0.638671875	0.74609375	0.22119140625	1.125	-0.75	-2.9375
18	12	13	19	53	29	-0.310627671918	0.180736595903	0.605873505887	0.603515625	0.72509765625	0.2216796875	2.0	0.0	-0.1875
18	12	13	19	53	29	-0.310988622663	0.180916639367	0.60586321267	0.63671875	0.7236328125	0.21923828125	1.8125	-0.375	1.4375
18	12	13	19	53	29	-0.311054055149	0.180736078748	0.605871772255	0.63427734375	0.712890625	0.19384765625	0.625	1.0625	-2.125
18	12	13	19	53	29	-0.31086880918	0.179880302504	0.605440353084	0.57861328125	0.69287109375	0.19580078125	-2.3125	3.75	-4.3125
18	12	13	19	53	29	-0.310921607471	0.179631388062	0.604936013279	0.63720703125	0.73046875	0.18701171875	-4.0	3.5625	-2.0625
18	12	13	19	53	29	-0.311101789738	0.179751769821	0.603953739348	0.63427734375	0.72412109375	0.19384765625	-6.75	3.1875	-0.3125
18	12	13	19	53	29	-0.310873590346	0.180127226607	0.602763931801	0.61083984375	0.697265625	0.19287109375	-9.4375	1.0	-1.25
18	12	13	19	53	29	-0.311235160455	0.180612833847	0.602083471804	0.62109375	0.65283203125	0.19677734375	-3.5	1.1875	-0.5
18	12	13	19	53	29	-0.311046082173	0.179510700092	0.60274334016	0.56396484375	0.708984375	0.1904296875	4.5625	2.3125	-2.875
18	12	13	19	53	29	-0.311467664383	0.179202246253	0.603281676417	0.58837890625	0.75	0.16845703125	2.9375	2.3125	3.25
18	12	13	19	53	29	-0.312149529183	0.180367981763	0.6030577529	0.65185546875	0.7314453125	0.166015625	-2.8125	-0.5	6.0625
18	12	13	19	53	29	-0.311475921158	0.180732941906	0.602870404326	0.56787109375	0.693359375	0.18408203125	-3.8125	-2.8125	-1.0
18	12	13	19	53	29	-0.31117233082	0.180672832332	0.603544920979	0.57177734375	0.724609375	0.185546875	3.25	-2.4375	0.9375
18	12	13	19	53	30	-0.31122917784	0.181097660454	0.603903017367	0.59814453125	0.73779296875	0.19189453125	1.5	-2.6875	3.6875
18	12	13	19	53	30	-0.311415355559	0.181770860223	0.604458303823	0.62451171875	0.7392578125	0.20166015625	3.625	-3.9375	4.0625
18	12	13	19	53	30	-0.311470604743	0.1821947394	0.605606768618	0.63671875	0.7333984375	0.18994140625	7.625	-4.25	1.9375
18	12	13	19	53	30	-0.311356184101	0.182077141183	0.606537228272	0.62548828125	0.724609375	0.2001953125	6.6875	-2.4375	-1.0625
18	12	13	19	53	30	-0.31135966651	0.181712943972	0.60684920691	0.59912109375	0.72216796875	0.2216796875	4.25	-0.875	-0.5625
18	12	13	19	53	30	-0.312012042461	0.181701848671	0.60699525866	0.67041015625	0.7392578125	0.21533203125	3.6875	1.0625	0.9375
18	12	13	19	53	30	-0.312092813516	0.181530222452	0.606240137656	0.6357421875	0.6767578125	0.23974609375	-1.9375	1.0625	-3.5
18	12	13	19	53	30	-0.312077047335	0.180605512041	0.606209511858	0.59033203125	0.697265625	0.2197265625	2.1875	2.5	-3.625
18	12	13	19	53	30	-0.31293759609	0.180486926397	0.605427738564	0.64306640625	0.71240234375	0.18994140625	-3.0625	5.875	1.25
18	12	13	19	53	30	-0.313425992159	0.180609057604	0.604207185273	0.6318359375	0.70849609375	0.19873046875	-7.3125	4.25	0.75
18	12	13	19	53	30	-0.31384970559	0.180912199021	0.603834137962	0.64892578125	0.7412109375	0.17578125	-3.25	2.6875	2.25
18	12	13	19	53	30	-0.313605244125	0.180789944161	0.603711457696	0.587890625	0.73291015625	0.1689453125	-3.4375	0.75	0.1875
18	12	13	19	53	30	-0.313542405915	0.181094085721	0.603585916312	0.58203125	0.7333984375	0.166015625	-3.25	0.0625	3.125
18	12	13	19	53	30	-0.31385767597	0.181649250036	0.60330013016	0.56689453125	0.72900390625	0.17822265625	-2.9375	-0.375	6.5625
18	12	13	19	53	30	-0.314461488167	0.18262204437	0.603714786385	0.65478515625	0.748046875	0.17041015625	1.9375	-2.0	6.1875
18	12	13	19	53	30	-0.314158375287	0.182989471364	0.604329138083	0.6337890625	0.73828125	0.18359375	2.1875	-3.375	0.375
18	12	13	19	53	30	-0.313735786295	0.182809081703	0.604948517115	0.60302734375	0.744140625	0.193359375	2.875	-2.3125	-0.375
18	12	13	19	53	30	-0.313490501018	0.182808421057	0.605007368786	0.568359375	0.7021484375	0.20849609375	0.5	-2.25	0.4375
18	12	13	19	53	30	-0.31330641508	0.182807853724	0.605676905677	0.61962890625	0.748046875	0.22802734375	5.6875	-3.875	0.6875
18	12	13	19	53	30	-0.313973800423	0.183782098187	0.605974317769	0.6943359375	0.73681640625	0.2158203125	3.9375	-3.25	4.25
18	12	13	19	53	30	-0.313975501781	0.184088280204	0.605733452502	0.67578125	0.7294921875	0.232421875	-0.25	-1.625	-1.375
18	12	13	19	53	30	-0.313738334461	0.183481990932	0.605807970725	0.607421875	0.728515625	0.23779296875	2.75	-0.625	-2.5
18	12	13	19	53	30	-0.31421355711	0.183535385825	0.605294453353	0.65478515625	0.73291015625	0.23681640625	-0.25	1.3125	1.125
18	12	13	19	53	30	-0.314953499029	0.184028061932	0.604454360636	0.69775390625	0.7431640625	0.22998046875	-3.0	1.625	2.375
18	12	13	19	53	30	-0.315022240392	0.183849445468	0.603736675008	0.6220703125	0.703125	0.2353515625	-2.375	1.25	-1.625
18	12	13	19	53	30	-0.315507423155	0.183542430146	0.604157955965	0.666015625	0.7607421875	0.1943359375	3.5	2.1875	1.125
18	12	13	19	53	30	-0.315937634	0.183849334159	0.603186958884	0.634765625	0.70458984375	0.20068359375	-5.6875	2.6875	1.5
18	12	13	19	53	30	-0.315569383889	0.183298812344	0.603122066191	0.603515625	0.732421875	0.203125	-0.9375	0.875	-2.5
18	12	13	19	53	30	-0.315737862644	0.183534458336	0.603216179492	0.65380859375	0.736328125	0.1904296875	0.25	0.0	1.125
18	12	13	19	53	30	-0.315630247827	0.183420787994	0.602694462781	0.61962890625	0.74609375	0.1875	-4.875	2.1875	-0.0625
18	12	13	19	53	30	-0.315988719661	0.183599395159	0.601825145037	0.62255859375	0.73388671875	0.19482421875	-6.1875	2.9375	2.875
18	12	13	19	53	30	-0.316715938773	0.184023618308	0.601326927885	0.6494140625	0.71435546875	0.19921875	-2.1875	2.1875	3.4375
18	12	13	19	53	30	-0.316729187437	0.183604046215	0.601413120797	0.63623046875	0.71484375	0.185546875	0.1875	2.5	-2.3125
18	12	13	19	53	30	-0.316603736717	0.18305274849	0.60122359874	0.59716796875	0.70947265625	0.185546875	-1.75	3.3125	-1.9375
18	12	13	19	53	30	-0.317032479835	0.182870487021	0.600616018787	0.6357421875	0.71142578125	0.18408203125	-4.1875	4.625	0.0625
18	12	13	19	53	30	-0.317263215909	0.182313433228	0.599614050229	0.56298828125	0.66748046875	0.21337890625	-4.9375	4.8125	-0.5625
18	12	13	19	53	30	-0.317338447671	0.181894320843	0.599518798428	0.57763671875	0.67822265625	0.20263671875	0.25	1.6875	-1.0625
18	12	13	19	53	30	-0.317948706326	0.18177217267	0.599884792814	0.69287109375	0.7119140625	0.1708984375	2.3125	4.125	-1.0
18	12	13	19	53	30	-0.317763962286	0.181160860558	0.598721995018	0.57958984375	0.67236328125	0.19970703125	-7.8125	5.0625	-3.8125
18	12	13	19	53	30	-0.31715022161	0.180548567268	0.597494903646	0.50048828125	0.6474609375	0.22314453125	-8.0	1.875	-3.125
18	12	13	19	53	30	-0.317936805571	0.18078879211	0.597970221575	0.615234375	0.6865234375	0.19140625	4.1875	0.9375	3.8125
18	12	13	19	53	30	-0.318193638547	0.18073496331	0.598543414461	0.62841796875	0.69921875	0.14697265625	1.8125	2.625	0.1875
18	12	13	19	53	30	-0.318315798539	0.180612933438	0.597933185521	0.60205078125	0.66455078125	0.16357421875	-5.6875	4.375	-1.5
18	12	13	19	53	30	-0.318242489121	0.180483897263	0.597971167226	0.51806640625	0.6826171875	0.19091796875	-0.25	0.9375	-0.75
18	12	13	19	53	30	-0.317759179542	0.18054776279	0.599140243254	0.5556640625	0.71337890625	0.17138671875	4.625	-4.0625	1.5
18	12	13	19	53	30	-0.318318801997	0.181469184724	0.599769999698	0.61669921875	0.71923828125	0.154296875	2.375	-1.5625	7.0625
18	12	13	19	53	30	-0.318608181988	0.181765357464	0.599496084959	0.61328125	0.71142578125	0.177734375	-3.0	1.5	2.625
18	12	13	19	53	30	-0.318724374258	0.181762004317	0.599668130427	0.59130859375	0.7158203125	0.2138671875	1.6875	-0.8125	2.125
18	12	13	19	53	30	-0.318313984646	0.182015781824	0.600920647908	0.57666015625	0.75048828125	0.2255859375	8.125	-7.375	3.625
18	12	13	19	53	31	-0.318670796986	0.183475275951	0.602184654868	0.6630859375	0.7646484375	0.1904296875	6.9375	-7.6875	8.125
18	12	13	19	53	31	-0.318315860801	0.183970087144	0.602694306722	0.65087890625	0.69384765625	0.2060546875	2.625	-4.375	-1.6875
18	12	13	19	53	31	-0.318126131668	0.18280655494	0.60402459689	0.58544921875	0.70458984375	0.22802734375	11.75	-1.25	-3.625
18	12	13	19	53	31	-0.318487684962	0.182254547201	0.605297503213	0.64794921875	0.76025390625	0.2001953125	9.875	-0.125	1.125
18	12	13	19	53	31	-0.318363427575	0.182436404337	0.605598529217	0.6259765625	0.72802734375	0.2021484375	2.125	-2.125	0.5625
18	12	13	19	53	31	-0.318117956519	0.182679785852	0.606084287843	0.6337890625	0.67724609375	0.18896484375	2.8125	-2.6875	-2.25
18	12	13	19	53	31	-0.318425825929	0.182132003943	0.60657769946	0.6279296875	0.689453125	0.18359375	4.625	2.125	-2.0625
18	12	13	19	53	31	-0.317940698903	0.181645521201	0.606827880302	0.52294921875	0.70654296875	0.1982421875	1.375	-1.625	0.625
18	12	13	19	53	31	-0.317702561473	0.182503488723	0.607388701098	0.625	0.7255859375	0.16845703125	1.375	-5.0	2.75
18	12	13	19	53	31	-0.317705534234	0.183481812854	0.608004769741	0.66162109375	0.67724609375	0.16357421875	2.6875	-4.375	0.3125
18	12	13	19	53	31	-0.317275782195	0.183175187066	0.60861039328	0.59716796875	0.69677734375	0.1728515625	2.875	-1.4375	-2.375
18	12	13	19	53	31	-0.317519119334	0.183174716863	0.609402323611	0.5927734375	0.72705078125	0.18505859375	6.1875	-1.9375	3.4375
18	12	13	19	53	31	-0.318176780396	0.183960256304	0.610474612991	0.6630859375	0.736328125	0.16015625	7.375	-3.0	5.9375
18	12	13	19	53	31	-0.318125776111	0.184515391631	0.610799048646	0.62451171875	0.67529296875	0.17724609375	2.125	-3.3125	0.4375
18	12	13	19	53	31	-0.317934427239	0.184022326382	0.612675327438	0.640625	0.7392578125	0.1767578125	12.875	-3.5	-1.875
18	12	13	19	53	31	-0.317941783305	0.183599325049	0.614032317152	0.625	0.77294921875	0.17333984375	9.375	-2.0	2.0
18	12	13	19	53	31	-0.31807401285	0.184154537856	0.613563611048	0.5810546875	0.70556640625	0.18798828125	-2.625	-1.75	4.1875
18	12	13	19	53	31	-0.318549346724	0.184757400371	0.614210016494	0.69140625	0.74755859375	0.177734375	5.3125	-2.8125	3.3125
18	12	13	19	53	31	-0.31916008301	0.185123834724	0.61482109699	0.7255859375	0.72412109375	0.15673828125	4.625	0.625	0.125
18	12	13	19	53	31	-0.318984035896	0.183968213584	0.614895747726	0.576171875	0.7412109375	0.18701171875	1.625	2.8125	-1.75
18	12	13	19	53	31	-0.319900435613	0.18396869165	0.614348003138	0.58935546875	0.68212890625	0.18310546875	-0.375	3.3125	4.5
18	12	13	19	53	31	-0.320437277088	0.183351158166	0.615666821712	0.64111328125	0.78515625	0.185546875	11.3125	-0.125	3.75
18	12	13	19	53	31	-0.321608632403	0.185005838833	0.615567101496	0.72705078125	0.76611328125	0.1298828125	-1.5625	-0.3125	9.5625
18	12	13	19	53	31	-0.321422286706	0.184881903994	0.614950539036	0.60498046875	0.75634765625	0.173828125	-5.3125	1.0625	1.5625
18	12	13	19	53	31	-0.321724810396	0.185673851873	0.615250633426	0.6689453125	0.80126953125	0.162109375	1.0625	-2.5	7.0625
18	12	13	19	53	31	-0.321726210348	0.187017474579	0.615253310626	0.677734375	0.7919921875	0.166015625	-2.375	-5.1875	7.125
18	12	13	19	53	31	-0.322033439889	0.188422522543	0.615623441001	0.728515625	0.8046875	0.14990234375	0.3125	-4.1875	6.875
18	12	13	19	53	31	-0.322466770029	0.188120875493	0.615818141743	0.6376953125	0.73291015625	0.18505859375	3.3125	1.0	2.0625
18	12	13	19	53	31	-0.323081711203	0.188001449179	0.616620337535	0.69970703125	0.76904296875	0.18603515625	8.0625	-0.0625	2.3125
18	12	13	19	53	31	-0.322761729036	0.187382471283	0.617080385885	0.6259765625	0.724609375	0.21044921875	5.0625	-2.0	-2.6875
18	12	13	19	53	31	-0.323060585199	0.187256730662	0.617251407164	0.70654296875	0.74755859375	0.19970703125	3.6875	0.0	-0.8125
18	12	13	19	53	31	-0.323075143186	0.187204130767	0.616607802091	0.677734375	0.703125	0.2060546875	-2.3125	0.6875	-2.9375
18	12	13	19	53	31	-0.3230762289	0.186960606295	0.616060528678	0.6728515625	0.7275390625	0.197265625	-2.125	1.1875	-2.375
18	12	13	19	53	31	-0.323365252236	0.187439541264	0.615114196306	0.677734375	0.69921875	0.197265625	-4.875	0.75	0.1875
18	12	13	19	53	31	-0.323254944038	0.187629474693	0.614465166472	0.64013671875	0.703125	0.19482421875	-3.5625	-0.75	-0.6875
18	12	13	19	53	31	-0.32300468066	0.187442814495	0.614392501044	0.6298828125	0.71484375	0.1806640625	-0.6875	-0.1875	-1.5625
18	12	13	19	53	31	-0.322583788012	0.18653094724	0.613977355461	0.57177734375	0.7197265625	0.205078125	-1.6875	1.1875	-2.1875
18	12	13	19	53	31	-0.322889372453	0.18708051542	0.613856033793	0.65966796875	0.77392578125	0.203125	0.5	-2.125	5.4375
18	12	13	19	53	31	-0.323129655857	0.188237978592	0.613177280458	0.67822265625	0.6962890625	0.19384765625	-4.0	-2.9375	2.75
18	12	13	19	53	31	-0.32246221976	0.186653315924	0.613795207629	0.568359375	0.71435546875	0.2158203125	6.1875	0.25	-5.9375
18	12	13	19	53	31	-0.323187992165	0.185917020611	0.614759104265	0.63818359375	0.74755859375	0.18994140625	9.9375	1.6875	2.6875
18	12	13	19	53	31	-0.323509118002	0.18555994693	0.614728363661	0.64013671875	0.75	0.19921875	2.1875	1.3125	1.5
18	12	13	19	53	31	-0.323121921573	0.185242733656	0.614871597644	0.607421875	0.74853515625	0.20263671875	1.3125	-2.1875	-0.0625
18	12	13	19	53	31	-0.323133329385	0.185920687818	0.614771230368	0.6796875	0.7490234375	0.19921875	-0.0625	-3.5625	2.125
18	12	13	19	53	31	-0.32283287396	0.185557182235	0.614475050512	0.6220703125	0.69384765625	0.19970703125	-1.0	-0.125	-3.375
18	12	13	19	53	31	-0.32227809566	0.18384500457	0.614464694888	0.52294921875	0.69775390625	0.21728515625	2.5	2.125	-4.5625
18	12	13	19	53	31	-0.322763120869	0.183843139194	0.614702607843	0.6611328125	0.7294921875	0.201171875	4.5	-0.0625	1.875
18	12	13	19	53	31	-0.32282541518	0.184026966679	0.614888113541	0.6953125	0.71533203125	0.1826171875	1.75	-1.0625	-2.1875
18	12	13	19	53	31	-0.322342245355	0.1831143223	0.614226475101	0.57275390625	0.66015625	0.19482421875	-3.1875	2.4375	-5.875
18	12	13	19	53	31	-0.322212688611	0.1824386676	0.614029105404	0.5576171875	0.64404296875	0.19482421875	0.6875	1.125	-3.0625
18	12	13	19	53	32	-0.322035803436	0.182014929084	0.614163050451	0.5888671875	0.685546875	0.17578125	1.25	0.375	-1.9375
18	12	13	19	53	32	-0.322031601877	0.182317739728	0.614155037544	0.6416015625	0.68359375	0.15087890625	-1.1875	0.0	-1.0625
18	12	13	19	53	32	-0.321305181101	0.181771814081	0.613434093858	0.56005859375	0.62548828125	0.169921875	-5.5625	1.4375	-6.375
18	12	13	19	53	32	-0.320631272432	0.180671724043	0.613978673024	0.52880859375	0.70166015625	0.1796875	3.5625	-0.5	-3.1875
18	12	13	19	53	32	-0.320807325089	0.182193657799	0.614148269605	0.63671875	0.70166015625	0.1611328125	-0.3125	-5.5	5.9375
18	12	13	19	53	32	-0.320392704833	0.183543696596	0.614416644475	0.67919921875	0.6943359375	0.16943359375	-0.1875	-7.125	-0.4375
18	12	13	19	53	32	-0.319773458281	0.182623055388	0.615864514995	0.6220703125	0.712890625	0.169921875	9.3125	-2.25	-5.625
18	12	13	19	53	32	-0.319470706062	0.182014070592	0.616540619399	0.56494140625	0.7392578125	0.17529296875	4.75	-1.3125	0.6875
18	12	13	19	53	32	-0.319587725164	0.182682593854	0.616225682441	0.609375	0.69384765625	0.20703125	-0.25	-3.625	2.875
18	12	13	19	53	32	-0.319839021013	0.182869791403	0.61739917892	0.71826171875	0.7587890625	0.20703125	10.5625	-4.0625	-0.1875
18	12	13	19	53	32	-0.320379663278	0.183902443409	0.617931741479	0.7685546875	0.78466796875	0.158203125	3.1875	-2.5	2.75
18	12	13	19	53	32	-0.319829748953	0.183841069436	0.616587809909	0.56787109375	0.7099609375	0.197265625	-9.125	0.375	-0.6875
18	12	13	19	53	32	-0.320321564365	0.184087240497	0.61659459665	0.60888671875	0.70703125	0.18896484375	2.125	-1.125	4.0625
18	12	13	19	53	32	-0.320437068184	0.184266573114	0.61725334677	0.66845703125	0.73095703125	0.1806640625	5.5625	-2.3125	0.4375
18	12	13	19	53	32	-0.319961108299	0.183785367625	0.61678882094	0.55615234375	0.68603515625	0.17333984375	-3.375	0.3125	-2.3125
18	12	13	19	53	32	-0.319464440951	0.182742937754	0.616894746788	0.53515625	0.728515625	0.193359375	1.5625	0.4375	-1.125
18	12	13	19	53	32	-0.320444435602	0.183965624553	0.616840279276	0.701171875	0.7421875	0.18115234375	1.5625	-1.8125	6.9375
18	12	13	19	53	32	-0.320202834956	0.184699538425	0.616051699049	0.64599609375	0.662109375	0.1865234375	-5.375	-2.4375	-1.75
18	12	13	19	53	32	-0.319527308146	0.183842646062	0.617081391663	0.6015625	0.74951171875	0.1826171875	6.9375	-2.5	-3.3125
18	12	13	19	53	32	-0.319647607862	0.18414680789	0.617139003837	0.5986328125	0.7119140625	0.185546875	1.4375	-2.5625	3.3125
18	12	13	19	53	32	-0.319592392474	0.184821574563	0.617638544584	0.6416015625	0.7861328125	0.1845703125	3.0	-5.1875	5.3125
18	12	13	19	53	32	-0.319648075263	0.186954755496	0.617872344069	0.68798828125	0.75439453125	0.17138671875	0.1875	-9.1875	8.0625
18	12	13	19	53	32	-0.318554780352	0.187202052374	0.618554156752	0.6171875	0.75927734375	0.20263671875	3.1875	-8.625	-1.0625
18	12	13	19	53	32	-0.318247248756	0.187383784749	0.619892416257	0.62744140625	0.79931640625	0.19189453125	9.625	-7.25	3.875
18	12	13	19	53	32	-0.318246302028	0.188298780544	0.61989057219	0.6533203125	0.771484375	0.2041015625	0.875	-6.0625	5.375
18	12	13	19	53	32	-0.318189939873	0.188850887007	0.620693170643	0.705078125	0.76171875	0.22802734375	8.5625	-7.3125	1.1875
18	12	13	19	53	32	-0.31788262634	0.188910662159	0.621787694802	0.6904296875	0.7978515625	0.20947265625	8.9375	-6.5625	0.125
18	12	13	19	53	32	-0.318006858526	0.189339208281	0.621791913205	0.68310546875	0.755859375	0.20703125	2.6875	-3.375	1.875
18	12	13	19	53	32	-0.317949919337	0.189219571884	0.621983044355	0.63671875	0.74560546875	0.21826171875	4.4375	-3.5625	0.375
18	12	13	19	53	32	-0.318244957536	0.18982390064	0.622146308432	0.6943359375	0.7548828125	0.2060546875	3.9375	-4.1875	3.0
18	12	13	19	53	32	-0.317825740378	0.189767664074	0.622223083813	0.6552734375	0.72509765625	0.1982421875	1.875	-3.375	-2.75
18	12	13	19	53	32	-0.317391429768	0.188725827085	0.622575496852	0.59912109375	0.7705078125	0.181640625	3.125	0.1875	-1.6875
18	12	13	19	53	32	-0.317830730927	0.189709604709	0.622293893182	0.68310546875	0.75634765625	0.17578125	-0.4375	-2.8125	5.4375
18	12	13	19	53	32	-0.317694678113	0.190006442453	0.62190030265	0.65966796875	0.68896484375	0.18408203125	-1.5625	-1.875	-2.0625
18	12	13	19	53	32	-0.316905460517	0.18829995102	0.622946288529	0.60107421875	0.7412109375	0.16357421875	7.375	0.6875	-7.25
18	12	13	19	53	32	-0.316785205866	0.187507543819	0.623377130541	0.6298828125	0.73583984375	0.14697265625	3.25	1.75	-2.75
18	12	13	19	53	32	-0.315930179063	0.186713759226	0.62276576835	0.53369140625	0.67724609375	0.181640625	-4.1875	-0.125	-4.4375
18	12	13	19	53	32	-0.315625272524	0.186652887909	0.623681886414	0.63916015625	0.73583984375	0.1669921875	6.6875	-4.0625	-0.9375
18	12	13	19	53	32	-0.315552711753	0.187256425466	0.623903253295	0.69580078125	0.7158203125	0.15869140625	1.5625	-3.5	-1.3125
18	12	13	19	53	32	-0.315870339532	0.186836542861	0.623500583251	0.67138671875	0.74609375	0.15380859375	-1.6875	4.1875	-1.375
18	12	13	19	53	32	-0.31653692912	0.185735031877	0.621537899968	0.6083984375	0.75830078125	0.212890625	-8.75	9.0625	0.625
18	12	13	19	53	32	-0.317766621301	0.187632461368	0.61874764505	0.68505859375	0.75	0.20947265625	-15.9375	1.9375	10.6875
18	12	13	19	53	32	-0.318008649913	0.189584427376	0.616729251194	0.71240234375	0.68603515625	0.20703125	-12.875	-3.25	2.75
18	12	13	19	53	32	-0.318305014068	0.188114295946	0.616773186416	0.591796875	0.65576171875	0.16064453125	3.125	6.5	-5.25
18	12	13	19	53	32	-0.318728721169	0.185121449886	0.617742892944	0.48291015625	0.673828125	0.15771484375	10.6875	9.8125	-3.8125
18	12	13	19	53	32	-0.319225889723	0.183844814502	0.618736681477	0.576171875	0.74609375	0.15771484375	9.125	3.625	2.0625
18	12	13	19	53	32	-0.319765855513	0.184449783424	0.618779584499	0.71337890625	0.75146484375	0.13037109375	-0.875	1.5	2.3125
18	12	13	19	53	32	-0.319712543251	0.184820462193	0.617512752973	0.677734375	0.69580078125	0.126953125	-11.1875	3.9375	-3.0
18	12	13	19	53	32	-0.318731458116	0.183352987396	0.616405399371	0.49072265625	0.62744140625	0.18603515625	-7.25	3.625	-8.375
18	12	13	19	53	32	-0.318239758755	0.182618595742	0.617436401912	0.55615234375	0.7119140625	0.17138671875	7.125	-2.375	-1.125
18	12	13	19	53	33	-0.318499133578	0.183359792501	0.618076317864	0.66748046875	0.68701171875	0.15576171875	4.5625	-3.25	1.0
18	12	13	19	53	33	-0.317942874825	0.181951950442	0.618795328272	0.544921875	0.64404296875	0.17333984375	6.3125	0.8125	-7.3125
18	12	13	19	53	33	-0.317333951472	0.180487881228	0.620079940951	0.5419921875	0.7041015625	0.17529296875	9.875	-0.875	-4.75
18	12	13	19	53	33	-0.31684529854	0.180487680174	0.620262362506	0.568359375	0.67919921875	0.18359375	1.5625	-3.5625	-1.1875
18	12	13	19	53	33	-0.316665320294	0.180855694686	0.620512653451	0.65966796875	0.71630859375	0.1865234375	2.5	-3.75	-1.4375
18	12	13	19	53	33	-0.316848626221	0.182076565598	0.619719534198	0.6962890625	0.681640625	0.17578125	-5.0625	-2.3125	-0.3125
18	12	13	19	53	33	-0.31641728031	0.180792435239	0.618612873446	0.53564453125	0.66015625	0.2314453125	-3.625	2.9375	-6.375
