18	12	13	19	55	57	0.720558475689	0.642917613251	0.0751382874691	-0.26318359375	0.78173828125	0.20068359375	1.5625	-4.75	10.875
18	12	13	19	55	57	0.721837160063	0.642121336366	0.0724522838656	-0.30029296875	0.74853515625	0.15771484375	-3.5	-8.6875	11.375
18	12	13	19	55	57	0.722732980615	0.641859642272	0.0693374432885	-0.32763671875	0.78271484375	0.10546875	-2.75	-10.5625	14.6875
18	12	13	19	55	57	0.722973845983	0.642345019428	0.0661632460148	-0.38720703125	0.8828125	0.0576171875	-1.5625	-11.25	15.3125
18	12	13	19	55	57	0.72383005304	0.642041346481	0.063538838453	-0.4306640625	0.97900390625	0.0576171875	-9.0	-11.5	14.25
18	12	13	19	55	57	0.724163014795	0.642432209265	0.0610997284061	-0.47412109375	1.111328125	0.07568359375	-5.0625	-7.9375	14.125
18	12	13	19	55	57	0.72547858985	0.64149251046	0.060242921772	-0.5224609375	1.10546875	0.1552734375	-11.4375	-2.8125	11.75
18	12	13	19	55	57	0.727077123957	0.639793688157	0.0609763303252	-0.546875	1.04638671875	0.25048828125	-10.75	2.1875	6.375
18	12	13	19	55	57	0.726404610111	0.640464126871	0.0617086850535	-0.54443359375	1.02294921875	0.3359375	13.125	6.9375	2.0
18	12	13	19	55	57	0.723525891527	0.64375127197	0.0608533249411	-0.4951171875	1.091796875	0.3525390625	35.1875	5.8125	0.8125
18	12	13	19	55	57	0.721833170495	0.645657980508	0.0600001696767	-0.4677734375	1.09130859375	0.31787109375	23.4375	2.5	-0.375
18	12	13	19	55	57	0.721520403699	0.645590162416	0.05981642802	-0.4345703125	1.01513671875	0.2578125	6.3125	-2.6875	-5.8125
18	12	13	19	55	57	0.721584689676	0.644860619728	0.0599387722265	-0.41943359375	0.9609375	0.220703125	0.25	-5.3125	-8.125
18	12	13	19	55	57	0.721652347747	0.644317193844	0.0592068660504	-0.37109375	0.93994140625	0.1513671875	-2.125	-9.0625	-6.5625
18	12	13	19	55	57	0.722398974167	0.642925931128	0.0588417922346	-0.35595703125	0.89111328125	0.11962890625	-10.125	-9.9375	-7.1875
18	12	13	19	55	57	0.723142952616	0.641600161875	0.0588377621811	-0.35009765625	0.78564453125	0.1025390625	-10.6875	-8.25	-4.75
18	12	13	19	55	57	0.722752145297	0.641937700539	0.0583524238581	-0.3134765625	0.7412109375	0.1083984375	1.5625	-3.4375	-1.625
18	12	13	19	55	57	0.720527235967	0.644659776898	0.0571905141975	-0.30126953125	0.75830078125	0.08251953125	17.6875	-0.125	0.75
18	12	13	19	55	57	0.718293068357	0.64730608344	0.056154794603	-0.32763671875	0.77978515625	0.09521484375	18.0625	0.0625	0.9375
18	12	13	19	55	57	0.717314025976	0.648219448253	0.0559714909649	-0.357421875	0.802734375	0.10986328125	6.125	-1.8125	-2.5
18	12	13	19	55	57	0.716578915626	0.649071566335	0.0557881711143	-0.359375	0.86083984375	0.13232421875	5.8125	0.9375	-1.4375
18	12	13	19	55	58	0.71744974527	0.648353853519	0.0559115166469	-0.3798828125	0.90283203125	0.15576171875	-6.6875	1.875	1.5
18	12	13	19	55	58	0.720185784119	0.645597511537	0.0567041777648	-0.35302734375	0.89111328125	0.1962890625	-20.375	3.5625	1.125
18	12	13	19	55	58	0.722078428757	0.643888871087	0.0573756317017	-0.33251953125	0.880859375	0.23828125	-10.5	7.0625	0.8125
18	12	13	19	55	58	0.721880290549	0.643814433476	0.0596327930893	-0.4326171875	0.8583984375	0.1689453125	-2.0625	8.3125	-6.5625
18	12	13	19	55	58	0.720793830512	0.643947405529	0.0628687988337	-0.53515625	0.85302734375	0.13720703125	-0.375	4.125	-12.625
18	12	13	19	55	58	0.719268203658	0.64547362981	0.0634792033099	-0.43994140625	0.94384765625	0.1201171875	8.125	2.75	-4.8125
18	12	13	19	55	58	0.718849038543	0.646396477725	0.0636019952587	-0.38134765625	0.921875	0.09716796875	0.8125	5.0	1.5625
18	12	13	19	55	58	0.719993099704	0.644917522166	0.0654317228622	-0.40234375	0.75830078125	0.1181640625	-14.125	3.75	-2.625
18	12	13	19	55	58	0.719263621404	0.645713666907	0.0662865150072	-0.36865234375	0.76416015625	0.15771484375	6.3125	6.0625	-2.5
18	12	13	19	55	58	0.715918273271	0.649935866125	0.0653109857958	-0.3623046875	0.83544921875	0.11279296875	29.25	7.0	3.375
18	12	13	19	55	58	0.71391066407	0.652200362995	0.0647012058751	-0.40576171875	0.857421875	0.0888671875	14.625	-0.125	1.0625
18	12	13	19	55	58	0.71364882862	0.652550429933	0.0638450799467	-0.357421875	0.82861328125	0.08935546875	0.875	-4.0	1.125
18	12	13	19	55	58	0.71269344473	0.654156872831	0.0625041184826	-0.35107421875	0.90380859375	0.0908203125	8.9375	0.4375	5.1875
18	12	13	19	55	58	0.712165508262	0.655280159128	0.0613409612447	-0.390625	0.9580078125	0.0439453125	1.4375	-0.9375	6.0625
18	12	13	19	55	58	0.713532942469	0.654020999021	0.0612820422787	-0.42431640625	0.97021484375	0.07568359375	-15.0625	-2.125	3.1875
18	12	13	19	55	58	0.713977000544	0.653670146091	0.0615276409804	-0.44189453125	0.96728515625	0.09716796875	-6.6875	0.3125	1.875
18	12	13	19	55	58	0.713153059911	0.654435733342	0.0622574564455	-0.47119140625	1.00244140625	0.107421875	2.625	2.3125	-3.3125
18	12	13	19	55	58	0.713223233129	0.654138929349	0.0633569290533	-0.4736328125	0.95458984375	0.14306640625	-3.375	2.5625	-2.875
18	12	13	19	55	58	0.7133797952	0.653870443701	0.0643921700835	-0.45068359375	0.9375	0.21630859375	1.75	5.75	-2.125
18	12	13	19	55	58	0.713039947946	0.654199808431	0.065004925917	-0.41552734375	0.90478515625	0.23291015625	8.0625	6.0625	-2.375
18	12	13	19	55	58	0.713579692235	0.653336500357	0.0661637487283	-0.41796875	0.8564453125	0.24755859375	0.3125	4.75	-4.25
18	12	13	19	55	58	0.714576777687	0.651768243969	0.0674474536042	-0.38525390625	0.80517578125	0.228515625	-5.1875	2.125	-6.8125
18	12	13	19	55	58	0.714891596939	0.650983511044	0.0681197935608	-0.38232421875	0.79052734375	0.1728515625	-2.0	-0.9375	-5.75
18	12	13	19	55	58	0.715793415181	0.649750226366	0.0675691404967	-0.3515625	0.77783203125	0.095703125	-9.375	-7.9375	-1.0625
18	12	13	19	55	58	0.71723784153	0.647961613963	0.0674451378513	-0.3544921875	0.77587890625	0.0517578125	-17.5	-8.0625	-0.8125
18	12	13	19	55	58	0.717355094415	0.648079332298	0.0664070741703	-0.35400390625	0.84619140625	0.00927734375	-6.8125	-6.25	3.0625
18	12	13	19	55	58	0.716807422825	0.649179474554	0.0651865060948	-0.3720703125	0.92822265625	-0.00048828125	-2.0625	-3.75	4.75
18	12	13	19	55	58	0.716575005942	0.64973943256	0.0642109800895	-0.419921875	0.962890625	0.0419921875	-2.8125	-4.125	4.4375
18	12	13	19	55	58	0.715901195297	0.650347620078	0.0646380224929	-0.45703125	0.9580078125	0.1123046875	1.625	0.5625	-2.3125
18	12	13	19	55	58	0.714515032491	0.652011752697	0.0645785840061	-0.4716796875	1.05810546875	0.20361328125	14.3125	5.0	-0.6875
18	12	13	19	55	58	0.714004092076	0.652845594874	0.0641492819945	-0.46533203125	1.041015625	0.27001953125	12.4375	5.1875	3.1875
18	12	13	19	55	58	0.715869477045	0.650740492392	0.0647017092145	-0.42333984375	0.9423828125	0.33935546875	-4.3125	3.875	-0.875
18	12	13	19	55	58	0.717393199512	0.648724149104	0.0659833275481	-0.39794921875	0.86572265625	0.3525390625	-2.375	6.25	-5.6875
18	12	13	19	55	58	0.718036287912	0.647416772006	0.0670793845984	-0.40185546875	0.845703125	0.30078125	1.25	1.875	-8.3125
18	12	13	19	55	58	0.719947105806	0.644564767894	0.0681798149373	-0.40185546875	0.8388671875	0.2353515625	-14.5	-3.625	-8.5
18	12	13	19	55	58	0.72237411673	0.641438917847	0.068666741134	-0.3759765625	0.86181640625	0.15869140625	-22.5625	-6.75	-5.375
18	12	13	19	55	58	0.72489399906	0.638219236626	0.0696450027726	-0.3818359375	0.87646484375	0.1181640625	-27.25	-5.3125	-5.9375
18	12	13	19	55	58	0.727983018454	0.634413976172	0.0706803333084	-0.39501953125	0.8916015625	0.12841796875	-31.9375	-5.25	-4.4375
18	12	13	19	55	58	0.729690227505	0.632031978738	0.072450213304	-0.44482421875	0.86328125	0.1357421875	-21.4375	-0.6875	-5.25
18	12	13	19	55	58	0.729854899194	0.631527733899	0.0733028712102	-0.4580078125	0.89013671875	0.169921875	-5.375	0.0	-3.4375
18	12	13	19	55	58	0.729453320078	0.631855139273	0.0736106354292	-0.41796875	0.8720703125	0.18896484375	2.4375	0.875	-2.75
18	12	13	19	55	58	0.729273101211	0.631979719613	0.0734888528505	-0.376953125	0.80029296875	0.23486328125	5.625	1.0	-1.4375
18	12	13	19	55	58	0.729349302093	0.63168766653	0.0735514192838	-0.32177734375	0.7119140625	0.2373046875	3.6875	0.8125	-3.625
18	12	13	19	55	58	0.728798392749	0.63229669602	0.0729408776662	-0.296875	0.7578125	0.2216796875	9.1875	0.375	-3.4375
18	12	13	19	55	58	0.728500828992	0.633096824324	0.0710494314995	-0.27783203125	0.85205078125	0.16455078125	5.75	-3.25	1.1875
18	12	13	19	55	58	0.730734698486	0.630634054857	0.0702535614732	-0.28857421875	0.8671875	0.1220703125	-21.5	-8.0625	-2.125
18	12	13	19	55	58	0.734407396278	0.626309366125	0.0701935260738	-0.3095703125	0.837890625	0.16796875	-32.6875	-8.125	-2.5
18	12	13	19	55	58	0.736233353117	0.62422968847	0.0702540697594	-0.35302734375	0.86962890625	0.15234375	-19.25	-3.5625	-1.1875
18	12	13	19	55	58	0.737152312975	0.623133887817	0.0705595821644	-0.4111328125	0.86279296875	0.18603515625	-9.875	-1.0625	0.0625
18	12	13	19	55	58	0.737703055336	0.622524694801	0.0710480188988	-0.4052734375	0.83251953125	0.24072265625	-3.0	2.8125	0.5625
18	12	13	19	55	59	0.735662859342	0.625005200337	0.0715337983199	-0.4248046875	0.83642578125	0.22900390625	19.0	7.9375	-0.5625
18	12	13	19	55	59	0.732135574555	0.628800390919	0.0720843779533	-0.50634765625	0.8564453125	0.19775390625	28.375	5.5	-2.625
18	12	13	19	55	59	0.729638305368	0.631795725185	0.070986226296	-0.47265625	0.9052734375	0.17626953125	22.25	-0.625	4.0
18	12	13	19	55	59	0.728045782752	0.633866151398	0.0695208037018	-0.43359375	0.89794921875	0.1748046875	15.125	-2.3125	5.125
18	12	13	19	55	59	0.727087955215	0.635164310105	0.0678745639858	-0.40087890625	0.88623046875	0.19921875	12.5	-3.8125	4.375
18	12	13	19	55	59	0.725298646133	0.637344817211	0.0665909974696	-0.3984375	0.89013671875	0.212890625	19.3125	-0.25	1.8125
18	12	13	19	55	59	0.722608612688	0.640881023163	0.0646374289076	-0.400390625	0.95703125	0.189453125	27.6875	1.5	4.5625
18	12	13	19	55	59	0.720478563019	0.643633213067	0.0631731034162	-0.39892578125	0.93603515625	0.17333984375	21.125	0.9375	3.625
18	12	13	19	55	59	0.718910826888	0.645664690679	0.0617098697558	-0.36376953125	0.87939453125	0.14990234375	15.75	-0.6875	2.8125
18	12	13	19	55	59	0.717246230488	0.647725044502	0.0604877044008	-0.35791015625	0.8212890625	0.138671875	16.125	-0.625	2.75
18	12	13	19	55	59	0.715415680401	0.650044961716	0.0590228617821	-0.35400390625	0.80419921875	0.083984375	15.4375	-1.8125	4.5
18	12	13	19	55	59	0.713902072915	0.652253552597	0.0573148124544	-0.35888671875	0.853515625	0.05712890625	12.0	-1.4375	7.6875
18	12	13	19	55	59	0.712603457297	0.654435483438	0.0551771756228	-0.35302734375	0.91357421875	0.02880859375	9.0625	-2.25	9.625
18	12	13	19	55	59	0.712005432783	0.655362394496	0.05432360353	-0.4072265625	0.876953125	0.0419921875	1.3125	-2.625	6.1875
18	12	13	19	55	59	0.711146484915	0.656395957323	0.053651854797	-0.41064453125	0.9384765625	0.07080078125	4.4375	-2.375	1.875
18	12	13	19	55	59	0.709115457396	0.659127029129	0.0523688296132	-0.41796875	1.029296875	0.09716796875	17.0625	2.625	5.375
18	12	13	19	55	59	0.708027221597	0.660479531457	0.0514540472247	-0.44873046875	1.01416015625	0.16162109375	12.5	0.1875	3.9375
18	12	13	19	55	59	0.708460845585	0.660119242267	0.050966210568	-0.38720703125	0.93359375	0.2314453125	4.3125	1.3125	1.8125
18	12	13	19	55	59	0.707565879592	0.661237161285	0.051211850671	-0.3837890625	0.87548828125	0.24755859375	15.6875	8.375	0.4375
18	12	13	19	55	59	0.706078600396	0.662681134553	0.0519426771211	-0.4169921875	0.86083984375	0.1826171875	15.3125	6.125	-2.625
18	12	13	19	55	59	0.706212726359	0.662448290335	0.052492907923	-0.42626953125	0.88623046875	0.1376953125	-0.8125	1.625	-0.375
18	12	13	19	55	59	0.707467234217	0.661140978435	0.0521246672437	-0.41455078125	0.95849609375	0.109375	-10.625	-3.9375	2.625
18	12	13	19	55	59	0.709555838653	0.65846781827	0.0526749839792	-0.44140625	0.95166015625	0.09716796875	-21.3125	-7.5	-2.625
18	12	13	19	55	59	0.711626952303	0.655778366545	0.0531629707056	-0.431640625	0.9287109375	0.1318359375	-19.5625	-7.0	-2.8125
18	12	13	19	55	59	0.711988801232	0.654858795406	0.0542612982679	-0.40087890625	0.86376953125	0.11669921875	-7.1875	-1.625	-7.5
18	12	13	19	55	59	0.710599516605	0.656092956879	0.0547507100493	-0.3798828125	0.845703125	0.11376953125	8.75	1.375	-6.0
18	12	13	19	55	59	0.709061467772	0.657546629277	0.0550549577284	-0.33642578125	0.8037109375	0.0869140625	9.6875	1.375	-6.3125
18	12	13	19	55	59	0.707764570966	0.658875348704	0.0550537808737	-0.3271484375	0.783203125	0.09375	9.375	1.375	-3.625
18	12	13	19	55	59	0.707538432724	0.659197297569	0.0546279241967	-0.28271484375	0.7666015625	0.08154296875	1.375	-1.0625	-2.125
18	12	13	19	55	59	0.70856748289	0.65827377922	0.0543831188952	-0.3056640625	0.77978515625	0.08447265625	-9.125	-1.4375	1.25
18	12	13	19	55	59	0.710407119359	0.656511639816	0.0538954795424	-0.31396484375	0.822265625	0.10302734375	-14.75	-3.0	2.5
18	12	13	19	55	59	0.712247053652	0.654810728561	0.0536519976142	-0.35205078125	0.916015625	0.1220703125	-14.625	-1.4375	2.6875
18	12	13	19	55	59	0.714196720069	0.652549109841	0.0544452161611	-0.4150390625	0.9501953125	0.14990234375	-18.0	-1.0625	-2.125
18	12	13	19	55	59	0.716478530462	0.649640569067	0.0564002523553	-0.46142578125	0.96533203125	0.20458984375	-20.0	1.4375	-5.6875
18	12	13	19	55	59	0.7171167587	0.648694945226	0.0578625148734	-0.49169921875	0.96484375	0.2158203125	-4.75	4.4375	-2.6875
18	12	13	19	55	59	0.717553765477	0.647849240114	0.0592671577304	-0.4794921875	0.89794921875	0.21435546875	-2.9375	2.9375	-2.6875
18	12	13	19	55	59	0.718143277481	0.646792819264	0.0608523582907	-0.44970703125	0.80419921875	0.20703125	-4.5	3.3125	-2.9375
18	12	13	19	55	59	0.717300364965	0.64747466572	0.0620130335946	-0.431640625	0.8017578125	0.1845703125	7.25	5.375	-2.75
18	12	13	19	55	59	0.715861279583	0.649084997194	0.0617711131428	-0.43115234375	0.8759765625	0.14208984375	12.1875	1.5625	0.9375
18	12	13	19	55	59	0.715783654919	0.649130994292	0.0612203467114	-0.412109375	0.8916015625	0.10693359375	-1.3125	-4.4375	1.3125
18	12	13	19	55	59	0.715778317612	0.649065117207	0.0604874488576	-0.41796875	0.87353515625	0.1171875	-1.0625	-5.5	2.3125
18	12	13	19	55	59	0.714378108497	0.650716422991	0.0590228666197	-0.39892578125	0.91162109375	0.08251953125	9.9375	-4.9375	2.5
18	12	13	19	55	59	0.712792859615	0.652610143432	0.0580464128698	-0.4345703125	0.9140625	0.07666015625	10.9375	-2.3125	4.0625
18	12	13	19	55	59	0.711144807838	0.654685366824	0.0572529250495	-0.41845703125	0.9677734375	0.0947265625	12.0625	1.0	1.9375
18	12	13	19	55	59	0.709553291687	0.657122644155	0.0559707843851	-0.41796875	1.03955078125	0.14453125	16.8125	5.0625	6.6875
18	12	13	19	55	59	0.710071317015	0.656783922555	0.0560341673704	-0.4287109375	1.0166015625	0.21826171875	1.125	4.0625	1.25
18	12	13	19	55	59	0.711583605874	0.65494013476	0.0576200826853	-0.45947265625	0.99267578125	0.2646484375	-8.125	6.0625	-4.5
18	12	13	19	55	59	0.712379000449	0.653904226871	0.0592682725933	-0.47119140625	1.02294921875	0.26513671875	-2.4375	7.5625	-5.3125
18	12	13	19	55	59	0.714429440035	0.651073800671	0.0618907690898	-0.49658203125	0.9609375	0.220703125	-18.4375	4.0	-7.9375
18	12	13	19	55	59	0.717503905863	0.64663856901	0.0653108616992	-0.484375	0.8662109375	0.177734375	-32.0	-0.375	-12.6875
18	12	13	19	56	00	0.719337694011	0.643772139053	0.0679967917801	-0.45947265625	0.83935546875	0.154296875	-21.9375	0.4375	-10.0
18	12	13	19	56	00	0.720536111527	0.641860038019	0.0697647416752	-0.44970703125	0.82470703125	0.10986328125	-17.375	-1.5	-6.5
18	12	13	19	56	00	0.721643010366	0.640097289158	0.0711693944081	-0.4306640625	0.7685546875	0.10302734375	-15.8125	-2.4375	-4.125
18	12	13	19	56	00	0.721021469087	0.640575663935	0.0720838360274	-0.39501953125	0.72705078125	0.0947265625	0.25	1.4375	-2.6875
18	12	13	19	56	00	0.718815904748	0.64300972714	0.0724492212733	-0.4130859375	0.74072265625	0.0732421875	13.75	3.5	-0.4375
18	12	13	19	56	00	0.716836256812	0.645238085044	0.0722085568638	-0.4140625	0.7490234375	0.05712890625	12.0	0.3125	1.9375
18	12	13	19	56	00	0.715289843499	0.64723385105	0.0709857571456	-0.40869140625	0.79296875	0.0732421875	11.875	-2.25	6.0
18	12	13	19	56	00	0.713752402706	0.649420691363	0.0690925021262	-0.388671875	0.8203125	0.0498046875	11.5625	-3.8125	8.3125
18	12	13	19	56	00	0.713168234928	0.650421149554	0.0674470129746	-0.39306640625	0.83544921875	0.06103515625	3.875	-5.5625	7.5625
18	12	13	19	56	00	0.712923684431	0.651092203923	0.0662872535352	-0.3798828125	0.828125	0.0830078125	1.6875	-2.1875	6.625
18	12	13	19	56	00	0.712247429127	0.6523085333	0.0650660518853	-0.39892578125	0.845703125	0.11083984375	7.5	-0.375	7.6875
18	12	13	19	56	00	0.711924403211	0.652658405653	0.0648813134956	-0.46044921875	0.81982421875	0.14013671875	3.6875	-0.75	5.0
18	12	13	19	56	00	0.711406061169	0.653297217734	0.0640906361414	-0.46044921875	0.8759765625	0.17724609375	8.4375	-1.375	5.25
18	12	13	19	56	00	0.710962735762	0.654075950929	0.0629905171107	-0.42724609375	0.8876953125	0.1982421875	10.3125	0.375	6.9375
18	12	13	19	56	00	0.711681092873	0.653208495362	0.0629282338552	-0.455078125	0.85205078125	0.19140625	-2.3125	-1.4375	3.5625
18	12	13	19	56	00	0.712777273426	0.651924478289	0.0628669799305	-0.44140625	0.87060546875	0.1982421875	-5.25	-2.125	2.6875
18	12	13	19	56	00	0.7134432065	0.65143120395	0.0621340734209	-0.4541015625	0.9453125	0.18212890625	-1.8125	-1.5	6.1875
18	12	13	19	56	00	0.714801904891	0.649919791929	0.0618302732179	-0.46240234375	0.92138671875	0.16357421875	-9.8125	-4.4375	4.5625
18	12	13	19	56	00	0.716808087754	0.647471065641	0.0618295804577	-0.4404296875	0.88818359375	0.19140625	-15.125	-5.75	1.3125
18	12	13	19	56	00	0.717206967656	0.646829126489	0.0621375908999	-0.43505859375	0.84228515625	0.18798828125	-1.625	-0.875	0.125
18	12	13	19	56	00	0.716455579658	0.647544491786	0.0616476516829	-0.42919921875	0.890625	0.15869140625	6.875	-2.1875	0.375
18	12	13	19	56	00	0.716566217728	0.64741208445	0.0617687404038	-0.44482421875	0.83984375	0.15869140625	-0.25	-0.0625	2.9375
18	12	13	19	56	00	0.71634804615	0.647435559434	0.0617709801213	-0.42138671875	0.896484375	0.1494140625	0.75	-1.75	-2.1875
18	12	13	19	56	00	0.71583156598	0.648081477453	0.0615244047159	-0.45556640625	0.9423828125	0.166015625	5.25	0.3125	1.875
18	12	13	19	56	00	0.71743763009	0.645901395407	0.0621974600188	-0.4453125	0.91259765625	0.216796875	-12.1875	-2.875	-3.125
18	12	13	19	56	00	0.718705517978	0.644240912293	0.0628066223354	-0.423828125	0.88623046875	0.2734375	-4.875	1.125	-2.3125
18	12	13	19	56	00	0.718038750293	0.644550255278	0.0640277668359	-0.45654296875	0.88623046875	0.26513671875	8.625	5.4375	-6.3125
18	12	13	19	56	00	0.717956957532	0.644226446208	0.0650635141315	-0.455078125	0.865234375	0.23974609375	3.0625	2.875	-4.375
18	12	13	19	56	00	0.71766743923	0.643996355785	0.0666518832828	-0.4365234375	0.84228515625	0.18701171875	0.125	3.3125	-8.4375
18	12	13	19	56	00	0.7169930338	0.64429883926	0.0676892206081	-0.439453125	0.83837890625	0.14404296875	2.25	1.125	-6.1875
18	12	13	19	56	00	0.716834136272	0.644137486383	0.0685460435145	-0.42626953125	0.84814453125	0.09521484375	-4.6875	-1.0	-5.1875
18	12	13	19	56	00	0.7168811647	0.643819712665	0.0692161124538	-0.42041015625	0.84130859375	0.1015625	-5.4375	-1.125	-3.875
18	12	13	19	56	00	0.715849255283	0.64486249847	0.0699491172027	-0.431640625	0.83642578125	0.10205078125	4.125	2.875	-2.6875
18	12	13	19	56	00	0.714076588962	0.646630257583	0.0706202763851	-0.4501953125	0.84375	0.1064453125	10.3125	3.5	-3.5625
18	12	13	19	56	00	0.711997226943	0.648701802653	0.0717185376475	-0.45263671875	0.841796875	0.126953125	13.8125	6.75	-4.875
18	12	13	19	56	00	0.709634704136	0.651159730236	0.072391773534	-0.44580078125	0.86865234375	0.1650390625	19.25	7.375	-4.75
18	12	13	19	56	00	0.708113635829	0.652568130389	0.0730637033089	-0.46142578125	0.87890625	0.18408203125	13.5	5.125	-4.6875
18	12	13	19	56	00	0.707432093444	0.652680877929	0.0745275742964	-0.51611328125	0.8916015625	0.1728515625	3.4375	2.5625	-7.0625
18	12	13	19	56	00	0.706865025358	0.652847622073	0.0752581449155	-0.4970703125	0.8935546875	0.16064453125	3.625	0.375	-4.4375
18	12	13	19	56	00	0.707236651646	0.652181205043	0.075624942728	-0.4345703125	0.849609375	0.1162109375	-5.5625	-2.3125	-3.3125
18	12	13	19	56	00	0.707538684455	0.651567931035	0.0766011947025	-0.44189453125	0.78662109375	0.07421875	-7.875	-0.75	-2.9375
18	12	13	19	56	00	0.706017599997	0.653098324541	0.0769679427333	-0.486328125	0.8427734375	0.0224609375	4.9375	-0.1875	-0.0625
18	12	13	19	56	00	0.704383339315	0.655003259462	0.0763590604405	-0.49853515625	0.88818359375	-0.009765625	5.6875	-3.25	4.0
18	12	13	19	56	00	0.703839584295	0.65561885135	0.0758713557609	-0.47998046875	0.8408203125	-0.0048828125	-2.6875	-5.5625	3.9375
18	12	13	19	56	00	0.702415970535	0.657126376327	0.0756250771196	-0.4599609375	0.80029296875	0.00390625	5.1875	-2.5	2.125
18	12	13	19	56	00	0.699928901274	0.659765544072	0.0752605158517	-0.47021484375	0.814453125	0.0009765625	13.8125	-0.4375	1.5625
18	12	13	19	56	00	0.697787905449	0.662385789882	0.0740392520389	-0.42724609375	0.84912109375	0.0234375	14.8125	-0.875	4.1875
18	12	13	19	56	00	0.696563993628	0.663908741561	0.0730012737802	-0.40185546875	0.82470703125	0.06689453125	10.1875	-1.1875	3.125
18	12	13	19	56	00	0.696013916504	0.664701530363	0.0719025163239	-0.3720703125	0.86328125	0.10546875	6.875	-1.4375	0.5625
18	12	13	19	56	00	0.696379414205	0.664761872216	0.0706816865325	-0.3388671875	0.904296875	0.1455078125	2.875	0.0	1.125
18	12	13	19	56	01	0.698353244807	0.663133436901	0.0700733786416	-0.34716796875	0.92236328125	0.166015625	-10.4375	0.625	1.25
18	12	13	19	56	01	0.701607954126	0.659676273875	0.070923744471	-0.40478515625	0.91943359375	0.1923828125	-23.125	0.25	-2.125
18	12	13	19	56	01	0.704487458177	0.65681766916	0.0713520913714	-0.42724609375	0.9482421875	0.20751953125	-18.875	1.5	1.25
18	12	13	19	56	01	0.707367917852	0.653349399663	0.0724519560351	-0.4931640625	0.8818359375	0.2197265625	-21.125	-2.25	-0.625
18	12	13	19	56	01	0.70924605838	0.650284639069	0.0744036957974	-0.517578125	0.81884765625	0.19775390625	-17.3125	-3.9375	-7.1875
18	12	13	19	56	01	0.709188252964	0.649738269456	0.0751975150746	-0.4912109375	0.8076171875	0.19482421875	1.125	-1.0625	-3.75
18	12	13	19	56	01	0.709013714967	0.649563012627	0.0755646504071	-0.4541015625	0.80322265625	0.17724609375	2.5625	-0.8125	-2.4375
18	12	13	19	56	01	0.709026784152	0.649269791927	0.0758101985121	-0.43798828125	0.7451171875	0.15380859375	0.5625	-1.25	0.0
18	12	13	19	56	01	0.70835730497	0.649943005887	0.0754441731101	-0.4033203125	0.77197265625	0.14892578125	7.25	-0.75	0.125
18	12	13	19	56	01	0.707310127833	0.651093988057	0.0747107004201	-0.40283203125	0.8564453125	0.14013671875	9.875	-0.875	-1.375
18	12	13	19	56	01	0.707103757046	0.651377755303	0.0742199541275	-0.41943359375	0.8916015625	0.16357421875	4.1875	-0.5625	-0.6875
18	12	13	19	56	01	0.708014494789	0.650335727756	0.0744635934174	-0.41552734375	0.94189453125	0.21142578125	-4.375	1.4375	-4.1875
18	12	13	19	56	01	0.708765662797	0.649376325052	0.0758694211899	-0.453125	0.92724609375	0.23681640625	-3.8125	6.9375	-5.875
18	12	13	19	56	01	0.709562082604	0.648097220911	0.077212562107	-0.45166015625	0.92578125	0.27099609375	-2.8125	4.75	-8.375
18	12	13	19	56	01	0.710459146466	0.646554444889	0.0791637038631	-0.4384765625	0.86328125	0.27099609375	-4.6875	6.125	-10.75
18	12	13	19	56	01	0.710888877382	0.645274938755	0.081788537451	-0.466796875	0.80712890625	0.24365234375	-4.125	7.375	-12.0625
18	12	13	19	56	01	0.711015493911	0.644363513539	0.0842305246456	-0.4619140625	0.8203125	0.18603515625	-4.6875	5.375	-12.125
18	12	13	19	56	01	0.712546162232	0.642292553124	0.08398693843	-0.4794921875	0.77490234375	-0.00830078125	-22.6875	-14.25	2.125
18	12	13	19	56	01	0.716030111339	0.637474936733	0.084170618322	-0.38134765625	0.84375	0.13623046875	-33.9375	-16.5	-10.9375
18	12	13	19	56	01	0.712707224822	0.640624735097	0.0864867806433	-0.42822265625	0.81396484375	0.17041015625	22.9375	14.5	-15.5625
18	12	13	19	56	01	0.7055347892	0.648342463092	0.0890540061807	-0.55810546875	0.818359375	0.0322265625	47.4375	23.0625	-9.0
18	12	13	19	56	01	0.702860320922	0.651709912851	0.0878346506128	-0.3974609375	0.73828125	-0.0234375	16.4375	-0.375	4.75
18	12	13	19	56	01	0.701682213275	0.653218775789	0.0881375361838	-0.5302734375	0.859375	0.05029296875	4.625	3.6875	3.875
18	12	13	19	56	01	0.700259244589	0.65527614834	0.0862430325638	-0.462890625	0.9580078125	0.01953125	9.0	-4.75	4.9375
18	12	13	19	56	01	0.700456437939	0.654923107275	0.0853902541544	-0.4609375	0.8447265625	0.03076171875	-6.125	-9.3125	1.0
18	12	13	19	56	01	0.700584212793	0.654318065965	0.0849026520295	-0.52685546875	0.8076171875	0.08349609375	-3.75	-10.0	1.875
18	12	13	19	56	01	0.697279323409	0.658399165057	0.0828873705523	-0.5537109375	0.97314453125	0.07421875	27.6875	0.375	8.8125
18	12	13	19	56	01	0.694374831636	0.662207502498	0.0804488421323	-0.63525390625	1.11669921875	0.08544921875	26.0	-0.5625	13.125
18	12	13	19	56	01	0.695585319956	0.660427620386	0.0803255774888	-0.5732421875	0.93603515625	0.18994140625	-6.625	-6.8125	0.5
18	12	13	19	56	01	0.696136168444	0.65920829629	0.0808140541008	-0.5390625	0.84765625	0.29248046875	3.8125	-0.1875	-1.9375
18	12	13	19	56	01	0.694046509036	0.661575069162	0.0800799419449	-0.57275390625	0.9248046875	0.27001953125	27.875	6.75	5.9375
18	12	13	19	56	01	0.69418340222	0.661894382632	0.0789219325658	-0.56640625	0.9384765625	0.21435546875	8.0625	1.375	11.5625
18	12	13	19	56	01	0.696759180639	0.659037133015	0.0784350019379	-0.48828125	0.81982421875	0.212890625	-14.0	-6.4375	5.8125
18	12	13	19	56	01	0.698301634518	0.656736787642	0.0781248223217	-0.43994140625	0.712890625	0.19580078125	-8.125	-9.3125	-0.8125
18	12	13	19	56	01	0.698769369538	0.65585926587	0.0773968868426	-0.41845703125	0.74609375	0.1318359375	-2.0625	-8.25	-0.3125
18	12	13	19	56	01	0.699587972371	0.655520399866	0.0748294236719	-0.38330078125	0.796875	0.0810546875	-2.9375	-9.9375	10.6875
18	12	13	19	56	01	0.701325937852	0.654387761507	0.0717195802416	-0.35498046875	0.81103515625	0.0712890625	-9.875	-12.75	13.125
18	12	13	19	56	01	0.702475608885	0.65346284375	0.0695822568537	-0.37548828125	0.7880859375	0.07421875	-7.5	-11.0625	8.1875
18	12	13	19	56	01	0.702168761116	0.654010628943	0.0677509844262	-0.3798828125	0.8798828125	0.109375	4.5	-6.3125	2.25
18	12	13	19	56	01	0.702893892999	0.653332427115	0.066529553957	-0.4072265625	0.865234375	0.19287109375	0.1875	-4.1875	3.0
18	12	13	19	56	01	0.704429224127	0.651571091548	0.0660421471714	-0.39453125	0.8896484375	0.29150390625	-3.125	-1.4375	-1.625
18	12	13	19	56	01	0.70497794874	0.650716009655	0.0665914235563	-0.455078125	0.89404296875	0.3134765625	4.25	4.0625	-3.6875
18	12	13	19	56	01	0.70575381826	0.649234918691	0.0678104723762	-0.50537109375	0.92822265625	0.2958984375	-1.5625	1.9375	-7.125
18	12	13	19	56	01	0.708397269322	0.645223809582	0.0690330270208	-0.564453125	0.7138671875	0.1279296875	-27.25	-13.1875	0.5625
18	12	13	19	56	01	0.718721064105	0.631681043943	0.0682403524136	-0.43994140625	0.71142578125	0.185546875	-88.125	-46.3125	-1.5625
18	12	13	19	56	01	0.722938179265	0.625337862763	0.0678746416196	-0.36962890625	0.7373046875	0.2783203125	-33.5625	-22.4375	-9.625
18	12	13	19	56	01	0.721692795475	0.626232077264	0.0685437254159	-0.37109375	0.6748046875	0.21630859375	11.0	2.5625	-7.3125
18	12	13	19	56	01	0.715425758112	0.634001138939	0.0691559921458	-0.3759765625	0.72705078125	0.173828125	53.9375	24.0	-4.0625
18	12	13	19	56	01	0.709422454032	0.641550323869	0.0706797902237	-0.38720703125	0.63134765625	0.14501953125	50.9375	29.25	-0.125
18	12	13	19	56	01	0.704870198349	0.646761744173	0.0723303762594	-0.5380859375	0.68359375	0.07177734375	31.8125	16.9375	2.875
18	12	13	19	56	02	0.701756936934	0.651034138413	0.0676914362929	-0.44189453125	0.8759765625	0.0556640625	30.6875	-9.8125	16.4375
18	12	13	19	56	02	0.701854049683	0.651682380073	0.0636606464753	-0.5576171875	0.99853515625	0.08935546875	3.875	-15.0	21.25
18	12	13	19	56	02	0.704549464902	0.648395474803	0.0614642043798	-0.52392578125	0.96875	0.18603515625	-18.25	-19.75	7.375
18	12	13	19	56	02	0.703046826395	0.65030915857	0.059207798368	-0.53564453125	1.06884765625	0.2158203125	19.25	-3.5	6.6875
18	12	13	19	56	02	0.701607644396	0.651741315951	0.0573737438653	-0.57470703125	1.11572265625	0.26171875	19.125	-4.75	2.5
18	12	13	19	56	02	0.701444378611	0.652003902918	0.056642915363	-0.46435546875	1.0673828125	0.2919921875	10.3125	2.25	-2.1875
18	12	13	19	56	02	0.699436673728	0.654024256828	0.0566434447351	-0.4462890625	1.05517578125	0.25244140625	21.25	6.5625	-9.375
18	12	13	19	56	02	0.698325213179	0.654439553859	0.0585345581189	-0.47802734375	1.01904296875	0.16748046875	3.875	4.1875	-17.3125
18	12	13	19	56	02	0.699800489919	0.652129824186	0.0601224145285	-0.49853515625	0.912109375	0.1298828125	-18.0	-4.125	-8.25
18	12	13	19	56	02	0.700944621352	0.649612818274	0.0632339452909	-0.51318359375	0.8447265625	0.0576171875	-24.1875	-3.8125	-15.6875
18	12	13	19	56	02	0.700864404221	0.648801586421	0.065490508206	-0.55078125	0.873046875	0.0234375	-13.8125	-2.8125	-9.75
18	12	13	19	56	02	0.701204824652	0.647735515251	0.0674470169952	-0.50244140625	0.8154296875	0.01513671875	-16.3125	-3.0	-7.8125
18	12	13	19	56	02	0.700384552074	0.647954893666	0.0691534376906	-0.49462890625	0.7099609375	0.0537109375	-2.625	-0.25	-5.6875
18	12	13	19	56	02	0.696452128201	0.65158864755	0.0697672903184	-0.501953125	0.70263671875	0.03515625	23.8125	2.0625	-5.125
18	12	13	19	56	02	0.691775882001	0.656070139018	0.0689700676426	-0.54345703125	0.7734375	0.0751953125	34.75	-1.0625	-1.25
18	12	13	19	56	02	0.688575948929	0.659155364993	0.0673255271402	-0.494140625	0.80712890625	0.0869140625	25.75	-5.25	0.75
18	12	13	19	56	02	0.687169436673	0.660007383083	0.0666538483609	-0.5048828125	0.81201171875	0.11572265625	10.4375	-6.6875	-2.25
18	12	13	19	56	02	0.687884168369	0.658586528545	0.0673845715953	-0.51220703125	0.78564453125	0.14453125	-6.875	-4.5	-3.0625
18	12	13	19	56	02	0.689832484579	0.655957327178	0.068787932235	-0.53271484375	0.75634765625	0.17578125	-16.125	-2.0	-0.5625
18	12	13	19	56	02	0.691430496236	0.653648409621	0.0704370403122	-0.55078125	0.74658203125	0.1865234375	-13.375	-0.75	-0.5625
18	12	13	19	56	02	0.692044227376	0.652430829637	0.0717802091546	-0.595703125	0.79931640625	0.17578125	-6.0625	-0.1875	0.25
18	12	13	19	56	02	0.692341118822	0.651080200518	0.0734883811216	-0.58935546875	0.77392578125	0.14794921875	-7.625	-3.1875	-5.375
18	12	13	19	56	02	0.691941851418	0.650557185287	0.0750173372788	-0.58544921875	0.763671875	0.12060546875	-2.875	-2.5	-4.625
18	12	13	19	56	02	0.692118422135	0.649513372426	0.0764815577154	-0.529296875	0.71435546875	0.10009765625	-8.125	-3.375	-5.125
18	12	13	19	56	02	0.692360183332	0.648534510086	0.0781903724631	-0.56201171875	0.654296875	0.0927734375	-8.4375	-1.625	-0.3125
18	12	13	19	56	02	0.691854117838	0.648456828223	0.0783104396282	-0.53173828125	0.63720703125	0.1025390625	1.4375	-6.125	2.25
18	12	13	19	56	02	0.690573443771	0.649495493651	0.0776391568391	-0.5419921875	0.6787109375	0.1015625	9.5	-5.1875	5.1875
18	12	13	19	56	02	0.689073305828	0.650862668088	0.0760550393358	-0.53369140625	0.76416015625	0.1171875	13.6875	-7.625	5.125
18	12	13	19	56	02	0.687967284537	0.65183236905	0.0745282631904	-0.568359375	0.81298828125	0.14453125	11.5625	-7.25	6.1875
18	12	13	19	56	02	0.68806212371	0.651440348297	0.0733045871175	-0.53662109375	0.8603515625	0.2021484375	4.375	-6.9375	2.375
18	12	13	19	56	02	0.688672962553	0.650342144465	0.073426710445	-0.58203125	0.8447265625	0.244140625	-0.5625	-2.25	1.0625
18	12	13	19	56	02	0.689426164489	0.649202008456	0.0735509985134	-0.57763671875	0.83251953125	0.23095703125	-1.875	-2.0625	2.625
18	12	13	19	56	02	0.689669875232	0.648530172966	0.0745885996578	-0.6318359375	0.81884765625	0.1826171875	-2.9375	0.5625	2.125
18	12	13	19	56	02	0.689855684455	0.648105437758	0.0750161596351	-0.62255859375	0.87646484375	0.123046875	-4.75	-2.8125	2.5
18	12	13	19	56	02	0.690646228064	0.64669878801	0.0762976389819	-0.6435546875	0.796875	0.115234375	-12.125	-3.5625	2.1875
18	12	13	19	56	02	0.690570961083	0.646197168551	0.0769674723286	-0.6279296875	0.76318359375	0.1201171875	-3.625	-4.5625	2.6875
18	12	13	19	56	02	0.688213729111	0.648477397612	0.0766038341494	-0.62548828125	0.81005859375	0.0927734375	15.75	-1.5	3.5625
18	12	13	19	56	02	0.685451809833	0.651270775682	0.0759307258621	-0.59814453125	0.82568359375	0.06201171875	18.25	-1.75	2.625
18	12	13	19	56	02	0.682752061658	0.65382085504	0.075562940491	-0.61669921875	0.82861328125	0.06005859375	16.75	-1.8125	1.3125
18	12	13	19	56	02	0.680269550208	0.656098465248	0.0748327024276	-0.59619140625	0.84326171875	0.06884765625	16.375	-3.4375	0.6875
18	12	13	19	56	02	0.677938459005	0.658467641645	0.0741600096958	-0.615234375	0.8974609375	0.06103515625	15.1875	-1.1875	2.1875
18	12	13	19	56	02	0.676721516213	0.6595700103	0.0741604259221	-0.63330078125	0.90234375	0.06494140625	5.3125	-1.5625	1.5
18	12	13	19	56	02	0.675743944988	0.660362545464	0.0747096548338	-0.6328125	0.8896484375	0.0908203125	3.9375	1.0625	0.125
18	12	13	19	56	02	0.674887608707	0.660360770426	0.0759301967289	-0.63427734375	0.79345703125	0.119140625	2.1875	-1.5	-3.75
18	12	13	19	56	02	0.673403826547	0.660830529323	0.0767825626571	-0.61572265625	0.75341796875	0.1279296875	8.125	-2.6875	-5.125
18	12	13	19	56	02	0.671287496845	0.662315023483	0.0770900262334	-0.61962890625	0.74951171875	0.0966796875	13.625	-1.5625	-1.0
18	12	13	19	56	02	0.670445680624	0.663182112161	0.0764200648344	-0.6103515625	0.81103515625	0.06298828125	5.4375	-3.375	6.8125
18	12	13	19	56	02	0.670321331207	0.663424016472	0.0759315002752	-0.57958984375	0.78076171875	0.0244140625	-2.125	-4.375	7.0625
18	12	13	19	56	02	0.669871247261	0.663340384076	0.0759899501448	-0.580078125	0.7529296875	0.0341796875	-2.1875	-6.875	0.6875
18	12	13	19	56	02	0.668474361201	0.663896605806	0.0763569599948	-0.57177734375	0.74365234375	0.044921875	4.3125	-5.875	-4.375
18	12	13	19	56	03	0.666458714965	0.66566523907	0.0754412466066	-0.55224609375	0.814453125	0.06884765625	14.8125	-3.4375	-0.75
18	12	13	19	56	03	0.66563051102	0.666546096317	0.0746507212267	-0.54248046875	0.7978515625	0.0751953125	6.9375	-2.5	3.375
18	12	13	19	56	03	0.665205177229	0.666975313964	0.0737963900963	-0.52294921875	0.791015625	0.10693359375	5.625	-2.6875	3.0625
18	12	13	19	56	03	0.66402283529	0.668112322372	0.0725731364243	-0.51708984375	0.81494140625	0.1318359375	13.75	-1.75	1.4375
18	12	13	19	56	03	0.663754166618	0.668270746694	0.0714107930982	-0.4921875	0.8232421875	0.10888671875	4.5625	-5.125	0.25
18	12	13	19	56	03	0.665065180221	0.666774231712	0.0711697870904	-0.4873046875	0.75927734375	0.12646484375	-7.8125	-4.6875	1.4375
18	12	13	19	56	03	0.66561342833	0.666345877769	0.070620333478	-0.50244140625	0.7880859375	0.107421875	-2.125	-2.25	3.625
18	12	13	19	56	03	0.66597620055	0.666708646193	0.0691550760905	-0.5068359375	0.84521484375	0.06298828125	-0.0625	-2.0	9.625
18	12	13	19	56	03	0.667428163274	0.6657801925	0.067871981487	-0.51611328125	0.8544921875	0.05810546875	-9.8125	-5.9375	9.1875
18	12	13	19	56	03	0.667941105834	0.665682692153	0.0663485316679	-0.4970703125	0.849609375	0.04833984375	-3.0625	-6.125	7.0625
18	12	13	19	56	03	0.667380445055	0.666403850294	0.0653708118396	-0.52685546875	0.875	0.0322265625	2.25	-4.125	2.375
18	12	13	19	56	03	0.667214758752	0.667153719986	0.0636023948971	-0.5048828125	0.91796875	0.0419921875	2.5	-4.3125	6.6875
18	12	13	19	56	03	0.667254310037	0.667376383639	0.0621354635581	-0.466796875	0.8798828125	0.04931640625	-0.3125	-5.6875	2.5
18	12	13	19	56	03	0.666777307077	0.668120139442	0.0604884942615	-0.4404296875	0.86669921875	0.0625	5.375	-4.625	1.75
18	12	13	19	56	03	0.666325710703	0.669011277367	0.0592655734261	-0.45751953125	0.88623046875	0.05859375	4.625	-1.4375	1.9375
18	12	13	19	56	03	0.66634126778	0.669637267456	0.0576189572945	-0.4404296875	0.90380859375	0.05859375	2.3125	-2.25	4.625
18	12	13	19	56	03	0.667150662675	0.669348048207	0.0563385234812	-0.40234375	0.8896484375	0.0830078125	-2.9375	-2.1875	2.0625
18	12	13	19	56	03	0.667804438619	0.668903102352	0.0556656291035	-0.4248046875	0.87060546875	0.08251953125	-4.4375	-2.3125	-0.75
18	12	13	19	56	03	0.668836554994	0.667921009427	0.0557872432255	-0.46142578125	0.85986328125	0.1025390625	-7.75	-0.625	-1.0
18	12	13	19	56	03	0.66973681473	0.667295415606	0.056030109899	-0.46875	0.87890625	0.09228515625	-7.375	1.375	0.0
18	12	13	19	56	03	0.671165641167	0.666282660875	0.0561542733607	-0.5048828125	0.91015625	0.1064453125	-10.4375	1.75	3.625
18	12	13	19	56	03	0.672804069508	0.664808303101	0.0568248742368	-0.513671875	0.90185546875	0.1142578125	-13.25	1.0	1.0625
18	12	13	19	56	03	0.674107111301	0.663242291869	0.0575591276672	-0.5498046875	0.921875	0.1494140625	-10.5	-0.9375	-1.8125
18	12	13	19	56	03	0.675206956827	0.661961620574	0.058047533533	-0.51953125	0.935546875	0.12939453125	-9.8125	-1.3125	-3.0
18	12	13	19	56	03	0.676549286512	0.660618272097	0.0593903334334	-0.556640625	0.91064453125	0.1220703125	-13.125	3.0	-0.75
18	12	13	19	56	03	0.678307977821	0.658959140516	0.0607321549475	-0.53759765625	0.919921875	0.09912109375	-17.875	2.4375	-0.75
18	12	13	19	56	03	0.679473251388	0.657926893344	0.0620754847881	-0.54345703125	0.931640625	0.1025390625	-13.5	3.8125	-1.3125
18	12	13	19	56	03	0.680874162715	0.656337057075	0.062929741081	-0.50146484375	0.9443359375	0.13671875	-13.0625	-0.1875	-5.25
18	12	13	19	56	03	0.681587919454	0.65522040972	0.0637825177604	-0.45947265625	0.85107421875	0.13916015625	-8.1875	-0.6875	-7.0625
18	12	13	19	56	03	0.68158787248	0.654976220971	0.0641487287522	-0.41455078125	0.7626953125	0.1357421875	-0.625	0.375	-5.9375
18	12	13	19	56	03	0.680864925673	0.655778822181	0.0645158428002	-0.36962890625	0.7197265625	0.07275390625	2.75	2.9375	-4.9375
18	12	13	19	56	03	0.680358583842	0.656860059147	0.0646362016945	-0.3828125	0.68115234375	0.04443359375	2.125	5.0	2.0625
18	12	13	19	56	03	0.680558399434	0.657364480889	0.063966385884	-0.37548828125	0.7109375	0.009765625	-3.9375	0.4375	5.5
18	12	13	19	56	03	0.681191668104	0.657508660288	0.0632360724153	-0.4111328125	0.7392578125	0.001953125	-7.5625	-0.6875	8.5625
18	12	13	19	56	03	0.68195777676	0.657177068144	0.0624400613644	-0.4462890625	0.77099609375	-0.00048828125	-9.8125	-5.25	7.0625
18	12	13	19	56	03	0.682706059404	0.657009210856	0.0621363226172	-0.47265625	0.853515625	0.0185546875	-10.25	-1.0	5.8125
18	12	13	19	56	03	0.682370127363	0.658505483374	0.0607907555326	-0.498046875	0.96826171875	0.01806640625	1.375	2.1875	9.8125
18	12	13	19	56	03	0.682579013815	0.659201766002	0.0598774937452	-0.517578125	0.97607421875	0.0693359375	-1.4375	2.0	8.5625
18	12	13	19	56	03	0.684352612339	0.657801293541	0.059755726675	-0.4716796875	0.857421875	0.1826171875	-8.6875	1.6875	5.9375
18	12	13	19	56	03	0.683984251833	0.658714799731	0.0592672415251	-0.435546875	0.8359375	0.255859375	13.375	8.9375	3.4375
18	12	13	19	56	03	0.68227004813	0.661273367457	0.0578019087117	-0.43115234375	0.8583984375	0.24560546875	26.6875	9.0625	5.8125
18	12	13	19	56	03	0.682699803787	0.661642009214	0.0568865638918	-0.4208984375	0.8828125	0.2177734375	6.5625	6.9375	6.4375
18	12	13	19	56	03	0.684220718179	0.66096575889	0.0556043777218	-0.3681640625	0.9404296875	0.18798828125	-3.1875	3.0	5.0625
18	12	13	19	56	03	0.687053662136	0.658792659509	0.054690838777	-0.34326171875	0.986328125	0.17578125	-15.875	0.3125	1.75
18	12	13	19	56	03	0.691453605043	0.654707924408	0.054325009577	-0.35302734375	0.9873046875	0.1875	-30.5	-3.0	0.9375
18	12	13	19	56	03	0.695778904213	0.650671385114	0.0540191534546	-0.3349609375	0.95068359375	0.22900390625	-27.75	-1.375	1.1875
18	12	13	19	56	03	0.697113479759	0.649564981315	0.0542016259545	-0.3876953125	0.90087890625	0.18212890625	-8.5625	3.1875	-1.1875
18	12	13	19	56	03	0.696701485041	0.650128571682	0.0543859315903	-0.42333984375	0.91748046875	0.15673828125	3.5	3.4375	-4.0625
18	12	13	19	56	03	0.696265683734	0.650914109875	0.0549346116736	-0.4208984375	0.94775390625	0.0966796875	-0.3125	5.5	-4.5
18	12	13	19	56	03	0.696794218995	0.650284303536	0.0567030334133	-0.4501953125	0.8984375	0.09619140625	-10.9375	4.75	-7.0
18	12	13	19	56	04	0.697982753131	0.648968310563	0.0583534334931	-0.44287109375	0.84716796875	0.07763671875	-16.8125	2.75	-4.3125
18	12	13	19	56	04	0.698271980433	0.648526205603	0.0604273829221	-0.47021484375	0.83447265625	0.0703125	-11.25	5.375	-5.75
18	12	13	19	56	04	0.697519155228	0.649178660746	0.0621346254832	-0.50341796875	0.892578125	0.05859375	-3.1875	4.9375	-6.4375
18	12	13	19	56	04	0.696628832418	0.650239810019	0.0632966002994	-0.45751953125	0.8837890625	0.037109375	-1.5	5.0	-4.875
18	12	13	19	56	04	0.695642711138	0.651268555571	0.0641502579105	-0.47509765625	0.88916015625	0.06640625	1.5	3.4375	-4.875
18	12	13	19	56	04	0.694977278695	0.652250764108	0.0639066582464	-0.40869140625	0.86474609375	0.09228515625	3.375	1.8125	-1.75
18	12	13	19	56	04	0.694984070326	0.652562330569	0.0631748210774	-0.373046875	0.80322265625	0.1455078125	3.375	0.9375	1.3125
18	12	13	19	56	04	0.694792081295	0.653652674917	0.0614039210913	-0.318359375	0.8154296875	0.17041015625	10.0625	3.4375	5.375
18	12	13	19	56	04	0.694420021168	0.655173113055	0.0595722897653	-0.30859375	0.88134765625	0.17578125	12.125	6.0	5.5
18	12	13	19	56	04	0.695299605245	0.655135691607	0.0585978071315	-0.3330078125	0.92626953125	0.15380859375	-1.75	4.4375	2.75
18	12	13	19	56	04	0.69766840377	0.652927289163	0.0593292815805	-0.3681640625	0.9248046875	0.13916015625	-20.0	2.75	-3.5
18	12	13	19	56	04	0.700643294837	0.650226763647	0.0601824452226	-0.38671875	0.91650390625	0.12158203125	-25.5	2.5	0.25
18	12	13	19	56	04	0.703964153757	0.646953617071	0.061588470575	-0.41552734375	0.85302734375	0.1181640625	-30.375	2.0625	1.375
18	12	13	19	56	04	0.705878104786	0.64520859885	0.062866791866	-0.412109375	0.8134765625	0.11865234375	-18.4375	4.6875	1.1875
18	12	13	19	56	04	0.705709320676	0.645587915999	0.0641498439742	-0.43212890625	0.7998046875	0.13330078125	-1.0625	8.125	-1.4375
18	12	13	19	56	04	0.704366477399	0.646808627469	0.0660419868757	-0.47119140625	0.79541015625	0.13232421875	6.5625	9.0	-6.0
18	12	13	19	56	04	0.702228325145	0.649248387185	0.0667132168086	-0.4443359375	0.84814453125	0.14111328125	16.3125	8.8125	-3.5
18	12	13	19	56	04	0.700823045475	0.651383342737	0.0666520436908	-0.419921875	0.87744140625	0.123046875	12.0	8.8125	1.75
18	12	13	19	56	04	0.700836939786	0.652006635672	0.0665923272345	-0.42236328125	0.8544921875	0.11376953125	0.375	5.75	4.3125
18	12	13	19	56	04	0.700712596731	0.652675940492	0.0659817349361	-0.41162109375	0.8291015625	0.11328125	2.625	2.4375	5.6875
18	12	13	19	56	04	0.699544125217	0.654559916136	0.064638096903	-0.39453125	0.8701171875	0.1044921875	12.0	1.8125	4.8125
18	12	13	19	56	04	0.697887648615	0.65674926527	0.0632334794442	-0.42822265625	0.87890625	0.083984375	13.875	0.0	4.5625
18	12	13	19	56	04	0.696623975173	0.6584143363	0.0625026680608	-0.4326171875	0.89599609375	0.0908203125	10.3125	1.5	2.0625
18	12	13	19	56	04	0.695395670469	0.660482449763	0.061403321732	-0.41845703125	0.94580078125	0.12255859375	13.5	5.6875	4.9375
18	12	13	19	56	04	0.694891950839	0.661566434356	0.0606695300074	-0.3857421875	0.9345703125	0.13232421875	7.5625	4.3125	1.5625
18	12	13	19	56	04	0.696055159144	0.660776319966	0.0609139818332	-0.400390625	0.87890625	0.1943359375	-3.625	6.375	2.25
18	12	13	19	56	04	0.696989449997	0.660427870126	0.061098733641	-0.34765625	0.88623046875	0.17822265625	-1.9375	8.375	1.0625
18	12	13	19	56	04	0.697771196375	0.660233645136	0.0618911820438	-0.42236328125	0.90478515625	0.1748046875	-2.625	11.0	2.75
18	12	13	19	56	04	0.700560957113	0.657592241848	0.063049265438	-0.41259765625	0.931640625	0.19873046875	-19.0	5.8125	0.0
18	12	13	19	56	04	0.702863403105	0.655314068236	0.064701277229	-0.42822265625	0.91015625	0.19775390625	-16.9375	7.625	-1.875
18	12	13	19	56	04	0.704847893179	0.652905950237	0.0667127422276	-0.44775390625	0.91748046875	0.20361328125	-16.4375	5.0	-7.4375
18	12	13	19	56	04	0.706451966796	0.650968569714	0.0693389868913	-0.46337890625	0.87158203125	0.17041015625	-16.3125	8.5	-5.9375
18	12	13	19	56	04	0.706978395163	0.650337114777	0.070862636345	-0.46240234375	0.8798828125	0.169921875	-5.25	6.5625	-3.3125
18	12	13	19	56	04	0.706880915848	0.650603892758	0.0716585955622	-0.40771484375	0.87841796875	0.12158203125	-1.3125	5.75	-3.25
18	12	13	19	56	04	0.706617908152	0.651196895748	0.0720839379397	-0.388671875	0.8515625	0.11328125	0.8125	5.6875	-1.1875
18	12	13	19	56	04	0.705898990389	0.65236907992	0.0725736186401	-0.3837890625	0.8232421875	0.08642578125	3.625	6.875	-0.3125
18	12	13	19	56	04	0.704428386954	0.654561131764	0.0722678459538	-0.38134765625	0.888671875	0.05517578125	9.4375	6.25	0.9375
18	12	13	19	56	04	0.70355979058	0.656196001434	0.0717170776379	-0.357421875	0.880859375	0.05810546875	5.5	5.125	2.6875
18	12	13	19	56	04	0.703694652729	0.656268965751	0.0723897873308	-0.3779296875	0.83251953125	0.103515625	-2.3125	5.3125	-2.125
18	12	13	19	56	04	0.702799170965	0.657508482685	0.0731243188133	-0.3623046875	0.83447265625	0.1162109375	6.6875	9.0625	-3.625
18	12	13	19	56	04	0.70154377153	0.659368136753	0.0734869236926	-0.39794921875	0.8984375	0.1259765625	11.25	10.9375	-0.25
18	12	13	19	56	04	0.702280542315	0.658761854094	0.0744639545997	-0.3994140625	0.8408203125	0.14697265625	-5.0625	6.5625	-1.5
18	12	13	19	56	04	0.7027698516	0.658457630629	0.0755016767787	-0.39013671875	0.83740234375	0.14892578125	-2.8125	7.75	-1.9375
18	12	13	19	56	04	0.702615418862	0.658789698183	0.0762982602361	-0.42431640625	0.85302734375	0.1396484375	1.875	7.1875	-0.5625
18	12	13	19	56	04	0.703406778357	0.658177307448	0.0769694504954	-0.42529296875	0.87646484375	0.12353515625	-6.625	4.6875	0.25
18	12	13	19	56	04	0.704079984769	0.658117936349	0.0766034140343	-0.388671875	0.89599609375	0.14111328125	-1.75	5.1875	4.8125
18	12	13	19	56	04	0.704080037233	0.658484216877	0.0769086126497	-0.408203125	0.86572265625	0.1171875	0.5	5.875	1.625
18	12	13	19	56	04	0.703883486731	0.659082023042	0.077029219585	-0.40185546875	0.85009765625	0.12548828125	3.0625	5.8125	2.25
18	12	13	19	56	04	0.702598860918	0.661154622662	0.0766016480281	-0.3740234375	0.88134765625	0.095703125	11.875	8.375	3.8125
18	12	13	19	56	04	0.701483684498	0.66290910096	0.0764777740082	-0.421875	0.88134765625	0.06787109375	8.5625	6.8125	4.75
18	12	13	19	56	05	0.701191252129	0.663714630541	0.0765402010942	-0.439453125	0.89892578125	0.05908203125	0.5	5.25	4.6875
18	12	13	19	56	05	0.700474229088	0.665255195437	0.0762366950271	-0.447265625	0.947265625	0.05908203125	5.375	7.5	7.9375
18	12	13	19	56	05	0.699697260187	0.666735860859	0.075933297712	-0.46923828125	1.0087890625	0.04833984375	4.4375	5.8125	6.5
18	12	13	19	56	05	0.699992200919	0.666970245853	0.0756880300959	-0.47412109375	0.974609375	0.09228515625	-1.4375	4.1875	7.3125
18	12	13	19	56	05	0.699863645145	0.667574453772	0.075870444001	-0.45068359375	0.92626953125	0.1240234375	3.4375	7.25	5.0
18	12	13	19	56	05	0.698390862092	0.669520133393	0.0758085518893	-0.45458984375	0.90771484375	0.1201171875	14.9375	7.875	4.6875
18	12	13	19	56	05	0.696925164131	0.671655675784	0.0754422405733	-0.4326171875	0.9169921875	0.11474609375	15.5	9.0625	6.6875
18	12	13	19	56	05	0.695577219159	0.673603912833	0.0747702784723	-0.40380859375	0.9091796875	0.068359375	12.5625	5.5	5.25
18	12	13	19	56	05	0.695137891029	0.674568791962	0.0738534417548	-0.3828125	0.90234375	0.05419921875	4.5	1.75	5.1875
18	12	13	19	56	05	0.695325082437	0.675000007608	0.0726331502897	-0.34814453125	0.87744140625	0.0390625	-0.25	0.125	7.125
18	12	13	19	56	05	0.695098779543	0.675993939536	0.0710480312072	-0.3330078125	0.88330078125	0.04931640625	4.5	1.4375	8.0625
18	12	13	19	56	05	0.694840726999	0.67714011115	0.0688492919936	-0.29150390625	0.88525390625	0.048828125	6.5	0.125	9.375
18	12	13	19	56	05	0.694415793905	0.678363112724	0.0670184180107	-0.2490234375	0.8427734375	0.06494140625	8.0625	1.875	5.9375
18	12	13	19	56	05	0.693506007188	0.680138834545	0.0653099302668	-0.2255859375	0.85009765625	0.06689453125	12.625	4.625	4.5625
18	12	13	19	56	05	0.692347426625	0.682276252739	0.0637841012804	-0.22998046875	0.9072265625	0.0361328125	12.25	6.5	4.5
18	12	13	19	56	05	0.692663186358	0.682774973793	0.0627474229447	-0.2763671875	0.947265625	0.009765625	-1.875	4.25	4.8125
18	12	13	19	56	05	0.694552955704	0.681612870757	0.0620757848626	-0.287109375	0.9541015625	0.005859375	-15.8125	2.1875	5.625
18	12	13	19	56	05	0.697163712659	0.679463005544	0.0622576595091	-0.31494140625	0.91650390625	0.0205078125	-22.875	2.6875	3.625
18	12	13	19	56	05	0.699494519482	0.677276717991	0.0633573570002	-0.341796875	0.86865234375	0.0546875	-20.3125	4.1875	0.375
18	12	13	19	56	05	0.700383602334	0.676518679588	0.0643925664891	-0.3251953125	0.86181640625	0.08740234375	-7.1875	6.5625	-2.1875
18	12	13	19	56	05	0.700461517444	0.676473945437	0.0660421193687	-0.36962890625	0.8505859375	0.12451171875	0.75	10.5	-3.3125
18	12	13	19	56	05	0.700296542713	0.676918736049	0.0670204483482	-0.3759765625	0.900390625	0.1591796875	6.125	11.125	0.4375
18	12	13	19	56	05	0.700428719257	0.677172654592	0.0673876519442	-0.35986328125	0.94091796875	0.14599609375	4.1875	8.9375	1.9375
18	12	13	19	56	05	0.701949333248	0.676068766526	0.0675092141367	-0.36474609375	0.9619140625	0.16748046875	-5.5	7.0	4.625
18	12	13	19	56	05	0.70392774147	0.674264264287	0.0676888810622	-0.3876953125	0.98486328125	0.16162109375	-10.5	3.1875	3.1875
18	12	13	19	56	05	0.705352633953	0.673063646123	0.0670805248108	-0.3818359375	1.02099609375	0.15185546875	-6.0625	0.125	3.875
18	12	13	19	56	05	0.706426184111	0.672185205255	0.0663457112605	-0.35546875	1.0234375	0.1201171875	-5.625	-1.25	1.8125
18	12	13	19	56	05	0.707673067673	0.670745156172	0.067019581534	-0.38525390625	0.91552734375	0.1171875	-9.5625	0.3125	-1.875
18	12	13	19	56	05	0.7073502891	0.671216768421	0.0672620604529	-0.34228515625	0.92138671875	0.1181640625	4.25	4.4375	-1.625
18	12	13	19	56	05	0.70609057354	0.672946799211	0.0672031225335	-0.3271484375	0.9375	0.08056640625	11.0	7.8125	0.875
18	12	13	19	56	05	0.706382016727	0.672689553819	0.0680563335912	-0.3466796875	0.91796875	0.07958984375	-3.9375	4.4375	-3.4375
18	12	13	19	56	05	0.707322045801	0.671675163272	0.0692184328563	-0.34765625	0.85888671875	0.09912109375	-8.0	4.625	-2.9375
18	12	13	19	56	05	0.706893504701	0.672284350296	0.0698897386135	-0.34716796875	0.96435546875	0.0791015625	2.4375	6.375	-3.125
18	12	13	19	56	05	0.707472191806	0.671949043188	0.0701917885064	-0.37109375	1.01611328125	0.0849609375	-5.1875	4.4375	0.375
18	12	13	19	56	05	0.709605567584	0.669687965554	0.0709849711939	-0.37890625	0.990234375	0.12646484375	-16.625	1.6875	-2.3125
18	12	13	19	56	05	0.710054855407	0.669281482811	0.0719027438898	-0.35791015625	1.03271484375	0.14599609375	-2.1875	6.5	-5.25
18	12	13	19	56	05	0.710233419452	0.669033044914	0.0734892606583	-0.38818359375	1.052734375	0.1396484375	-1.875	8.8125	-7.8125
18	12	13	19	56	05	0.711403246353	0.667394516999	0.0759928821715	-0.3857421875	1.0029296875	0.13134765625	-12.3125	7.0625	-12.625
18	12	13	19	56	05	0.712534333614	0.665597645028	0.0787974836985	-0.3818359375	0.9111328125	0.140625	-11.9375	6.625	-13.875
18	12	13	19	56	05	0.712928304751	0.664585906004	0.0816083170764	-0.37353515625	0.8486328125	0.126953125	-6.75	7.9375	-13.5625
18	12	13	19	56	05	0.713705050638	0.663410604241	0.0837426947298	-0.3515625	0.7880859375	0.10546875	-9.4375	6.1875	-8.3125
18	12	13	19	56	05	0.714638960992	0.662206874599	0.0855760013077	-0.3251953125	0.71044921875	0.09619140625	-9.75	6.3125	-5.0
18	12	13	19	56	05	0.714134323297	0.662741066868	0.0865506384987	-0.31787109375	0.7216796875	0.06103515625	0.9375	5.625	-2.75
18	12	13	19	56	05	0.71304745396	0.66391175798	0.0874066045258	-0.34765625	0.7763671875	0.0087890625	2.9375	4.5	-2.1875
18	12	13	19	56	05	0.712614930244	0.664334124264	0.0880163365663	-0.38037109375	0.80517578125	-0.005859375	-3.9375	0.9375	-0.4375
18	12	13	19	56	05	0.712316536938	0.664645653018	0.0885054823103	-0.4091796875	0.82763671875	0.0009765625	-4.0625	0.1875	1.3125
18	12	13	19	56	05	0.711437616315	0.665843596121	0.0880141594652	-0.40576171875	0.8740234375	0.01318359375	3.5625	-0.1875	5.375
18	12	13	19	56	05	0.711102765941	0.666483356336	0.0872855755619	-0.40283203125	0.84423828125	0.07080078125	3.125	-0.75	7.1875
18	12	13	19	56	05	0.710806759899	0.667041328654	0.0864321487349	-0.35693359375	0.78955078125	0.1328125	7.4375	0.5	5.6875
18	12	13	19	56	05	0.708643458741	0.669884751049	0.0849639702469	-0.33642578125	0.85400390625	0.16650390625	26.6875	5.125	7.0625
18	12	13	19	56	06	0.706996070993	0.67214372216	0.0836212222448	-0.35546875	0.89892578125	0.1474609375	20.5625	4.75	7.0625
18	12	13	19	56	06	0.707992258134	0.671429850804	0.083135223345	-0.3837890625	0.91552734375	0.15869140625	-1.9375	2.25	6.0
18	12	13	19	56	06	0.709875994212	0.669834837531	0.0824628089579	-0.37939453125	0.93359375	0.138671875	-10.25	-0.25	7.3125
18	12	13	19	56	06	0.711977848122	0.66791029507	0.0819094961148	-0.4111328125	0.95849609375	0.1279296875	-13.8125	-1.5	7.3125
18	12	13	19	56	06	0.714422738338	0.665227973101	0.0818488587878	-0.41845703125	0.92431640625	0.123046875	-18.75	-5.25	2.9375
18	12	13	19	56	06	0.715475621958	0.663960400585	0.0820337174468	-0.419921875	0.91162109375	0.1279296875	-7.875	-2.25	0.875
18	12	13	19	56	06	0.714570706411	0.664824817137	0.0824622041822	-0.41455078125	0.9375	0.10888671875	6.9375	2.3125	-2.0625
18	12	13	19	56	06	0.713807463301	0.665650636576	0.0825807180715	-0.4033203125	0.96484375	0.1201171875	7.125	2.4375	-0.875
18	12	13	19	56	06	0.713964159088	0.665499805637	0.0830119907976	-0.3623046875	0.93359375	0.1552734375	1.5	4.125	-2.6875
18	12	13	19	56	06	0.713831161494	0.665611698683	0.0835600564417	-0.37548828125	0.95654296875	0.1826171875	5.4375	5.375	-3.4375
18	12	13	19	56	06	0.714267072316	0.664887302917	0.0844156008386	-0.38671875	0.93701171875	0.181640625	-0.3125	2.875	-5.9375
18	12	13	19	56	06	0.715985308204	0.662637383279	0.0856374584322	-0.39990234375	0.87548828125	0.20703125	-10.1875	1.0	-5.5625
18	12	13	19	56	06	0.717118129223	0.661147636032	0.086244609464	-0.361328125	0.83837890625	0.19580078125	-4.6875	0.5625	-3.875
18	12	13	19	56	06	0.717445433719	0.660374523346	0.0869797297133	-0.39794921875	0.80615234375	0.15771484375	-1.0625	-0.875	-4.3125
18	12	13	19	56	06	0.717545183071	0.659987756426	0.0870990963119	-0.3798828125	0.83642578125	0.11474609375	-1.0625	-3.0	-2.75
18	12	13	19	56	06	0.717291256722	0.660344971619	0.086487551972	-0.36865234375	0.85791015625	0.0751953125	1.0625	-2.875	1.625
18	12	13	19	56	06	0.717193948051	0.660489847818	0.0858801604177	-0.3671875	0.8662109375	0.04296875	-2.5625	-4.5	1.375
18	12	13	19	56	06	0.716827613194	0.6608559748	0.0853918452707	-0.3837890625	0.9013671875	0.0439453125	-0.5	-4.5625	0.0625
18	12	13	19	56	06	0.715654990956	0.662308938752	0.0844137187626	-0.3681640625	0.93408203125	0.05517578125	8.0625	-2.0	1.625
18	12	13	19	56	06	0.71520067827	0.662645605812	0.0841125317621	-0.3681640625	0.8447265625	0.10205078125	3.75	-3.25	-1.5
18	12	13	19	56	06	0.714138195728	0.663538147501	0.0844758344349	-0.36328125	0.80224609375	0.14892578125	11.3125	2.125	-4.0625
18	12	13	19	56	06	0.711401421511	0.666538268803	0.0845380496605	-0.35205078125	0.8466796875	0.13818359375	25.25	7.5	-1.8125
18	12	13	19	56	06	0.709970261963	0.668099594863	0.0844127297365	-0.3759765625	0.8974609375	0.1328125	14.625	3.5	-1.25
18	12	13	19	56	06	0.710403149471	0.667555567125	0.0844744358509	-0.3671875	0.9140625	0.13037109375	-1.625	-0.4375	-2.6875
18	12	13	19	56	06	0.71115482676	0.66653598045	0.0848429498924	-0.3779296875	0.9521484375	0.13720703125	-4.8125	-0.875	-5.8125
18	12	13	19	56	06	0.712603019257	0.66456716691	0.0857565089556	-0.4228515625	0.9443359375	0.14892578125	-11.3125	-1.875	-6.0625
18	12	13	19	56	06	0.713833242495	0.662805915371	0.0869173610358	-0.43896484375	0.90283203125	0.14990234375	-10.0625	-0.625	-5.0625
18	12	13	19	56	06	0.714029838114	0.66196389078	0.088750161106	-0.4638671875	0.8681640625	0.14501953125	-2.875	2.1875	-7.125
18	12	13	19	56	06	0.713386585346	0.662238573837	0.0901498961804	-0.47216796875	0.87060546875	0.125	3.5625	3.75	-3.875
18	12	13	19	56	06	0.712720870787	0.66267110509	0.0909440864497	-0.45654296875	0.896484375	0.1044921875	3.5625	1.625	-2.4375
18	12	13	19	56	06	0.713074150181	0.661926659139	0.0916138234548	-0.47216796875	0.88330078125	0.11279296875	-4.25	-1.8125	-1.5625
18	12	13	19	56	06	0.713633440324	0.661081405418	0.091798211961	-0.451171875	0.904296875	0.119140625	-4.75	-3.3125	-0.9375
18	12	13	19	56	06	0.714138267564	0.660303228932	0.0920444878193	-0.43505859375	0.90576171875	0.1259765625	-4.25	-2.1875	-2.125
18	12	13	19	56	06	0.714753848074	0.659270393941	0.092960726782	-0.4580078125	0.88232421875	0.15283203125	-4.75	0.25	-2.9375
18	12	13	19	56	06	0.714994868394	0.658718167979	0.093753808934	-0.4326171875	0.88037109375	0.1806640625	0.75	2.125	-3.8125
18	12	13	19	56	06	0.714825552063	0.658547765452	0.0945491230591	-0.42333984375	0.88330078125	0.20947265625	5.3125	3.0625	-5.5
18	12	13	19	56	06	0.714873389707	0.658047303145	0.0955850177836	-0.4296875	0.85498046875	0.2060546875	3.125	2.625	-5.9375
18	12	13	19	56	06	0.715241193334	0.657133187185	0.0966228715692	-0.42236328125	0.86181640625	0.19091796875	-0.875	1.25	-7.625
18	12	13	19	56	06	0.715897650764	0.656081835456	0.0975364008799	-0.4033203125	0.8193359375	0.16015625	-4.375	1.0625	-4.875
18	12	13	19	56	06	0.716316177627	0.655158303565	0.0987559283742	-0.416015625	0.79052734375	0.10888671875	-6.5625	0.1875	-5.8125
18	12	13	19	56	06	0.7161476772	0.6549885557	0.0997345354594	-0.4619140625	0.78076171875	0.04833984375	-4.5	-1.125	-1.1875
18	12	13	19	56	06	0.715586925668	0.655405357201	0.100221232681	-0.49951171875	0.80078125	0.01806640625	-2.4375	-2.25	3.375
18	12	13	19	56	06	0.714258212338	0.657127321315	0.0989414255853	-0.45166015625	0.8876953125	-0.021484375	4.875	-5.875	6.4375
18	12	13	19	56	06	0.712151595758	0.660206707784	0.0966870770275	-0.44140625	0.92236328125	-0.04736328125	12.5	-3.75	13.5
18	12	13	19	56	06	0.711259285289	0.661270324966	0.0960105428439	-0.552734375	0.84765625	-0.0390625	-0.375	-6.4375	11.8125
18	12	13	19	56	06	0.708389461501	0.664565264244	0.0946065539657	-0.55419921875	0.8876953125	-0.044921875	16.9375	-4.8125	12.375
18	12	13	19	56	06	0.704194221272	0.669768847189	0.0915568459659	-0.548828125	0.9970703125	-0.064453125	30.4375	-5.125	18.625
18	12	13	19	56	06	0.703338370042	0.67117145856	0.0886878982619	-0.521484375	0.90625	-0.02392578125	5.1875	-11.875	18.6875
18	12	13	19	56	06	0.703590475566	0.671118008055	0.0863084004902	-0.4453125	0.78564453125	0.0390625	-0.125	-12.3125	13.875
18	12	13	19	56	07	0.701695471233	0.673617886267	0.0826457609646	-0.4228515625	0.845703125	0.10107421875	23.5625	-9.6875	16.375
18	12	13	19	56	07	0.700898048171	0.675384211705	0.078067456554	-0.42724609375	0.95068359375	0.142578125	19.375	-9.25	22.9375
18	12	13	19	56	07	0.70316386775	0.674109527381	0.0736124674051	-0.3642578125	0.94970703125	0.197265625	-1.8125	-9.75	24.1875
18	12	13	19	56	07	0.706155191147	0.671851516031	0.0706826615393	-0.29345703125	0.91455078125	0.265625	-6.25	-3.75	15.25
18	12	13	19	56	07	0.709638361991	0.668742292618	0.069096045568	-0.29248046875	0.94140625	0.3076171875	-11.25	-0.375	8.0
18	12	13	19	56	07	0.71423854833	0.664433501719	0.0681157255115	-0.318359375	0.9697265625	0.3115234375	-21.625	0.75	9.0
18	12	13	19	56	07	0.719263289127	0.659385718979	0.06726308084	-0.34912109375	0.982421875	0.2939453125	-28.75	-3.0	7.9375
18	12	13	19	56	07	0.724527023992	0.653722361159	0.0664098906574	-0.31640625	0.94189453125	0.28271484375	-32.75	-7.625	4.0625
18	12	13	19	56	07	0.729589052662	0.647736888383	0.0669588547452	-0.2587890625	0.880859375	0.29052734375	-34.8125	-5.3125	-8.375
18	12	13	19	56	07	0.733348649813	0.642710052645	0.0693370009311	-0.2998046875	0.8642578125	0.29443359375	-28.4375	0.8125	-16.25
18	12	13	19	56	07	0.735877136731	0.638826319926	0.0723913639816	-0.39697265625	0.88427734375	0.2744140625	-21.5625	2.375	-16.0
18	12	13	19	56	07	0.738777046058	0.634833117651	0.0740363976263	-0.41845703125	0.85546875	0.29248046875	-21.4375	-1.5	-6.1875
18	12	13	19	56	07	0.741003297856	0.631683948065	0.0755042075328	-0.34521484375	0.78662109375	0.27099609375	-16.0	-0.0625	-8.125
18	12	13	19	56	07	0.741137740432	0.630595782936	0.0778249562717	-0.3916015625	0.6884765625	0.26953125	0.5625	3.8125	-10.6875
18	12	13	19	56	07	0.739720727526	0.631133948562	0.0800819865099	-0.419921875	0.6943359375	0.24853515625	12.1875	3.3125	-12.875
18	12	13	19	56	07	0.737519212367	0.632839459888	0.0815464427479	-0.423828125	0.72265625	0.23583984375	19.3125	3.375	-9.3125
18	12	13	19	56	07	0.734220309538	0.635583679709	0.0831331001406	-0.47998046875	0.794921875	0.1904296875	24.8125	1.8125	-11.8125
18	12	13	19	56	07	0.730366638592	0.638811402265	0.0837425228271	-0.49267578125	0.8896484375	0.14306640625	26.9375	-4.875	-13.75
18	12	13	19	56	07	0.726765028693	0.641923894076	0.0829489942045	-0.43017578125	1.015625	0.1220703125	24.5625	-9.875	-15.8125
18	12	13	19	56	07	0.72531718177	0.64157274237	0.0849652038226	-0.48291015625	0.97021484375	0.140625	1.3125	-10.1875	-28.0625
18	12	13	19	56	07	0.722873909089	0.642486765775	0.0872844456639	-0.55078125	0.97216796875	0.14599609375	9.875	-5.0	-24.0625
18	12	13	19	56	07	0.718179237809	0.647191437914	0.0869188538705	-0.51416015625	1.13330078125	0.07958984375	31.0	-1.4375	-11.875
18	12	13	19	56	07	0.715834043417	0.649487555934	0.0867936570377	-0.4755859375	1.1279296875	0.04638671875	10.5625	-2.4375	-10.3125
18	12	13	19	56	07	0.714923219401	0.650285322249	0.0867942301706	-0.37060546875	1.03564453125	0.03076171875	-1.375	-3.4375	-11.9375
18	12	13	19	56	07	0.713712943758	0.651332491477	0.0875279535917	-0.36083984375	0.99462890625	0.0185546875	-0.625	0.375	-14.5
18	12	13	19	56	07	0.713239174015	0.651406800606	0.0891167474592	-0.41064453125	0.89501953125	-0.0048828125	-8.625	0.5	-11.125
18	12	13	19	56	07	0.713580691804	0.650468688098	0.0905785430363	-0.38037109375	0.86376953125	-0.0439453125	-17.5	-4.25	-13.0625
18	12	13	19	56	07	0.714130901881	0.649676010224	0.0914331701725	-0.40478515625	0.79052734375	-0.04345703125	-17.1875	-3.9375	-3.5
18	12	13	19	56	07	0.715839654413	0.647539469105	0.0919214290199	-0.41064453125	0.7314453125	-0.02978515625	-24.8125	-8.8125	0.0
18	12	13	19	56	07	0.717615902865	0.646019113373	0.0907014741564	-0.40234375	0.6748046875	0.029296875	-16.875	-8.6875	12.9375
18	12	13	19	56	07	0.719064886227	0.644906169924	0.0891125315246	-0.3876953125	0.6240234375	0.11474609375	-7.375	-6.875	14.875
18	12	13	19	56	07	0.719920241484	0.644540716411	0.0878308798216	-0.4052734375	0.65771484375	0.224609375	3.3125	0.625	14.9375
18	12	13	19	56	07	0.720237999238	0.644551972199	0.0876493022801	-0.42626953125	0.68115234375	0.28857421875	9.25	6.4375	10.625
18	12	13	19	56	07	0.720307207739	0.644437208653	0.0887489772098	-0.44873046875	0.75244140625	0.3349609375	10.3125	11.0	1.875
18	12	13	19	56	07	0.721349420583	0.643342603905	0.090031341628	-0.46484375	0.81201171875	0.35546875	2.625	11.6875	2.625
18	12	13	19	56	07	0.723864981703	0.640851542533	0.0900329579232	-0.45947265625	0.84033203125	0.31298828125	-10.0625	2.9375	8.75
18	12	13	19	56	07	0.726564680221	0.637941367412	0.0889895248457	-0.4443359375	0.82080078125	0.25927734375	-14.25	-7.0625	8.4375
18	12	13	19	56	07	0.728232537803	0.635944582296	0.0869777358452	-0.39697265625	0.80322265625	0.20263671875	-8.375	-14.0	4.8125
18	12	13	19	56	07	0.728404050645	0.635629276305	0.0849621617645	-0.40283203125	0.83154296875	0.177734375	1.8125	-12.625	3.0
18	12	13	19	56	07	0.727116780155	0.63702827453	0.0828863080206	-0.3955078125	0.85302734375	0.142578125	12.25	-10.125	1.375
18	12	13	19	56	07	0.726144225419	0.638069406786	0.0816050121363	-0.38525390625	0.81396484375	0.16943359375	10.75	-5.0625	0.9375
18	12	13	19	56	07	0.724887389084	0.639617291193	0.0808143232694	-0.353515625	0.8056640625	0.20166015625	15.25	1.4375	-0.375
18	12	13	19	56	07	0.722989225674	0.64187038389	0.0803253542411	-0.35400390625	0.80859375	0.2421875	22.3125	5.8125	-1.375
18	12	13	19	56	07	0.722802444157	0.641989200105	0.0808742812454	-0.349609375	0.767578125	0.26708984375	8.75	6.1875	-3.75
18	12	13	19	56	07	0.723892869289	0.640883231664	0.0815447616669	-0.39208984375	0.80224609375	0.3056640625	-0.1875	7.4375	0.9375
18	12	13	19	56	07	0.724555673554	0.640265269613	0.0817879372051	-0.42724609375	0.89501953125	0.2255859375	-2.0	3.125	1.4375
18	12	13	19	56	07	0.726420553189	0.638097677762	0.081791743658	-0.50830078125	0.99462890625	0.162109375	-17.625	-5.4375	2.6875
18	12	13	19	56	07	0.730320921428	0.633514487547	0.0816079458378	-0.5107421875	1.0205078125	0.1591796875	-36.4375	-12.25	3.4375
18	12	13	19	56	07	0.732411744872	0.630781146055	0.0814875972502	-0.53857421875	1.041015625	0.12890625	-24.375	-11.875	0.6875
18	12	13	19	56	07	0.732379415886	0.630509156272	0.0809957067157	-0.494140625	1.0537109375	0.11669921875	-6.8125	-9.0625	-3.1875
18	12	13	19	56	07	0.732024677021	0.631068384535	0.0805697134719	-0.41943359375	0.9912109375	0.1396484375	-0.75	-1.5	-1.4375
18	12	13	19	56	08	0.729822773644	0.633872167291	0.0807523232861	-0.3955078125	0.9287109375	0.14599609375	16.25	7.6875	-2.6875
18	12	13	19	56	08	0.725781850736	0.638744181983	0.0808119729522	-0.3955078125	0.90771484375	0.14599609375	33.0625	10.8125	-3.3125
18	12	13	19	56	08	0.722429925744	0.642716045799	0.0804463198826	-0.39013671875	0.8955078125	0.15087890625	28.125	7.25	-2.625
18	12	13	19	56	08	0.720000115493	0.645412107598	0.0800813963655	-0.3798828125	0.85693359375	0.14599609375	20.75	2.875	-3.6875
18	12	13	19	56	08	0.71816516393	0.647300829804	0.0796537089009	-0.40869140625	0.85400390625	0.13623046875	14.8125	-0.6875	-2.5
18	12	13	19	56	08	0.716885722401	0.64876784533	0.0786773687676	-0.4169921875	0.87744140625	0.09521484375	9.0625	-3.625	1.5
18	12	13	19	56	08	0.716010665189	0.649664778814	0.077942683441	-0.44189453125	0.8779296875	0.09033203125	5.125	-4.6875	1.5
18	12	13	19	56	08	0.714315074179	0.65144704663	0.0772727406572	-0.45361328125	0.89306640625	0.0712890625	10.3125	-3.375	0.5625
18	12	13	19	56	08	0.711893632108	0.653784848967	0.0771528381192	-0.46484375	0.892578125	0.06640625	15.125	-1.625	-3.0
18	12	13	19	56	08	0.709211330078	0.656412655448	0.0772142467121	-0.46435546875	0.88134765625	0.06982421875	17.375	0.3125	-3.5625
18	12	13	19	56	08	0.706813070742	0.658837675785	0.0772123086778	-0.4423828125	0.8623046875	0.0869140625	17.5	1.875	-2.5625
18	12	13	19	56	08	0.705068286452	0.660631466044	0.077031960653	-0.42041015625	0.84619140625	0.1162109375	14.375	1.625	-1.625
18	12	13	19	56	08	0.704185029798	0.661520096468	0.0765405241715	-0.400390625	0.82568359375	0.1376953125	9.9375	-0.5625	-0.125
18	12	13	19	56	08	0.704247667353	0.661460562585	0.0756861767653	-0.38427734375	0.83349609375	0.16650390625	4.375	-2.4375	1.25
18	12	13	19	56	08	0.705106449558	0.660610033203	0.0747100323977	-0.37451171875	0.8388671875	0.169921875	-1.1875	-4.0625	1.9375
18	12	13	19	56	08	0.706951311941	0.658608587104	0.0739179795165	-0.3828125	0.8447265625	0.18798828125	-9.375	-5.3125	2.125
18	12	13	19	56	08	0.709325333001	0.656099991776	0.0734900353613	-0.412109375	0.84765625	0.16845703125	-15.5	-5.0	4.0
18	12	13	19	56	08	0.711857837865	0.653385763041	0.0734257891582	-0.4248046875	0.83984375	0.1484375	-19.3125	-4.375	4.5
18	12	13	19	56	08	0.714081426837	0.650907285733	0.0736116078952	-0.43408203125	0.8115234375	0.13720703125	-17.9375	-4.1875	4.0625
18	12	13	19	56	08	0.715440137111	0.649334713641	0.0736742808202	-0.435546875	0.80908203125	0.1416015625	-11.0	-3.4375	3.1875
18	12	13	19	56	08	0.715656835942	0.649187727683	0.0733052332594	-0.4287109375	0.85302734375	0.12890625	-1.875	-2.0625	3.5
18	12	13	19	56	08	0.715647641813	0.649240423536	0.072938075221	-0.42822265625	0.86767578125	0.1416015625	1.0	-1.5	2.375
18	12	13	19	56	08	0.71547422923	0.649554406029	0.0724507686484	-0.416015625	0.89306640625	0.162109375	3.25	-0.375	1.6875
18	12	13	19	56	08	0.715054903033	0.649988874298	0.0722684596834	-0.43017578125	0.8984375	0.181640625	6.0625	0.875	0.0625
18	12	13	19	56	08	0.714750897593	0.650234100091	0.0720244286217	-0.44140625	0.88671875	0.20068359375	6.125	-0.5625	0.5
18	12	13	19	56	08	0.714082489666	0.650786178718	0.0713533148491	-0.4267578125	0.87939453125	0.1845703125	8.625	-2.8125	-0.3125
18	12	13	19	56	08	0.713084454624	0.651743200075	0.0704966656759	-0.4169921875	0.888671875	0.14697265625	9.75	-3.6875	-0.8125
18	12	13	19	56	08	0.712492779229	0.652309631768	0.0697050247477	-0.419921875	0.89697265625	0.10888671875	3.8125	-4.625	0.0625
18	12	13	19	56	08	0.7122958099	0.652541088573	0.0689101944625	-0.41064453125	0.9072265625	0.08203125	-1.0625	-5.0	0.9375
18	12	13	19	56	08	0.712102435099	0.652836860017	0.0681157381993	-0.4150390625	0.9404296875	0.07373046875	-1.375	-4.75	1.0
18	12	13	19	56	08	0.711879290158	0.6531002662	0.067446335902	-0.40966796875	0.95361328125	0.08251953125	-1.375	-4.3125	-0.75
18	12	13	19	56	08	0.711993805164	0.652849184743	0.0673235462577	-0.40283203125	0.94189453125	0.125	-2.125	-2.375	-3.75
18	12	13	19	56	08	0.712127621054	0.652493723242	0.0677519207482	-0.39892578125	0.93896484375	0.18212890625	-0.125	1.0	-5.875
18	12	13	19	56	08	0.712672018431	0.651573637954	0.068850123055	-0.4111328125	0.91845703125	0.2275390625	-2.0625	3.6875	-7.625
18	12	13	19	56	08	0.714141756931	0.649502772265	0.0709258736371	-0.43017578125	0.89697265625	0.2666015625	-9.125	6.25	-9.0
18	12	13	19	56	08	0.716069118712	0.646854800555	0.0733037002705	-0.45947265625	0.890625	0.28076171875	-13.1875	6.125	-8.5625
18	12	13	19	56	08	0.718293373431	0.643705125442	0.0756258913733	-0.47998046875	0.8759765625	0.25439453125	-18.1875	2.75	-7.6875
18	12	13	19	56	08	0.720737742986	0.640106428751	0.0777625240993	-0.50439453125	0.82958984375	0.20654296875	-23.0625	-2.875	-6.4375
18	12	13	19	56	08	0.722185140109	0.637649438701	0.0789203335159	-0.48095703125	0.8046875	0.13671875	-17.6875	-7.375	-5.375
18	12	13	19	56	08	0.722258457405	0.637049904499	0.0791047883713	-0.46630859375	0.8115234375	0.08203125	-7.75	-7.875	-2.5625
18	12	13	19	56	08	0.721529748888	0.63766358909	0.0786168950653	-0.443359375	0.81396484375	0.05322265625	-0.25	-6.9375	0.4375
18	12	13	19	56	08	0.719632996803	0.639856887658	0.0775787564831	-0.423828125	0.81103515625	0.052734375	11.0625	-4.375	1.9375
18	12	13	19	56	08	0.716325880643	0.643814365118	0.0760516400206	-0.4189453125	0.8388671875	0.068359375	25.4375	-1.0625	3.1875
18	12	13	19	56	08	0.712507044734	0.648416202879	0.0742232987575	-0.41162109375	0.88232421875	0.08544921875	31.6875	0.9375	3.1875
18	12	13	19	56	08	0.709485225331	0.65211116203	0.0725110502144	-0.4033203125	0.89892578125	0.13671875	28.4375	2.0625	2.625
18	12	13	19	56	08	0.707668121609	0.654382433308	0.0712917341763	-0.39501953125	0.8955078125	0.1962890625	21.5625	2.875	1.875
18	12	13	19	56	08	0.70706235969	0.655363307665	0.0702545559395	-0.404296875	0.9072265625	0.2421875	14.0	3.125	3.125
18	12	13	19	56	08	0.707502784362	0.655070302974	0.0696454729494	-0.4326171875	0.89990234375	0.23779296875	4.6875	1.5625	3.75
18	12	13	19	56	08	0.708522629982	0.653772044258	0.0697047590834	-0.46435546875	0.86962890625	0.1943359375	-5.25	-2.5	0.9375
18	12	13	19	56	09	0.709441946115	0.652310597791	0.0697661657411	-0.470703125	0.85986328125	0.138671875	-8.5625	-6.875	-0.8125
18	12	13	19	56	09	0.710166412989	0.651021483536	0.0697043441026	-0.44873046875	0.822265625	0.0849609375	-10.3125	-9.125	-1.8125
18	12	13	19	56	09	0.710705420546	0.650157518006	0.0693371141996	-0.41357421875	0.79296875	0.060546875	-9.125	-8.4375	0.0625
18	12	13	19	56	09	0.710404651404	0.650588811695	0.0683609596677	-0.375	0.7822265625	0.04833984375	-0.6875	-5.5625	2.75
18	12	13	19	56	09	0.70889008007	0.652613461005	0.0668361148335	-0.37060546875	0.79150390625	0.0498046875	11.25	-2.625	5.625
18	12	13	19	56	09	0.706900536842	0.655322007041	0.0648851800935	-0.361328125	0.8349609375	0.06787109375	17.5625	-1.125	6.375
18	12	13	19	56	09	0.705270565461	0.65760147748	0.0629891149767	-0.35888671875	0.8798828125	0.099609375	16.3125	-0.5625	5.0625
18	12	13	19	56	09	0.704607275705	0.658646665985	0.0617080696239	-0.36962890625	0.9248046875	0.1494140625	9.75	-0.1875	2.1875
18	12	13	19	56	09	0.705478037003	0.657929378859	0.0611601482157	-0.38525390625	0.94140625	0.20654296875	-0.875	0.625	1.0625
18	12	13	19	56	09	0.707197943863	0.656169333379	0.0614662808105	-0.42236328125	0.955078125	0.22412109375	-9.0625	1.8125	0.0
18	12	13	19	56	09	0.709121717054	0.653822674563	0.0625623825082	-0.46142578125	0.9287109375	0.21630859375	-13.5	1.0	-2.4375
18	12	13	19	56	09	0.710678382654	0.651592522102	0.0640910677477	-0.48193359375	0.9208984375	0.1796875	-14.75	-0.875	-5.9375
18	12	13	19	56	09	0.711760286028	0.649623936558	0.0659206850965	-0.5	0.90087890625	0.13330078125	-15.25	-2.6875	-8.0625
18	12	13	19	56	09	0.712628019346	0.647987927484	0.0673257991725	-0.49658203125	0.890625	0.11083984375	-14.0625	-4.125	-6.0625
18	12	13	19	56	09	0.713055769162	0.647133818238	0.0679362327579	-0.46875	0.86474609375	0.10546875	-8.5	-3.625	-2.6875
18	12	13	19	56	09	0.71252587662	0.647340195942	0.0682984800357	-0.43701171875	0.82958984375	0.1025390625	0.1875	-2.5	-3.6875
18	12	13	19	56	09	0.710915171758	0.648900076497	0.0681189432198	-0.412109375	0.8359375	0.10888671875	11.0	-1.125	-3.375
18	12	13	19	56	09	0.708953250441	0.651028443324	0.0673246177561	-0.40234375	0.8662109375	0.1025390625	14.875	-0.9375	-1.875
18	12	13	19	56	09	0.708033450729	0.652123223068	0.0664086546891	-0.400390625	0.89208984375	0.14453125	9.25	-1.4375	0.0625
18	12	13	19	56	09	0.708028520693	0.652301793159	0.0654316012227	-0.400390625	0.9306640625	0.17626953125	4.125	-1.5	0.9375
18	12	13	19	56	09	0.708820688496	0.65132399612	0.0651262959292	-0.41796875	0.96142578125	0.22119140625	-2.375	-1.625	-2.875
18	12	13	19	56	09	0.710456086853	0.649115161829	0.0659186059967	-0.41796875	0.94140625	0.24609375	-10.3125	-0.8125	-7.625
18	12	13	19	56	09	0.711946778243	0.646819273751	0.0676910988573	-0.4228515625	0.9130859375	0.23974609375	-12.125	1.5	-11.8125
18	12	13	19	56	09	0.713470693804	0.644375918769	0.0698882662679	-0.4306640625	0.85888671875	0.19873046875	-15.6875	1.3125	-12.375
18	12	13	19	56	09	0.715286944211	0.641493795004	0.0724503458297	-0.427734375	0.8017578125	0.16748046875	-21.0	0.5	-12.0625
18	12	13	19	56	09	0.716631939481	0.639237399045	0.0747699621723	-0.427734375	0.76611328125	0.12744140625	-18.5	0.0625	-10.125
18	12	13	19	56	09	0.717455111429	0.637737876826	0.0765431946343	-0.439453125	0.767578125	0.1015625	-14.9375	-0.8125	-7.1875
18	12	13	19	56	09	0.718068476074	0.636580766489	0.0778253406149	-0.44384765625	0.75927734375	0.0966796875	-12.25	-1.75	-4.4375
18	12	13	19	56	09	0.7178893769	0.636469173806	0.0785515752483	-0.46142578125	0.77392578125	0.10302734375	-4.0	-1.625	-1.6875
18	12	13	19	56	09	0.71682373415	0.637597132743	0.0782500023144	-0.48193359375	0.833984375	0.12060546875	6.25	-2.0	1.5
18	12	13	19	56	09	0.715363551486	0.63924935791	0.0772739126434	-0.4951171875	0.88525390625	0.15625	12.6875	-2.5	2.875
18	12	13	19	56	09	0.714196878385	0.640585953222	0.076357601475	-0.49609375	0.92822265625	0.21142578125	13.0	-1.0	1.875
18	12	13	19	56	09	0.713301791487	0.641580962717	0.0756883639777	-0.51318359375	0.9677734375	0.24755859375	12.5625	0.6875	1.1875
