18	12	03	12	52	41	0.446525560528	0.024474678755	0.225337940058	-0.31982421875	-0.279296875	0.83837890625	-9.8125	4.3125	-1.25
18	12	03	12	52	41	0.446030984635	0.0256339646342	0.227165753258	-0.31689453125	-0.3076171875	0.84130859375	-8.75	5.6875	-3.4375
18	12	03	12	52	41	0.445625063211	0.027039022463	0.228336304817	-0.3427734375	-0.3154296875	0.8583984375	-5.0	4.0625	-3.5
18	12	03	12	52	41	0.445563112435	0.0283817599017	0.228763088412	-0.3544921875	-0.31298828125	0.87548828125	-2.25	1.25	-2.0625
18	12	03	12	52	41	0.445564809692	0.0291143033183	0.228886032376	-0.3564453125	-0.33251953125	0.8828125	-0.6875	-2.75	-2.1875
18	12	03	12	52	41	0.44568026663	0.0292969772641	0.228455387291	-0.33349609375	-0.34228515625	0.90771484375	0.5	-4.8125	-1.75
18	12	03	12	52	41	0.445372836658	0.0300292497787	0.227355600459	-0.32080078125	-0.34814453125	0.92724609375	5.875	-2.5	-3.4375
18	12	03	12	52	41	0.444878464823	0.0317377969142	0.225338358091	-0.3388671875	-0.3232421875	0.92333984375	12.0	-0.9375	-4.6875
18	12	03	12	52	41	0.444641425516	0.033874535506	0.223083652747	-0.3466796875	-0.279296875	0.92578125	12.0625	-0.1875	-3.5
18	12	03	12	52	41	0.444260938493	0.0359485771084	0.221245487297	-0.34765625	-0.27099609375	0.9130859375	9.8125	0.6875	-3.9375
18	12	03	12	52	41	0.443975053922	0.037842250953	0.220156450302	-0.3515625	-0.259765625	0.9052734375	4.625	1.3125	-3.5625
18	12	03	12	52	41	0.443603251217	0.0393066171964	0.219970572012	-0.35400390625	-0.26953125	0.9052734375	-0.0625	1.4375	-3.875
18	12	03	12	52	41	0.443409136575	0.0402821789593	0.220270278582	-0.33544921875	-0.27880859375	0.90673828125	-3.5625	1.75	-2.875
18	12	03	12	52	41	0.443102582049	0.0410144538756	0.221001990303	-0.3173828125	-0.2919921875	0.91552734375	-5.8125	2.875	-3.0625
18	12	03	12	52	41	0.442733327231	0.0418075998281	0.221854927555	-0.3212890625	-0.29638671875	0.91552734375	-5.8125	3.8125	-3.0625
18	12	03	12	52	41	0.442375675166	0.0429070225775	0.222530589356	-0.3291015625	-0.291015625	0.89990234375	-4.1875	4.125	-3.0625
18	12	03	12	52	41	0.441841112139	0.0440071062097	0.223026305257	-0.33447265625	-0.28857421875	0.88720703125	-3.1875	3.0	-4.0625
18	12	03	12	52	41	0.441392154344	0.0451645733151	0.223137405459	-0.3271484375	-0.2822265625	0.86376953125	-0.8125	3.0	-3.875
18	12	03	12	52	41	0.440904722202	0.046324291826	0.223381960584	-0.34130859375	-0.283203125	0.8603515625	-1.125	2.375	-4.0625
18	12	03	12	52	41	0.440365498514	0.0476070809205	0.223387072011	-0.34765625	-0.296875	0.86962890625	1.25	2.0625	-4.1875
18	12	03	12	52	42	0.440051551492	0.0489488688345	0.222833316851	-0.341796875	-0.291015625	0.89501953125	3.125	1.75	-2.6875
18	12	03	12	52	42	0.439999118914	0.0505367277653	0.22180008297	-0.34619140625	-0.271484375	0.90576171875	4.5	1.5625	-1.5625
18	12	03	12	52	42	0.440056776634	0.0520621956267	0.220638730587	-0.34423828125	-0.2568359375	0.8994140625	4.625	0.75	-0.875
18	12	03	12	52	42	0.440126862092	0.0529787985433	0.219727735894	-0.31494140625	-0.27099609375	0.900390625	2.8125	0.3125	-0.5625
18	12	03	12	52	42	0.440178730306	0.0538932083833	0.218746612509	-0.30322265625	-0.2802734375	0.90625	4.0	1.125	-0.1875
18	12	03	12	52	42	0.440137086285	0.0552994314484	0.217596548691	-0.3291015625	-0.279296875	0.9111328125	6.0	1.5625	-0.6875
18	12	03	12	52	42	0.440182175446	0.0566401911833	0.216306937019	-0.35693359375	-0.27685546875	0.9208984375	6.25	-0.5	-0.75
18	12	03	12	52	42	0.440604983345	0.0574330640432	0.215023044234	-0.33056640625	-0.25830078125	0.93115234375	3.6875	-1.6875	1.125
18	12	03	12	52	42	0.441046784563	0.0579232491766	0.214114602857	-0.31298828125	-0.267578125	0.93017578125	1.25	-1.1875	1.25
18	12	03	12	52	42	0.441350045404	0.0581671405434	0.213686420821	-0.28369140625	-0.26025390625	0.9140625	-1.3125	0.1875	1.125
18	12	03	12	52	42	0.441573547401	0.0580423557123	0.213920564429	-0.26171875	-0.26953125	0.9150390625	-5.6875	1.8125	0.875
18	12	03	12	52	42	0.441520216502	0.0575550959581	0.214595670614	-0.234375	-0.28466796875	0.912109375	-7.25	3.1875	-0.4375
18	12	03	12	52	42	0.44139760582	0.056700549752	0.215571950187	-0.2080078125	-0.3046875	0.92822265625	-9.1875	4.125	-0.3125
18	12	03	12	52	42	0.441094713415	0.0557242940844	0.216671680175	-0.1865234375	-0.31591796875	0.9453125	-9.75	5.75	-0.625
18	12	03	12	52	42	0.440905215744	0.0548079850136	0.217828172064	-0.1865234375	-0.32080078125	0.95166015625	-9.9375	6.0	0.0
18	12	03	12	52	42	0.440843692164	0.0535872576104	0.218987562991	-0.18505859375	-0.32666015625	0.96142578125	-11.3125	4.6875	0.25
18	12	03	12	52	42	0.440787230086	0.0515736928029	0.220271547131	-0.1591796875	-0.33984375	0.96484375	-12.8125	2.6875	0.25
18	12	03	12	52	42	0.440545247383	0.0493156774571	0.221493308777	-0.1357421875	-0.357421875	0.95849609375	-12.5	2.5625	-0.375
18	12	03	12	52	42	0.440131849075	0.0474861431951	0.222843070444	-0.146484375	-0.361328125	0.9365234375	-11.25	4.0	-1.3125
18	12	03	12	52	42	0.439457092542	0.0460819590097	0.22448933144	-0.19970703125	-0.353515625	0.91064453125	-11.625	3.0625	-3.75
18	12	03	12	52	42	0.438593187918	0.0445551109352	0.226315549791	-0.2421875	-0.36279296875	0.90673828125	-12.4375	0.6875	-5.6875
18	12	03	12	52	42	0.437624028279	0.0429079068173	0.228211470256	-0.25439453125	-0.36962890625	0.90625	-13.125	-0.875	-6.8125
18	12	03	12	52	42	0.436528353515	0.0417485170308	0.2297999512	-0.26123046875	-0.3857421875	0.89990234375	-9.0625	0.5	-7.1875
18	12	03	12	52	42	0.435411226859	0.0415636452889	0.230705696317	-0.27783203125	-0.37744140625	0.890625	-3.5625	2.5625	-6.6875
18	12	03	12	52	42	0.434382431747	0.0422358638147	0.231076561275	-0.283203125	-0.3603515625	0.890625	-0.125	4.875	-5.625
18	12	03	12	52	42	0.43353108286	0.0432127279551	0.231322371398	-0.2939453125	-0.3466796875	0.89892578125	0.75	5.6875	-4.625
18	12	03	12	52	42	0.433111946871	0.0441901140833	0.231631882522	-0.296875	-0.333984375	0.90185546875	-1.375	5.125	-2.25
18	12	03	12	52	42	0.432915472116	0.0446770232044	0.232235072804	-0.28076171875	-0.341796875	0.8974609375	-3.6875	4.4375	-0.75
18	12	03	12	52	42	0.43275355041	0.0445571356558	0.23285681168	-0.24609375	-0.3681640625	0.90283203125	-3.8125	3.5625	-0.1875
18	12	03	12	52	42	0.432554005173	0.044311303479	0.233397278931	-0.2158203125	-0.38037109375	0.9052734375	-3.0	4.75	0.625
18	12	03	12	52	42	0.432299748376	0.0445544001574	0.234124217813	-0.2353515625	-0.3740234375	0.904296875	-3.1875	6.25	0.125
18	12	03	12	52	42	0.43201013434	0.0444949686259	0.235231288181	-0.2666015625	-0.36767578125	0.900390625	-6.1875	4.25	-1.125
18	12	03	12	52	42	0.43163913762	0.043884126124	0.23651041548	-0.2783203125	-0.3837890625	0.8974609375	-7.9375	1.0	-2.25
18	12	03	12	52	42	0.431143530978	0.0429068378083	0.2374219048	-0.2548828125	-0.40380859375	0.88330078125	-4.9375	-0.375	-3.25
18	12	03	12	52	42	0.430347024244	0.0426013647599	0.237603313768	-0.2607421875	-0.3994140625	0.8720703125	0.5625	0.8125	-4.1875
18	12	03	12	52	42	0.429430992646	0.0430285460227	0.237175787013	-0.27783203125	-0.36279296875	0.841796875	4.4375	1.3125	-5.625
18	12	03	12	52	42	0.428709943326	0.0430907203855	0.236815857076	-0.25830078125	-0.35986328125	0.84521484375	2.4375	0.875	-4.125
18	12	03	12	52	42	0.42828438624	0.0430908902217	0.236450578922	-0.216796875	-0.3779296875	0.87353515625	2.8125	3.25	-1.4375
18	12	03	12	52	42	0.428032714219	0.0437615080701	0.2357140086	-0.25439453125	-0.3466796875	0.89111328125	3.875	3.4375	-0.5625
18	12	03	12	52	42	0.428046781549	0.0441901996067	0.2350503573	-0.30517578125	-0.31689453125	0.89892578125	1.0625	-1.0625	-1.3125
18	12	03	12	52	42	0.42821419049	0.0435172060746	0.234309332567	-0.26416015625	-0.34423828125	0.90771484375	-0.5	-4.25	-0.625
18	12	03	12	52	42	0.428344601299	0.0425414914656	0.233276298969	-0.1875	-0.37646484375	0.91455078125	2.75	-1.6875	1.1875
18	12	03	12	52	42	0.428284211534	0.0425415555706	0.232239051573	-0.18310546875	-0.37255859375	0.90185546875	5.5	3.375	1.5
18	12	03	12	52	42	0.428224521114	0.0429079017022	0.231812532952	-0.25927734375	-0.33447265625	0.9248046875	0.25	2.5625	-0.25
18	12	03	12	52	42	0.428149052042	0.0422350882414	0.232415052057	-0.31005859375	-0.34521484375	0.94970703125	-8.0625	-3.0	-2.625
18	12	03	12	52	42	0.428026783618	0.040587168274	0.23339147591	-0.2861328125	-0.380859375	0.93310546875	-9.625	-5.75	-2.9375
18	12	03	12	52	42	0.427676033186	0.0396120658681	0.233399907365	-0.24853515625	-0.404296875	0.8974609375	-0.625	-3.0625	-2.5625
18	12	03	12	52	42	0.427128405562	0.0397953301553	0.232302187992	-0.22998046875	-0.39306640625	0.8818359375	8.25	1.125	-2.3125
18	12	03	12	52	42	0.426749090348	0.0405265154449	0.231135412635	-0.2646484375	-0.34765625	0.90869140625	6.5625	1.8125	-2.0
18	12	03	12	52	43	0.426583645287	0.0404671565067	0.231083943491	-0.3056640625	-0.32177734375	0.958984375	-4.8125	-1.375	-2.875
18	12	03	12	52	43	0.426571129979	0.0391842417294	0.232114752799	-0.31640625	-0.3564453125	0.97509765625	-11.625	-5.5	-3.1875
18	12	03	12	52	43	0.426640682743	0.0379032709561	0.232363530644	-0.2548828125	-0.390625	0.9296875	-4.6875	-4.25	-0.875
18	12	03	12	52	43	0.426509697329	0.0382686863517	0.230771775272	-0.19775390625	-0.41015625	0.87548828125	12.375	1.75	1.625
18	12	03	12	52	43	0.426697011011	0.0398559788571	0.228027468622	-0.185546875	-0.35986328125	0.8642578125	18.75	5.3125	3.9375
18	12	03	12	52	43	0.426929268188	0.0412586397849	0.226495284381	-0.232421875	-0.29541015625	0.86572265625	7.9375	4.375	2.625
18	12	03	12	52	43	0.42687560033	0.0406490062653	0.227353676184	-0.28125	-0.314453125	0.8671875	-8.4375	-2.25	-2.125
18	12	03	12	52	43	0.426825005158	0.0382085590203	0.229190318085	-0.2607421875	-0.392578125	0.90478515625	-14.625	-7.375	-2.625
18	12	03	12	52	43	0.426633122181	0.0368039732011	0.229612847732	-0.240234375	-0.4345703125	0.89892578125	-1.3125	-4.25	-1.375
18	12	03	12	52	43	0.4263347228	0.0374149155442	0.228151638343	-0.26416015625	-0.39453125	0.87060546875	11.5	-0.875	-1.4375
18	12	03	12	52	43	0.426148516644	0.0383301730811	0.226257884732	-0.2607421875	-0.33935546875	0.8955078125	10.8125	-0.0625	-0.9375
18	12	03	12	52	43	0.42607570321	0.0385122143999	0.225275092472	-0.25390625	-0.33154296875	0.9208984375	3.3125	-0.5	-1.0625
18	12	03	12	52	43	0.425889808562	0.0383288621061	0.224968448604	-0.2578125	-0.33984375	0.9267578125	-0.75	-1.0	-1.9375
18	12	03	12	52	43	0.425720441632	0.037841817034	0.224548459464	-0.24365234375	-0.3564453125	0.93115234375	0.0625	-1.6875	-1.75
18	12	03	12	52	43	0.42548240256	0.037903395781	0.22326992233	-0.2265625	-0.35791015625	0.9384765625	5.875	-0.1875	-1.0625
18	12	03	12	52	43	0.425353888233	0.0383911028409	0.221801697494	-0.22802734375	-0.3408203125	0.9404296875	6.875	1.625	-0.3125
18	12	03	12	52	43	0.425230366123	0.0388182162845	0.221251625836	-0.25830078125	-0.31298828125	0.93896484375	0.4375	1.75	-1.25
18	12	03	12	52	43	0.424790858526	0.0386950293543	0.22173350417	-0.27490234375	-0.33447265625	0.91748046875	-4.25	0.125	-3.625
18	12	03	12	52	43	0.424385303585	0.0382087156687	0.222416229867	-0.26318359375	-0.36279296875	0.8994140625	-4.25	-0.6875	-2.9375
18	12	03	12	52	43	0.424013553238	0.038391323591	0.22265746973	-0.23046875	-0.3623046875	0.8798828125	0.0625	3.125	-1.5625
18	12	03	12	52	43	0.423341981476	0.0391847681816	0.222596338876	-0.2333984375	-0.35009765625	0.85986328125	3.125	5.5625	-2.5625
18	12	03	12	52	43	0.422859871374	0.0392463766301	0.223209952311	-0.25537109375	-0.34326171875	0.90869140625	-4.1875	2.5625	-2.8125
18	12	03	12	52	43	0.422497091627	0.0383921800973	0.224493542763	-0.27099609375	-0.35986328125	0.9580078125	-10.1875	-0.4375	-3.3125
18	12	03	12	52	43	0.422120599141	0.0372315739555	0.225952929153	-0.283203125	-0.36181640625	0.93994140625	-11.8125	-2.625	-4.0
18	12	03	12	52	43	0.421693108861	0.0361329165503	0.226929364415	-0.24560546875	-0.3935546875	0.91748046875	-6.25	-1.6875	-3.3125
18	12	03	12	52	43	0.421067144276	0.0357653785397	0.226859918144	-0.20458984375	-0.40673828125	0.89111328125	2.3125	1.8125	-2.4375
18	12	03	12	52	43	0.420520165792	0.0365590100595	0.226311868615	-0.23046875	-0.3701171875	0.88037109375	6.0	4.5625	-1.8125
18	12	03	12	52	43	0.420156446855	0.0372916311778	0.226374239016	-0.2822265625	-0.3359375	0.87939453125	-0.125	2.3125	-2.4375
18	12	03	12	52	43	0.41991974909	0.0364378038092	0.227598945401	-0.2958984375	-0.3701171875	0.8974609375	-8.4375	-3.375	-3.0
18	12	03	12	52	43	0.419860912575	0.0353393615904	0.228332559084	-0.2392578125	-0.39111328125	0.89599609375	-5.4375	-2.6875	-1.25
18	12	03	12	52	43	0.419563498652	0.0355841605636	0.227604347756	-0.20556640625	-0.3671875	0.845703125	5.875	1.75	-0.4375
18	12	03	12	52	43	0.419067734071	0.0368652652751	0.226013373036	-0.19970703125	-0.34521484375	0.80908203125	12.875	5.125	-1.0625
18	12	03	12	52	43	0.418866670941	0.0377791737305	0.224477869113	-0.17529296875	-0.33740234375	0.86767578125	9.5	5.5	0.9375
18	12	03	12	52	43	0.418690519741	0.0383901365768	0.223688156684	-0.20361328125	-0.32470703125	0.931640625	2.5625	5.1875	0.3125
18	12	03	12	52	43	0.418517825525	0.0386962667906	0.223632683787	-0.31494140625	-0.30908203125	0.94091796875	-3.375	-1.4375	-3.1875
18	12	03	12	52	43	0.418585324982	0.0372319988683	0.223941317783	-0.29150390625	-0.3544921875	0.9697265625	-7.5625	-7.9375	-2.75
18	12	03	12	52	43	0.418571992764	0.0355828917733	0.223384878028	-0.1767578125	-0.41748046875	0.9912109375	0.3125	-3.25	0.25
18	12	03	12	52	43	0.418331500511	0.0360714789615	0.221555784484	-0.1826171875	-0.3984375	0.98388671875	11.375	4.0	0.75
18	12	03	12	52	43	0.41826912118	0.0379634311066	0.219663004104	-0.27734375	-0.294921875	0.943359375	9.75	4.0625	-0.1875
18	12	03	12	52	43	0.418345295198	0.038453098333	0.219304733826	-0.3251953125	-0.28125	0.92919921875	-2.5625	-2.75	-2.1875
18	12	03	12	52	43	0.418436407314	0.0372906424838	0.220081926017	-0.25830078125	-0.34716796875	0.9013671875	-7.5625	-4.5625	-1.25
18	12	03	12	52	43	0.418088386725	0.0362546717832	0.220518735947	-0.19873046875	-0.396484375	0.8857421875	-1.875	-0.875	-1.5625
18	12	03	12	52	43	0.417609529734	0.0371710323894	0.219730240725	-0.240234375	-0.38232421875	0.89599609375	8.3125	3.6875	-1.375
18	12	03	12	52	43	0.417613216177	0.0390024620195	0.218145225755	-0.3076171875	-0.30859375	0.9345703125	9.25	2.5625	-0.125
18	12	03	12	52	43	0.417918143643	0.0401010983458	0.216619175083	-0.3076171875	-0.2490234375	0.9140625	3.875	-2.1875	-0.3125
18	12	03	12	52	43	0.418018777941	0.0396718069297	0.215692562599	-0.24609375	-0.27783203125	0.8583984375	0.625	-4.9375	-1.3125
18	12	03	12	52	43	0.417840610636	0.0388177955542	0.214901663752	-0.17041015625	-0.35986328125	0.84130859375	4.8125	-2.125	-0.5625
18	12	03	12	52	43	0.417841897116	0.0388789495271	0.213620601797	-0.1416015625	-0.36328125	0.88525390625	8.4375	3.5	2.6875
18	12	03	12	52	43	0.418082371079	0.039488948042	0.213069424443	-0.2255859375	-0.31103515625	0.9658203125	0.8125	4.0625	1.8125
18	12	03	12	52	43	0.418388531935	0.0396721438013	0.213436133651	-0.3447265625	-0.2802734375	0.98779296875	-8.125	-3.3125	-1.25
18	12	03	12	52	43	0.418695736916	0.0378413056687	0.214657858124	-0.32275390625	-0.3251953125	0.98583984375	-14.25	-10.1875	-2.4375
18	12	03	12	52	44	0.418698188821	0.0358273814633	0.214476011008	-0.18701171875	-0.384765625	0.96533203125	-3.25	-5.9375	-0.5
18	12	03	12	52	44	0.418327850831	0.0360101301416	0.213192177262	-0.1669921875	-0.380859375	0.91357421875	9.8125	3.0	-0.4375
18	12	03	12	52	44	0.417975599653	0.0375372362422	0.211978571495	-0.2158203125	-0.3134765625	0.91357421875	8.0	7.0625	-0.1875
18	12	03	12	52	44	0.418024424315	0.0380854490835	0.212399619889	-0.25732421875	-0.26611328125	0.94921875	-6.9375	3.75	-0.625
18	12	03	12	52	44	0.417777922023	0.0372917911404	0.21380220027	-0.279296875	-0.3154296875	0.94921875	-12.25	-1.6875	-3.5625
18	12	03	12	52	44	0.417657058964	0.036193283058	0.214718330182	-0.25390625	-0.38525390625	0.94384765625	-6.0	-3.4375	-1.25
18	12	03	12	52	44	0.417780175545	0.0364375112929	0.213925422247	-0.2529296875	-0.3896484375	0.94873046875	6.3125	-0.625	1.3125
18	12	03	12	52	44	0.418320875877	0.0374743241594	0.212761390912	-0.2509765625	-0.314453125	0.9169921875	5.875	1.5625	3.375
18	12	03	12	52	44	0.418404884559	0.0379036372445	0.213078257038	-0.25244140625	-0.2939453125	0.8779296875	-3.0625	1.875	0.25
18	12	03	12	52	44	0.418260638934	0.0372912958396	0.214165559904	-0.19580078125	-0.34765625	0.8525390625	-5.8125	2.0	-0.1875
18	12	03	12	52	44	0.418100893092	0.0375375254381	0.214482706325	-0.17431640625	-0.3701171875	0.84912109375	1.8125	5.5625	1.5625
18	12	03	12	52	44	0.417963653074	0.0386347827681	0.213681476258	-0.2265625	-0.3427734375	0.84912109375	8.0	4.1875	0.625
18	12	03	12	52	44	0.417972578072	0.0387576791875	0.21356396768	-0.27783203125	-0.287109375	0.91455078125	0.0	-0.5625	0.0625
18	12	03	12	52	44	0.418143236776	0.0379630846993	0.213984847196	-0.2763671875	-0.31201171875	0.95361328125	-7.5625	-4.375	-1.3125
18	12	03	12	52	44	0.418037834981	0.0368659442734	0.21423752384	-0.2333984375	-0.359375	0.9609375	-4.625	-3.1875	-1.6875
18	12	03	12	52	44	0.418072849367	0.0366195196526	0.213430767042	-0.19970703125	-0.3681640625	0.955078125	4.0	0.375	1.125
18	12	03	12	52	44	0.418158701891	0.0379644887719	0.211795459869	-0.22119140625	-0.3251953125	0.9326171875	9.9375	4.4375	1.9375
18	12	03	12	52	44	0.41838864649	0.038756643402	0.210811726473	-0.25	-0.27978515625	0.92529296875	2.8125	1.375	1.125
18	12	03	12	52	44	0.418464503133	0.0386359437694	0.211063338949	-0.27197265625	-0.298828125	0.93017578125	-4.9375	-1.25	-1.1875
18	12	03	12	52	44	0.418383253961	0.0382068441983	0.211480375635	-0.25341796875	-0.353515625	0.923828125	-3.0625	-1.1875	-0.875
18	12	03	12	52	44	0.418391614807	0.0386348493323	0.211057360176	-0.2353515625	-0.33984375	0.9033203125	3.1875	1.5	0.5625
18	12	03	12	52	44	0.418332063087	0.0398556809448	0.209654309411	-0.23046875	-0.29541015625	0.880859375	8.5625	3.4375	0.5
18	12	03	12	52	44	0.418222826897	0.0412607459111	0.208195864353	-0.23779296875	-0.27099609375	0.87451171875	7.8125	3.375	-0.375
18	12	03	12	52	44	0.418323801544	0.0416248661589	0.207330894929	-0.22412109375	-0.26025390625	0.890625	1.1875	1.0625	0.125
18	12	03	12	52	44	0.418144201738	0.0411979763791	0.206966426521	-0.2158203125	-0.30126953125	0.9169921875	-1.0	-1.0625	-1.5625
18	12	03	12	52	44	0.418348247094	0.0403455195986	0.206793676854	-0.21240234375	-0.32421875	0.95849609375	-2.8125	-2.0	0.75
18	12	03	12	52	44	0.418756014706	0.0397332991653	0.20678405157	-0.24267578125	-0.33740234375	0.99560546875	-3.5	-1.875	1.625
18	12	03	12	52	44	0.419176793788	0.0393664868947	0.206841897808	-0.2705078125	-0.32177734375	1.01318359375	-4.5	-2.4375	1.3125
18	12	03	12	52	44	0.419549185716	0.0386346573404	0.207211155878	-0.26318359375	-0.326171875	0.99169921875	-6.3125	-3.125	1.0
18	12	03	12	52	44	0.419613046082	0.0382076751778	0.207395655358	-0.23583984375	-0.3330078125	0.93212890625	-2.6875	-1.0625	0.0625
18	12	03	12	52	44	0.419486913875	0.0383904072207	0.207393646639	-0.21435546875	-0.3232421875	0.88720703125	0.3125	2.25	-0.1875
18	12	03	12	52	44	0.419071999202	0.0390629303072	0.207216638114	-0.2138671875	-0.31298828125	0.8642578125	2.4375	4.75	-1.375
18	12	03	12	52	44	0.418769231157	0.0399786979169	0.206851614107	-0.232421875	-0.30029296875	0.87255859375	3.125	4.125	-1.25
18	12	03	12	52	44	0.418633210902	0.0406487415747	0.206600585931	-0.27490234375	-0.2783203125	0.89111328125	0.1875	0.625	-1.4375
18	12	03	12	52	44	0.418754886093	0.04034353297	0.206417289719	-0.26171875	-0.30029296875	0.91064453125	-1.9375	-3.1875	-0.75
18	12	03	12	52	44	0.419124034477	0.0394282985688	0.20660184312	-0.22412109375	-0.34326171875	0.9384765625	-3.5	-2.9375	1.6875
18	12	03	12	52	44	0.419547686127	0.0388786552317	0.206661109285	-0.20556640625	-0.35986328125	0.97412109375	-1.625	0.1875	3.375
18	12	03	12	52	44	0.419923525379	0.0388185119391	0.206604815902	-0.22412109375	-0.33447265625	0.9814453125	-1.6875	1.375	2.625
18	12	03	12	52	44	0.420230252199	0.0386965838627	0.207032827227	-0.255859375	-0.31689453125	0.97119140625	-5.375	0.3125	1.25
18	12	03	12	52	44	0.420296821223	0.0382698383542	0.207706953619	-0.2236328125	-0.33837890625	0.93603515625	-4.875	1.3125	0.5625
18	12	03	12	52	44	0.419862488419	0.038513334815	0.207825523051	-0.20751953125	-0.35009765625	0.890625	1.5625	3.8125	-1.25
18	12	03	12	52	44	0.419433941409	0.0396118492396	0.207458668052	-0.2421875	-0.3125	0.87890625	4.375	4.5	-2.0
18	12	03	12	52	44	0.419074419863	0.0405890604732	0.207156798866	-0.26416015625	-0.28173828125	0.88427734375	1.4375	3.25	-2.0625
18	12	03	12	52	44	0.418820922133	0.040771258523	0.207457346886	-0.2646484375	-0.29638671875	0.88818359375	-2.75	0.125	-2.25
18	12	03	12	52	44	0.418820965819	0.0402219493551	0.207823577472	-0.2392578125	-0.34033203125	0.92578125	-3.25	-1.125	-0.5
18	12	03	12	52	44	0.419126121986	0.0400388431662	0.207762533747	-0.2236328125	-0.34521484375	0.95556640625	-0.75	0.5625	2.4375
18	12	03	12	52	44	0.419560947771	0.0401006026601	0.207583180589	-0.2509765625	-0.30712890625	0.96044921875	-1.8125	0.0625	1.9375
18	12	03	12	52	44	0.41985104577	0.0398550273133	0.207697791649	-0.2412109375	-0.3193359375	0.92138671875	-2.875	-0.8125	1.375
18	12	03	12	52	44	0.419913049323	0.0395499499944	0.207881372964	-0.19677734375	-0.34765625	0.9033203125	-0.75	1.8125	1.5
18	12	03	12	52	45	0.419679690229	0.0402833908597	0.207337392046	-0.17822265625	-0.33984375	0.86474609375	6.375	5.9375	1.0
18	12	03	12	52	45	0.419381510771	0.041443755758	0.206608414199	-0.2197265625	-0.28369140625	0.87353515625	4.625	5.5	-0.875
18	12	03	12	52	45	0.419242511463	0.0421744905257	0.206111801021	-0.24462890625	-0.263671875	0.8681640625	1.5	2.1875	-1.3125
18	12	03	12	52	45	0.419073808644	0.0421149035777	0.205813702701	-0.2392578125	-0.28173828125	0.88525390625	-0.9375	-0.875	-1.6875
18	12	03	12	52	45	0.41912224599	0.0414422608165	0.205441310616	-0.19482421875	-0.34423828125	0.9169921875	1.0625	-1.0625	0.5
18	12	03	12	52	45	0.41949022127	0.041259332108	0.204709763151	-0.1923828125	-0.31787109375	0.962890625	1.6875	1.125	3.125
18	12	03	12	52	45	0.419865777024	0.0416264660459	0.204042926674	-0.24951171875	-0.2939453125	0.9775390625	0.4375	0.5	1.6875
18	12	03	12	52	45	0.420525008618	0.0413200915579	0.203914957009	-0.27001953125	-0.28955078125	0.994140625	-4.8125	-2.875	2.375
18	12	03	12	52	45	0.421192672333	0.040709391747	0.203485925164	-0.23291015625	-0.31396484375	0.96826171875	-1.9375	-3.1875	3.3125
18	12	03	12	52	45	0.421512943201	0.0410160292254	0.202089393996	-0.19775390625	-0.32080078125	0.9169921875	7.6875	0.6875	3.0625
18	12	03	12	52	45	0.421746109482	0.0424187476251	0.200070006785	-0.2041015625	-0.26513671875	0.86767578125	11.75	3.625	2.375
18	12	03	12	52	45	0.421865052866	0.0440053100574	0.19842061442	-0.22509765625	-0.2275390625	0.845703125	8.375	4.0625	1.375
18	12	03	12	52	45	0.421997290401	0.0451660391809	0.197509868634	-0.2265625	-0.2255859375	0.82177734375	3.875	3.25	0.75
18	12	03	12	52	45	0.422178786269	0.0455320767033	0.197326010699	-0.19482421875	-0.28271484375	0.85009765625	1.5	3.25	2.125
18	12	03	12	52	45	0.422804282642	0.0455337079329	0.197211005806	-0.1591796875	-0.29833984375	0.9296875	-1.0625	4.9375	5.8125
18	12	03	12	52	45	0.423399154149	0.0464475646976	0.196959646885	-0.208984375	-0.27587890625	0.93408203125	0.5	6.375	5.0625
18	12	03	12	52	45	0.424006603209	0.0468134539602	0.197507610189	-0.29443359375	-0.2470703125	0.93408203125	-6.875	0.0625	2.1875
18	12	03	12	52	45	0.424795604122	0.0455312529706	0.198604151697	-0.2626953125	-0.298828125	0.9541015625	-11.375	-4.75	3.0625
18	12	03	12	52	45	0.425237494729	0.0440069231663	0.199221355361	-0.21484375	-0.34716796875	0.970703125	-6.125	-3.6875	2.3125
18	12	03	12	52	45	0.425289855557	0.0436398172679	0.19872901402	-0.22900390625	-0.32958984375	0.931640625	2.375	-1.8125	0.375
18	12	03	12	52	45	0.425167029851	0.0440669818479	0.198362452916	-0.25732421875	-0.2890625	0.9140625	1.5625	0.75	-0.9375
18	12	03	12	52	45	0.425107828296	0.0445554507762	0.19836330825	-0.26708984375	-0.3037109375	0.9130859375	0.5625	1.3125	-0.5625
18	12	03	12	52	45	0.425161271119	0.0444936213962	0.198603901267	-0.27978515625	-0.2998046875	0.970703125	-3.375	-1.0625	-0.625
18	12	03	12	52	45	0.425537327347	0.04394533501	0.198913676108	-0.30322265625	-0.30224609375	1.01171875	-6.0625	-4.5	0.125
18	12	03	12	52	45	0.425771627101	0.0437612179804	0.198542875998	-0.294921875	-0.298828125	0.9677734375	-0.625	-4.125	-0.125
18	12	03	12	52	45	0.426274220626	0.0437626884577	0.19732883094	-0.21044921875	-0.3017578125	0.88818359375	5.8125	-2.0625	3.5
18	12	03	12	52	45	0.426459026452	0.0444952955895	0.195376462527	-0.17041015625	-0.28466796875	0.8447265625	12.125	2.25	2.75
18	12	03	12	52	45	0.426565616792	0.0452871208555	0.193721457676	-0.17236328125	-0.2392578125	0.84716796875	8.0	3.125	1.5625
18	12	03	12	52	45	0.426402592352	0.0450451063779	0.193669542733	-0.2275390625	-0.24072265625	0.88037109375	-3.4375	-0.5	-2.0625
18	12	03	12	52	45	0.426394213764	0.0436404040712	0.19464230571	-0.23876953125	-0.27587890625	0.9228515625	-10.75	-4.5625	-2.1875
18	12	03	12	52	45	0.426339313715	0.0421151218988	0.195316507357	-0.23486328125	-0.34130859375	0.98486328125	-6.5	-4.3125	-1.25
18	12	03	12	52	45	0.42650791307	0.0417474831912	0.194333313568	-0.22998046875	-0.30517578125	1.02587890625	1.8125	-2.125	0.625
18	12	03	12	52	45	0.427054780096	0.0420524143899	0.192806352769	-0.236328125	-0.25341796875	0.98388671875	3.625	-1.5625	2.5
18	12	03	12	52	45	0.427609240623	0.0419308518853	0.191832121507	-0.20751953125	-0.2685546875	0.95458984375	1.5	-1.125	2.8125
18	12	03	12	52	45	0.428399023837	0.0408318773254	0.191464273796	-0.146484375	-0.29150390625	1.0107421875	-3.75	-0.0625	5.25
18	12	03	12	52	45	0.429188939045	0.0408315415559	0.1908523624	-0.17626953125	-0.26953125	0.99609375	-1.25	2.9375	5.5625
18	12	03	12	52	45	0.429497459375	0.0418694411158	0.190182475972	-0.26318359375	-0.248046875	0.90087890625	2.75	1.125	1.6875
18	12	03	12	52	45	0.429984494578	0.0423575925106	0.189266418408	-0.24560546875	-0.26123046875	0.91845703125	3.75	-0.875	2.3125
18	12	03	12	52	45	0.430660082968	0.0430904221337	0.187803440376	-0.177734375	-0.265625	0.91650390625	6.9375	3.0625	5.375
18	12	03	12	52	45	0.430713938264	0.0451648454464	0.186396537829	-0.24365234375	-0.232421875	0.8896484375	9.6875	6.0625	1.6875
18	12	03	12	52	45	0.431258098935	0.0463239310913	0.185478822907	-0.255859375	-0.22607421875	0.90771484375	3.5	1.75	3.0
18	12	03	12	52	45	0.432000672256	0.0465081254957	0.185055953416	-0.21728515625	-0.2490234375	0.95068359375	-0.875	1.25	4.75
18	12	03	12	52	45	0.432735242179	0.0469355996101	0.184080323048	-0.19140625	-0.2861328125	0.96240234375	5.0	2.9375	5.625
18	12	03	12	52	45	0.433708924595	0.047606664957	0.183102557527	-0.21875	-0.23388671875	0.9931640625	1.5625	2.4375	6.5
18	12	03	12	52	45	0.434563181419	0.0482780163626	0.182370054225	-0.25732421875	-0.2080078125	0.95458984375	-0.4375	0.5625	4.3125
18	12	03	12	52	45	0.434942508009	0.0481574009008	0.182253484271	-0.2431640625	-0.2421875	0.91943359375	-2.3125	-1.375	1.625
18	12	03	12	52	45	0.435367452003	0.0477909315741	0.181947339748	-0.19580078125	-0.25732421875	0.9248046875	-0.9375	-0.125	2.625
18	12	03	12	52	45	0.435610679433	0.0485842932364	0.181458673105	-0.2060546875	-0.23486328125	0.861328125	2.75	3.875	2.25
18	12	03	12	52	45	0.435673773798	0.0496831678161	0.181581602276	-0.2392578125	-0.21044921875	0.7998046875	0.0625	3.9375	0.75
18	12	03	12	52	45	0.435845277777	0.0496208109274	0.182187110232	-0.20751953125	-0.234375	0.8251953125	-4.1875	2.0	1.3125
18	12	03	12	52	46	0.436286602634	0.0490120511912	0.182925426426	-0.20654296875	-0.26123046875	0.91162109375	-6.625	0.625	2.5625
18	12	03	12	52	46	0.436811640578	0.0489482933832	0.183098354301	-0.2548828125	-0.24951171875	0.9208984375	-3.375	-1.1875	2.4375
18	12	03	12	52	46	0.437752276534	0.0480355607407	0.183780271144	-0.2822265625	-0.255859375	0.9189453125	-8.25	-6.1875	3.875
18	12	03	12	52	46	0.438588212124	0.0466297514699	0.184077657635	-0.21630859375	-0.29296875	0.93701171875	-5.0625	-5.0625	4.5625
18	12	03	12	52	46	0.438844506353	0.0461427603342	0.183472404186	-0.22412109375	-0.3134765625	0.970703125	2.6875	-2.375	1.625
18	12	03	12	52	46	0.43944057151	0.0465074604848	0.18267300424	-0.24853515625	-0.24560546875	0.95458984375	2.0	-0.75	3.125
18	12	03	12	52	46	0.439824103099	0.0465703289848	0.182741238507	-0.25537109375	-0.22705078125	0.89599609375	-3.3125	-1.0625	1.1875
18	12	03	12	52	46	0.440126331677	0.0460817335204	0.1830451905	-0.17724609375	-0.271484375	0.8603515625	-2.4375	0.9375	2.75
18	12	03	12	52	46	0.440617974993	0.0461431208055	0.182985550496	-0.14501953125	-0.28515625	0.8564453125	1.8125	4.6875	5.0
18	12	03	12	52	46	0.441022626735	0.0473614113405	0.182793075986	-0.18798828125	-0.25244140625	0.85986328125	3.25	7.9375	4.5625
18	12	03	12	52	46	0.44163251661	0.0478496259014	0.183830450529	-0.2578125	-0.232421875	0.89501953125	-7.25	3.125	3.6875
18	12	03	12	52	46	0.442323790117	0.0468752133034	0.185425648458	-0.2509765625	-0.28662109375	0.91015625	-10.75	-1.9375	3.5
18	12	03	12	52	46	0.442935249185	0.0459597964223	0.185914395621	-0.20654296875	-0.31982421875	0.9072265625	-2.875	-1.875	4.0625
18	12	03	12	52	46	0.443416567957	0.0464473514405	0.184995955606	-0.2099609375	-0.31396484375	0.8759765625	8.4375	1.1875	4.625
18	12	03	12	52	46	0.444090457668	0.0468138236711	0.184997000713	-0.263671875	-0.26220703125	0.951171875	-1.3125	0.5625	4.0625
18	12	03	12	52	46	0.444341306499	0.0457769203124	0.186891906662	-0.30029296875	-0.32177734375	1.00927734375	-12.25	-2.4375	0.375
18	12	03	12	52	46	0.444687685807	0.044676281363	0.188226300169	-0.24853515625	-0.33984375	1.013671875	-8.6875	-1.125	1.875
18	12	03	12	52	46	0.44493663661	0.045836407969	0.187312830968	-0.21630859375	-0.34375	0.9208984375	11.375	5.25	4.5
18	12	03	12	52	46	0.445503177589	0.0493782806781	0.184024123912	-0.19189453125	-0.2294921875	0.787109375	25.125	9.875	7.125
18	12	03	12	52	46	0.44610515601	0.052551175171	0.181457193709	-0.201171875	-0.16357421875	0.73046875	17.5625	8.5	5.875
18	12	03	12	52	46	0.446297041322	0.0541391514842	0.180728328686	-0.17041015625	-0.171875	0.73974609375	4.8125	8.0625	3.0625
18	12	03	12	52	46	0.446346740534	0.0544429498915	0.18121201595	-0.16357421875	-0.2373046875	0.779296875	-0.8125	6.375	1.875
18	12	03	12	52	46	0.44647139706	0.055053615878	0.181579276316	-0.22900390625	-0.26123046875	0.8486328125	0.125	4.375	1.875
18	12	03	12	52	46	0.446900788386	0.0551759509288	0.181641183589	-0.2978515625	-0.23193359375	0.94482421875	-3.125	-1.9375	1.5625
18	12	03	12	52	46	0.447515876519	0.054871354745	0.181643105363	-0.326171875	-0.27001953125	0.95166015625	-1.625	-6.0625	2.0625
18	12	03	12	52	46	0.448548464454	0.0533448575225	0.181946247454	-0.25390625	-0.330078125	1.00634765625	-4.0	-6.0625	5.875
18	12	03	12	52	46	0.449468599532	0.0530402244694	0.180300141637	-0.14404296875	-0.31005859375	0.98681640625	8.875	1.5625	8.0
18	12	03	12	52	46	0.450068338056	0.0551141455472	0.177671403862	-0.2509765625	-0.203125	0.908203125	14.8125	3.0	4.8125
18	12	03	12	52	46	0.450619813945	0.0563961408756	0.175841214137	-0.26904296875	-0.18505859375	0.89794921875	8.1875	-0.4375	3.0
18	12	03	12	52	46	0.451346083454	0.056273304793	0.174374004115	-0.16650390625	-0.2060546875	0.87255859375	4.875	-0.25	5.0
18	12	03	12	52	46	0.451352674407	0.056945509834	0.173461027811	-0.22509765625	-0.23095703125	0.84228515625	6.5625	1.25	0.8125
18	12	03	12	52	46	0.451584974139	0.0580426152731	0.172296848492	-0.26123046875	-0.19384765625	0.83740234375	6.625	0.375	1.3125
18	12	03	12	52	46	0.451968742408	0.0583500496614	0.171632154443	-0.29345703125	-0.1982421875	0.88134765625	1.3125	-4.0	1.3125
18	12	03	12	52	46	0.452511393292	0.0577998771848	0.171385485887	-0.28564453125	-0.248046875	0.962890625	-0.9375	-5.125	1.9375
18	12	03	12	52	46	0.453306548491	0.0568235352963	0.170836815569	-0.21533203125	-0.25634765625	1.005859375	-0.9375	-3.1875	4.875
18	12	03	12	52	46	0.454035260314	0.056701002397	0.170225076088	-0.248046875	-0.2783203125	0.9912109375	3.4375	-1.625	4.875
18	12	03	12	52	46	0.4547003136	0.0568833143994	0.168757901625	-0.2353515625	-0.23974609375	0.97705078125	6.6875	-1.625	4.4375
18	12	03	12	52	46	0.455490616506	0.0564556907769	0.1671088447	-0.18408203125	-0.22509765625	0.95849609375	5.4375	-2.375	5.0
18	12	03	12	52	46	0.455763205936	0.0563981789587	0.165776465424	-0.216796875	-0.208984375	0.95751953125	4.0	-1.625	1.5
18	12	03	12	52	46	0.455573296702	0.0561531930554	0.165163630878	-0.24072265625	-0.25146484375	0.9716796875	3.3125	-1.625	-1.25
18	12	03	12	52	46	0.455507087507	0.0562746261131	0.164063118213	-0.2197265625	-0.24658203125	1.01171875	5.4375	0.75	0.25
18	12	03	12	52	46	0.455253251091	0.0579823821607	0.161984465531	-0.26025390625	-0.2333984375	0.99560546875	14.6875	3.6875	-0.25
18	12	03	12	52	46	0.455383016629	0.0603637318651	0.15899648282	-0.26123046875	-0.16796875	0.98193359375	17.0625	4.0	1.875
18	12	03	12	52	46	0.458800555955	0.0624388677321	0.156738037474	-0.17041015625	-0.07861328125	0.93408203125	5.0	7.125	22.5
18	12	03	12	52	46	0.458739485006	0.0642699145439	0.15307592182	-0.20556640625	-0.1142578125	0.8828125	18.3125	1.4375	0.3125
18	12	03	12	52	46	0.458435599968	0.0658570113655	0.149780450316	-0.197265625	-0.1513671875	0.86767578125	19.125	1.625	-0.875
18	12	03	12	52	46	0.457160849589	0.0687877540036	0.146547823747	-0.1953125	-0.14501953125	0.81689453125	23.5	8.3125	-5.3125
18	12	03	12	52	46	0.456595752664	0.0701891612837	0.147458272749	-0.220703125	-0.09619140625	0.8271484375	-5.5625	10.125	-3.5
18	12	03	12	52	46	0.457753073788	0.0694563997294	0.151424716809	-0.22900390625	-0.20849609375	0.9150390625	-22.3125	7.875	7.5625
18	12	03	12	52	46	0.458692955833	0.0684224622074	0.154728761548	-0.26220703125	-0.248046875	0.9775390625	-18.4375	3.4375	5.6875
18	12	03	12	52	47	0.459774151256	0.0683588277454	0.155516333121	-0.30810546875	-0.23046875	1.0244140625	-4.9375	-0.25	6.625
18	12	03	12	52	47	0.46063312902	0.0686646707496	0.153808862479	-0.294921875	-0.17041015625	0.97509765625	5.9375	-5.5	4.4375
18	12	03	12	52	47	0.460820409832	0.0687873644874	0.152101253152	-0.31103515625	-0.1708984375	0.9404296875	6.9375	-7.3125	-0.25
18	12	03	12	52	47	0.460745824566	0.0690294777566	0.149899555588	-0.26171875	-0.15380859375	0.89697265625	9.5625	-5.9375	-1.1875
18	12	03	12	52	47	0.459280043122	0.0707993156175	0.147885122191	-0.36328125	-0.16357421875	0.84619140625	15.75	-4.3125	-9.3125
18	12	03	12	52	47	0.457700594052	0.0737911745845	0.145079918931	-0.44677734375	-0.1298828125	0.82861328125	20.9375	-5.8125	-10.75
18	12	03	12	52	47	0.45671619004	0.0762312603715	0.142575039414	-0.45068359375	-0.11279296875	0.841796875	16.875	-8.3125	-7.4375
18	12	03	12	52	47	0.456431920184	0.0778827400581	0.141971201705	-0.4501953125	-0.1201171875	0.84423828125	5.125	-7.375	-3.5
18	12	03	12	52	47	0.456664179954	0.0792234837718	0.143249242228	-0.41943359375	-0.13720703125	0.826171875	-4.8125	-2.0625	0.0625
18	12	03	12	52	47	0.457570435331	0.0791608449546	0.146786300783	-0.35546875	-0.1689453125	0.8701171875	-19.4375	1.5	4.5
18	12	03	12	52	47	0.458078846012	0.0789812160879	0.150821163024	-0.34228515625	-0.19140625	0.93017578125	-21.3125	5.25	2.0625
18	12	03	12	52	47	0.458557246776	0.0788574421449	0.153747598114	-0.35400390625	-0.19921875	0.9638671875	-16.0	2.25	2.0
18	12	03	12	52	47	0.459159545516	0.0778795135023	0.155636958802	-0.33251953125	-0.18017578125	0.9853515625	-14.8125	-2.6875	1.625
18	12	03	12	52	47	0.459420781859	0.0761123575101	0.157595915871	-0.28125	-0.2109375	0.97509765625	-14.9375	-3.375	-0.3125
18	12	03	12	52	47	0.459471310028	0.074157497567	0.160155780754	-0.259765625	-0.2431640625	0.978515625	-16.8125	-1.1875	-1.25
18	12	03	12	52	47	0.459456996991	0.0732396913375	0.162409015541	-0.2861328125	-0.228515625	0.96240234375	-13.5625	1.6875	-0.6875
18	12	03	12	52	47	0.459406741851	0.0731193406055	0.16412179206	-0.34033203125	-0.22998046875	0.923828125	-8.4375	-0.375	-1.1875
18	12	03	12	52	47	0.459472712735	0.0731201261765	0.164855977298	-0.3515625	-0.22705078125	0.9384765625	-3.375	-2.8125	-0.6875
18	12	03	12	52	47	0.45953513283	0.0737917353687	0.164368191355	-0.33349609375	-0.23828125	0.9208984375	5.8125	-2.0625	0.75
18	12	03	12	52	47	0.459583238643	0.0748272311522	0.163570130088	-0.39404296875	-0.2275390625	0.98388671875	6.6875	-3.375	-0.0625
18	12	03	12	52	47	0.459825975441	0.076535940165	0.162104830206	-0.41259765625	-0.20703125	1.01220703125	10.125	-2.75	1.375
18	12	03	12	52	47	0.460739288852	0.0778172729217	0.160883397193	-0.38818359375	-0.166015625	0.9912109375	5.0	-3.1875	4.9375
18	12	03	12	52	47	0.461121978004	0.0789186919336	0.16040086806	-0.3662109375	-0.20068359375	0.9599609375	4.125	-0.875	2.25
18	12	03	12	52	47	0.4616727803	0.0800786208029	0.159546886264	-0.29345703125	-0.1796875	0.9462890625	5.125	2.9375	4.4375
18	12	03	12	52	47	0.461850799265	0.0819087845399	0.159484093892	-0.3212890625	-0.16650390625	0.89990234375	2.875	6.0	2.0625
18	12	03	12	52	47	0.461858548645	0.083680199576	0.1597919493	-0.36181640625	-0.1591796875	0.8876953125	1.0625	4.125	0.0625
18	12	03	12	52	47	0.462350338307	0.0842911969904	0.15967108713	-0.32470703125	-0.16796875	0.90625	-0.125	0.125	2.6875
18	12	03	12	52	47	0.462475036743	0.0852682626805	0.159427846902	-0.32275390625	-0.1640625	0.89306640625	2.125	1.375	1.125
18	12	03	12	52	47	0.462579616077	0.0861195194992	0.159177680265	-0.32470703125	-0.1962890625	0.90087890625	3.625	0.8125	1.125
18	12	03	12	52	47	0.462934073389	0.0868497279409	0.158868476339	-0.318359375	-0.1826171875	0.97314453125	1.4375	2.125	2.4375
18	12	03	12	52	47	0.463180679762	0.0882539547946	0.15801486097	-0.341796875	-0.16455078125	0.986328125	5.4375	2.8125	2.0625
18	12	03	12	52	47	0.46355653926	0.0898426893733	0.156919534225	-0.3798828125	-0.1337890625	0.9755859375	5.0625	0.625	2.0
18	12	03	12	52	47	0.46430170946	0.0908217357271	0.155703123548	-0.32470703125	-0.0966796875	0.94287109375	1.8125	-0.375	3.875
18	12	03	12	52	47	0.465070158607	0.0913661453326	0.155389583178	-0.2783203125	-0.12353515625	0.84033203125	-0.375	1.125	4.5
18	12	03	12	52	47	0.465153560264	0.0925302187849	0.155580163379	-0.30615234375	-0.126953125	0.78369140625	-0.25	2.875	0.8125
18	12	03	12	52	47	0.465260837734	0.0935648516655	0.156490723855	-0.3271484375	-0.1689453125	0.814453125	-1.4375	4.125	1.0625
18	12	03	12	52	47	0.465623194425	0.0939913120218	0.157221831018	-0.3671875	-0.1787109375	0.91650390625	-3.25	-0.25	1.9375
18	12	03	12	52	47	0.46575459094	0.0939931948694	0.157408084135	-0.4208984375	-0.20849609375	1.0107421875	-0.6875	-5.375	0.0625
18	12	03	12	52	47	0.466744713687	0.0942400729611	0.155520534912	-0.365234375	-0.146484375	0.96728515625	6.8125	-7.5625	5.0625
18	12	03	12	52	47	0.46759609873	0.094422551199	0.154237742004	-0.32373046875	-0.1435546875	0.8994140625	4.0	-4.9375	4.5625
18	12	03	12	52	47	0.46807886525	0.0950317894373	0.153137289466	-0.25537109375	-0.15771484375	0.85400390625	6.6875	1.4375	4.3125
18	12	03	12	52	47	0.468332627126	0.0957051426214	0.152530071053	-0.26953125	-0.119140625	0.90673828125	1.3125	3.375	1.5625
18	12	03	12	52	47	0.467959207586	0.0967412735129	0.152405652973	-0.36376953125	-0.12353515625	0.94677734375	0.0625	1.75	-3.125
18	12	03	12	52	47	0.468362691573	0.0961870734844	0.152458952769	-0.37109375	-0.11181640625	0.96826171875	-6.6875	-6.3125	-0.125
18	12	03	12	52	47	0.468747042788	0.0942987214983	0.153990727728	-0.31396484375	-0.21484375	0.96484375	-11.125	-4.8125	0.875
18	12	03	12	52	47	0.46946726089	0.0934418066072	0.154841190962	-0.21435546875	-0.2138671875	0.93359375	-5.0	3.5625	5.5625
18	12	03	12	52	47	0.469779685676	0.0941146258688	0.15545392483	-0.287109375	-0.1796875	0.91748046875	-1.875	5.875	2.9375
18	12	03	12	52	47	0.470262481715	0.094296630013	0.155635214585	-0.31201171875	-0.134765625	0.96044921875	-4.0625	1.5625	2.125
18	12	03	12	52	47	0.470937143852	0.0925883420456	0.155941472595	-0.251953125	-0.16650390625	0.9814453125	-8.4375	-3.5625	2.75
18	12	03	12	52	47	0.47144247625	0.090577503205	0.156435404794	-0.22607421875	-0.1962890625	0.98095703125	-8.3125	-2.5625	1.875
18	12	03	12	52	48	0.471362666143	0.0899025258615	0.156917443306	-0.259765625	-0.2099609375	0.9462890625	-2.6875	1.0	-0.25
18	12	03	12	52	48	0.471677690519	0.0892940555421	0.15722589684	-0.2587890625	-0.1875	0.95263671875	-3.875	0.875	1.75
18	12	03	12	52	48	0.472150094306	0.0887417576423	0.157953004662	-0.30224609375	-0.1796875	0.97509765625	-6.625	-0.25	2.25
18	12	03	12	52	48	0.472415521804	0.0884405802448	0.158448410156	-0.326171875	-0.20166015625	0.9365234375	-3.0625	-1.5625	1.3125
18	12	03	12	52	48	0.472767505811	0.0880106820784	0.158443641245	-0.32958984375	-0.20849609375	0.955078125	-0.625	-3.875	1.8125
18	12	03	12	52	48	0.472758887147	0.0889855999819	0.157342165126	-0.3583984375	-0.17626953125	0.9208984375	7.625	-2.25	-0.0625
18	12	03	12	52	48	0.472782200364	0.0901496656259	0.156373353645	-0.369140625	-0.13671875	0.904296875	5.125	-1.8125	-0.4375
18	12	03	12	52	48	0.473155339007	0.0904561677513	0.156680824978	-0.31005859375	-0.1416015625	0.9287109375	-3.875	1.5625	1.8125
18	12	03	12	52	48	0.473448075582	0.0900875801933	0.158141544906	-0.27099609375	-0.197265625	0.96435546875	-8.5625	5.1875	1.9375
18	12	03	12	52	48	0.473877847267	0.0901490958801	0.159118952579	-0.2509765625	-0.19091796875	0.96826171875	-5.5	7.0625	3.6875
18	12	03	12	52	48	0.474487109367	0.0899657832786	0.159728938155	-0.25439453125	-0.18798828125	0.9775390625	-5.0625	4.75	4.25
18	12	03	12	52	48	0.475386126941	0.0898405929974	0.158929962069	-0.224609375	-0.17236328125	0.9501953125	1.5625	2.3125	6.4375
18	12	03	12	52	48	0.476139140223	0.0891120554705	0.158204416287	-0.23779296875	-0.13427734375	0.94775390625	-2.875	-1.4375	3.8125
18	12	03	12	52	48	0.476200925399	0.0885018382247	0.158021558044	-0.26025390625	-0.18212890625	0.87744140625	-0.5	-1.875	-0.125
18	12	03	12	52	48	0.47625733309	0.087402345378	0.158508303734	-0.29248046875	-0.1982421875	0.91357421875	-4.5625	-4.0625	-0.4375
18	12	03	12	52	48	0.476507859793	0.087342480769	0.158388356112	-0.29638671875	-0.189453125	0.9169921875	0.4375	-1.0	1.4375
18	12	03	12	52	48	0.47667492985	0.0877057457355	0.158505095111	-0.3349609375	-0.171875	0.9248046875	-1.0625	-0.25	0.5625
18	12	03	12	52	48	0.477001244104	0.0875875604977	0.159366634467	-0.33056640625	-0.193359375	0.96337890625	-5.0625	0.375	1.75
18	12	03	12	52	48	0.4776670682	0.0870982502327	0.159669952774	-0.2578125	-0.18115234375	0.98095703125	-4.9375	1.9375	3.9375
18	12	03	12	52	48	0.478032054011	0.0870369904264	0.159608506287	-0.2724609375	-0.17041015625	0.9580078125	-2.125	1.6875	2.1875
18	12	03	12	52	48	0.478464075964	0.0873430402736	0.158755588925	-0.28662109375	-0.14208984375	0.943359375	1.4375	0.25	2.4375
18	12	03	12	52	48	0.478807954756	0.0869727642482	0.158137847135	-0.2919921875	-0.158203125	0.94775390625	-0.5	-3.0625	1.1875
18	12	03	12	52	48	0.479434601186	0.0861212249871	0.158204263052	-0.2734375	-0.1484375	0.953125	-6.125	-2.3125	2.5625
18	12	03	12	52	48	0.479124518319	0.0857541335336	0.159057133088	-0.31787109375	-0.193359375	0.89794921875	-4.375	-1.25	-2.75
18	12	03	12	52	48	0.479418906072	0.0847756665225	0.159785957492	-0.2890625	-0.2060546875	0.9150390625	-5.625	-2.5	1.1875
18	12	03	12	52	48	0.479798111303	0.0837403649292	0.160705816952	-0.25537109375	-0.22216796875	0.94091796875	-6.1875	-0.0625	2.375
18	12	03	12	52	48	0.480346695792	0.0830688504414	0.161376958536	-0.26708984375	-0.2138671875	0.93212890625	-4.6875	0.375	3.4375
18	12	03	12	52	48	0.480776986668	0.0823979855277	0.162354549262	-0.330078125	-0.19140625	0.93701171875	-7.625	-2.9375	1.5
18	12	03	12	52	48	0.481320508677	0.0809321575585	0.163146046119	-0.30322265625	-0.22119140625	0.95166015625	-7.5625	-5.625	1.6875
18	12	03	12	52	48	0.481563929441	0.0800165160327	0.16320683743	-0.27001953125	-0.20947265625	0.96240234375	-3.0625	-2.25	1.375
18	12	03	12	52	48	0.4816879162	0.0803830443026	0.162963347219	-0.2646484375	-0.1943359375	0.89404296875	1.9375	2.1875	1.375
18	12	03	12	52	48	0.48169046788	0.0806276112607	0.163452492775	-0.28759765625	-0.18408203125	0.90771484375	-2.75	2.5	-0.3125
18	12	03	12	52	48	0.482107979756	0.0800766767235	0.164181600904	-0.2275390625	-0.2060546875	0.94091796875	-5.5625	3.5625	3.3125
18	12	03	12	52	48	0.482303015435	0.0797734802801	0.164918090066	-0.27880859375	-0.2080078125	0.9501953125	-4.875	2.0	1.0
18	12	03	12	52	48	0.482594641402	0.0795881386605	0.164913459096	-0.306640625	-0.19775390625	0.94287109375	-1.5	-1.5	1.5625
18	12	03	12	52	48	0.483041170004	0.0792250996545	0.164553827942	-0.28173828125	-0.20703125	0.951171875	0.1875	-2.125	2.5625
18	12	03	12	52	48	0.483508990104	0.0797100152834	0.163448254923	-0.2587890625	-0.201171875	0.900390625	6.8125	0.875	3.9375
18	12	03	12	52	48	0.48401481144	0.0805674087138	0.162965894898	-0.2841796875	-0.1708984375	0.896484375	2.5625	2.4375	3.75
18	12	03	12	52	48	0.484300402264	0.0810524176694	0.163020337044	-0.29541015625	-0.1923828125	0.88525390625	0.9375	1.375	2.125
18	12	03	12	52	48	0.484921444122	0.0805048942476	0.1632680759	-0.28125	-0.1982421875	0.9326171875	-3.6875	-1.25	3.6875
18	12	03	12	52	48	0.485349281629	0.0802608532875	0.163390345438	-0.283203125	-0.232421875	0.921875	0.6875	-0.75	3.375
18	12	03	12	52	48	0.486069624431	0.0805029927956	0.162836986185	-0.28173828125	-0.20068359375	0.92626953125	2.75	-0.1875	4.9375
18	12	03	12	52	48	0.486571653866	0.0809935505118	0.161926065944	-0.2841796875	-0.189453125	0.91015625	5.125	-0.125	3.875
18	12	03	12	52	48	0.487069138485	0.0815444071448	0.160708401207	-0.28173828125	-0.162109375	0.91845703125	5.125	-0.4375	3.25
18	12	03	12	52	48	0.487431487149	0.081848938676	0.159486410709	-0.2900390625	-0.16064453125	0.93798828125	4.5625	-1.875	1.8125
18	12	03	12	52	48	0.487913634953	0.0819089439714	0.158690949572	-0.2802734375	-0.173828125	0.93212890625	2.5	-1.5	3.0625
18	12	03	12	52	48	0.488220835043	0.0820923894402	0.157959185034	-0.27587890625	-0.18994140625	0.93408203125	3.8125	-0.4375	2.5
18	12	03	12	52	48	0.488875930347	0.0823948197214	0.156916356669	-0.263671875	-0.16455078125	0.955078125	3.625	0.875	4.375
18	12	03	12	52	48	0.489377614003	0.0833736369079	0.155699961751	-0.31494140625	-0.150390625	0.94580078125	5.9375	-0.4375	3.3125
18	12	03	12	52	48	0.49005190301	0.0836182721539	0.154419144927	-0.30419921875	-0.13232421875	0.92431640625	3.5	-3.6875	3.375
18	12	03	12	52	49	0.490180580245	0.0837414713107	0.153200505095	-0.3037109375	-0.16552734375	0.93701171875	5.3125	-3.6875	0.6875
18	12	03	12	52	49	0.490291027546	0.0846550050051	0.151426869083	-0.3232421875	-0.15576171875	0.94287109375	9.6875	-2.625	1.0
18	12	03	12	52	49	0.490614551452	0.085451651161	0.150089721575	-0.34912109375	-0.12158203125	0.96240234375	4.9375	-3.3125	1.1875
18	12	03	12	52	49	0.490897464816	0.0856919110532	0.149594639595	-0.3525390625	-0.16064453125	0.986328125	1.6875	-3.5625	1.0625
18	12	03	12	52	49	0.491472232824	0.0857573878686	0.14880890507	-0.32568359375	-0.16455078125	1.02880859375	2.125	-2.5	3.4375
18	12	03	12	52	49	0.492549353095	0.0864250166025	0.147520667463	-0.32177734375	-0.1328125	0.9853515625	4.1875	-2.25	6.5625
18	12	03	12	52	49	0.492976823128	0.0871574722579	0.146361077363	-0.341796875	-0.13671875	0.94384765625	5.6875	-3.0625	2.4375
18	12	03	12	52	49	0.493588242472	0.0875849051499	0.145812082511	-0.3046875	-0.1025390625	0.94677734375	-0.8125	-0.5625	3.3125
18	12	03	12	52	49	0.494209185598	0.0871595303241	0.145998316901	-0.29638671875	-0.1240234375	0.94921875	-5.375	-1.75	2.5
18	12	03	12	52	49	0.495492478273	0.086732546394	0.145449442686	-0.2978515625	-0.1123046875	0.94287109375	-2.875	-5.125	6.9375
18	12	03	12	52	49	0.496767136298	0.0870975185523	0.144165619356	-0.30615234375	-0.10205078125	0.94287109375	2.375	-3.4375	7.125
18	12	03	12	52	49	0.497664110478	0.08709427099	0.142695448896	-0.23779296875	-0.14599609375	0.95556640625	5.625	-1.0	6.4375
18	12	03	12	52	49	0.497370665336	0.0882559801295	0.143248122658	-0.29931640625	-0.18505859375	0.931640625	2.5625	6.8125	-0.1875
18	12	03	12	52	49	0.497606965308	0.0897804300219	0.143734135079	-0.3515625	-0.07958984375	0.93798828125	-3.4375	4.8125	1.0
18	12	03	12	52	49	0.498519509248	0.0901460963711	0.144343614027	-0.36474609375	-0.109375	0.9814453125	-6.6875	-0.4375	4.6875
18	12	03	12	52	49	0.498608722004	0.0911277784248	0.14313103845	-0.3408203125	-0.185546875	0.95751953125	10.875	-1.375	2.0
18	12	03	12	52	49	0.499389290316	0.0937499327702	0.139526267131	-0.28173828125	-0.1064453125	0.888671875	22.5625	1.875	7.375
18	12	03	12	52	49	0.500067931653	0.0961316968575	0.138368607477	-0.30126953125	-0.05615234375	0.8466796875	6.9375	6.0625	5.5625
18	12	03	12	52	49	0.500743552931	0.0961935445415	0.141055381621	-0.30322265625	-0.109375	0.92333984375	-15.9375	7.6875	3.5625
18	12	03	12	52	49	0.500496830037	0.0975968818572	0.141726053579	-0.36279296875	-0.119140625	0.896484375	-0.3125	4.25	-1.1875
18	12	03	12	52	49	0.501035861811	0.0993038551792	0.140929687528	-0.39990234375	-0.10693359375	0.91015625	6.0	-0.6875	3.6875
18	12	03	12	52	49	0.501756511087	0.100583229567	0.139034342812	-0.29052734375	-0.087890625	0.8837890625	9.8125	0.3125	5.75
18	12	03	12	52	49	0.502200956814	0.100769783629	0.138978072274	-0.2822265625	-0.06103515625	0.87744140625	-4.0	0.9375	1.8125
18	12	03	12	52	49	0.502376174279	0.100463027927	0.140867963824	-0.33447265625	-0.10693359375	0.90283203125	-12.1875	1.75	-0.4375
18	12	03	12	52	49	0.502496673038	0.0996082315557	0.142881660583	-0.34423828125	-0.1279296875	0.958984375	-13.9375	0.0625	-0.875
18	12	03	12	52	49	0.502675277579	0.0997294079122	0.142575212291	-0.33935546875	-0.14453125	0.953125	1.75	-1.8125	1.0
18	12	03	12	52	49	0.503406924074	0.099424088181	0.14202569257	-0.29345703125	-0.14306640625	0.94140625	1.375	-2.4375	4.5
18	12	03	12	52	49	0.504462728355	0.0996107891925	0.140871140598	-0.271484375	-0.0576171875	0.89599609375	0.1875	-1.125	5.875
18	12	03	12	52	49	0.505184518902	0.099303517247	0.141173346891	-0.2841796875	-0.03515625	0.884765625	-9.625	-0.625	2.25
18	12	03	12	52	49	0.505064835159	0.0991819162699	0.141662293946	-0.33837890625	-0.08935546875	0.90234375	-5.3125	-1.625	-2.375
18	12	03	12	52	49	0.50513320816	0.0979016029348	0.143678536975	-0.3447265625	-0.14501953125	0.97509765625	-14.0625	-2.0	-1.4375
18	12	03	12	52	49	0.505511532907	0.0975377239296	0.143193679812	-0.3310546875	-0.14599609375	0.96533203125	0.75	-4.0625	2.0625
18	12	03	12	52	49	0.506349657618	0.0982059545693	0.142456617753	-0.34375	-0.10986328125	0.9248046875	2.625	-1.9375	5.25
18	12	03	12	52	49	0.507035651943	0.0991853779231	0.14099582954	-0.30419921875	-0.0771484375	0.904296875	5.5	-0.375	4.4375
18	12	03	12	52	49	0.507147255338	0.0999767967557	0.140504631338	-0.306640625	-0.09130859375	0.9111328125	1.8125	2.125	0.6875
18	12	03	12	52	49	0.507923117191	0.100156432986	0.141049065589	-0.34521484375	-0.07275390625	0.93994140625	-7.1875	-0.125	3.625
18	12	03	12	52	49	0.50927792809	0.0989991370281	0.14196793633	-0.32568359375	-0.1181640625	1.00927734375	-11.375	-2.75	6.625
18	12	03	12	52	49	0.510437769479	0.0985719236767	0.141357631725	-0.34912109375	-0.11572265625	0.9990234375	-1.25	-6.0	6.5
18	12	03	12	52	49	0.512010311034	0.0999118940472	0.139217489506	-0.33544921875	-0.091796875	0.9658203125	9.6875	-1.5	11.0
18	12	03	12	52	49	0.512515685732	0.101013869226	0.139344207518	-0.3974609375	-0.1396484375	0.96630859375	2.25	0.25	3.875
18	12	03	12	52	49	0.51322971416	0.102291949213	0.138911978764	-0.34521484375	-0.1298828125	0.9521484375	4.9375	2.9375	6.0625
18	12	03	12	52	49	0.513607009361	0.103331748883	0.138853944896	-0.353515625	-0.0859375	0.92626953125	-0.0625	1.875	2.5
18	12	03	12	52	49	0.513669971002	0.104064555675	0.138793430853	-0.34814453125	-0.1201171875	0.93701171875	2.0	1.5	0.6875
18	12	03	12	52	49	0.514393981714	0.104612160021	0.137997721008	-0.3154296875	-0.07373046875	0.90478515625	1.75	-0.875	4.5
18	12	03	12	52	49	0.515313376014	0.104368811203	0.138426002227	-0.3212890625	-0.091796875	0.9404296875	-6.0625	-0.5625	4.75
18	12	03	12	52	49	0.516476096297	0.104552535211	0.138731997977	-0.337890625	-0.064453125	0.9296875	-6.125	-0.1875	6.5
18	12	03	12	52	49	0.517401042907	0.103516830102	0.140748708853	-0.37353515625	-0.072265625	0.95458984375	-18.0	-2.1875	2.8125
18	12	03	12	52	49	0.518191349991	0.102112382631	0.142517880121	-0.3291015625	-0.15283203125	1.0166015625	-13.125	-0.875	3.625
18	12	03	12	52	49	0.518312284655	0.102417335569	0.142944815198	-0.38671875	-0.12841796875	0.998046875	-2.125	-0.375	0.4375
18	12	03	12	52	50	0.518791313077	0.102537577173	0.14263709396	-0.32666015625	-0.119140625	0.98583984375	-0.375	0.0	3.0625
18	12	03	12	52	50	0.519100246548	0.103026598022	0.141478468136	-0.333984375	-0.14208984375	0.93212890625	7.8125	-2.5625	2.75
18	12	03	12	52	50	0.519708828029	0.103880731099	0.139707986771	-0.3056640625	-0.076171875	0.90380859375	7.4375	-1.3125	4.3125
18	12	03	12	52	50	0.520506078035	0.10522425874	0.137877958523	-0.2958984375	-0.02880859375	0.83447265625	6.875	-0.25	5.0625
18	12	03	12	52	50	0.521422093764	0.103332272591	0.140624663939	-0.3359375	-0.10205078125	0.94384765625	-21.875	-2.125	2.75
18	12	03	12	52	50	0.522085715822	0.101377644842	0.143613244018	-0.33203125	-0.1552734375	1.00927734375	-20.1875	0.25	2.5625
18	12	03	12	52	50	0.52221654689	0.100768994731	0.144897391575	-0.37255859375	-0.10888671875	1.013671875	-11.0	-0.75	-1.25
18	12	03	12	52	50	0.522576381122	0.101317074593	0.145383898602	-0.4169921875	-0.091796875	1.01513671875	-5.0625	-0.5625	1.125
18	12	03	12	52	50	0.523199891729	0.101197552553	0.145204449653	-0.330078125	-0.115234375	0.98828125	-1.8125	-1.0625	3.25
18	12	03	12	52	50	0.522837949648	0.102663253713	0.143679726065	-0.38330078125	-0.08349609375	0.91162109375	8.9375	-1.9375	-2.375
18	12	03	12	52	50	0.523741051503	0.103027024232	0.143432172361	-0.3388671875	-0.08251953125	0.90771484375	-1.875	-1.25	5.5
18	12	03	12	52	50	0.524916680452	0.102908084098	0.143680682068	-0.31396484375	-0.12109375	0.9140625	-3.1875	-0.6875	7.3125
18	12	03	12	52	50	0.525810382669	0.103208979349	0.144285054513	-0.33740234375	-0.099609375	0.951171875	-5.625	2.5625	5.375
18	12	03	12	52	50	0.526369067985	0.10369910094	0.145325226214	-0.36865234375	-0.08056640625	0.93798828125	-7.6875	2.625	2.5
18	12	03	12	52	50	0.52703879019	0.102478069337	0.146911681296	-0.375	-0.12890625	0.9990234375	-13.25	-3.375	2.3125
18	12	03	12	52	50	0.526608639526	0.102660608679	0.146971905885	-0.4033203125	-0.10986328125	0.958984375	-1.1875	-3.3125	-4.0
18	12	03	12	52	50	0.526343610596	0.101435885994	0.147576397312	-0.39111328125	-0.1953125	0.97216796875	-2.9375	-7.5	-2.75
18	12	03	12	52	50	0.527034332405	0.101683751915	0.146483196036	-0.3525390625	-0.10986328125	0.98974609375	2.9375	-3.3125	3.9375
18	12	03	12	52	50	0.526427395075	0.102722006482	0.146178969415	-0.35693359375	-0.13134765625	0.92333984375	4.9375	2.0	-3.0
18	12	03	12	52	50	0.526561951844	0.103029624981	0.147097983534	-0.3642578125	-0.09716796875	0.94384765625	-6.5	2.125	-0.1875
18	12	03	12	52	50	0.528430055863	0.101682198321	0.148434037406	-0.31591796875	-0.1259765625	1.005859375	-14.0	-0.875	10.5
18	12	03	12	52	50	0.528692281396	0.10192982105	0.148194973358	-0.3447265625	-0.12451171875	0.95654296875	0.5	-0.5	1.4375
18	12	03	12	52	50	0.52936353541	0.103821904039	0.146180752601	-0.36865234375	-0.0673828125	0.8857421875	10.75	-1.375	5.125
18	12	03	12	52	50	0.530090866199	0.103759870183	0.146057276087	-0.34033203125	-0.10400390625	0.9140625	-2.125	-2.4375	3.8125
18	12	03	12	52	50	0.530090866199	0.103759870183	0.146057276087	-0.3125	-0.14208984375	0.919921875	-0.875	-0.1875	-0.375
18	12	03	12	52	50	0.530533459654	0.104251167636	0.146732908077	-0.34130859375	-0.08984375	0.9013671875	-4.9375	2.8125	2.625
18	12	03	12	52	50	0.530884152959	0.103881907144	0.147583108974	-0.34765625	-0.12353515625	0.94921875	-6.5	-0.25	1.375
18	12	03	12	52	50	0.531550606535	0.103819908338	0.148008981611	-0.34423828125	-0.130859375	0.951171875	-3.5625	0.125	4.0625
18	12	03	12	52	50	0.531987156432	0.104432081764	0.148316749671	-0.36669921875	-0.12939453125	0.9404296875	-0.5625	1.375	3.0625
18	12	03	12	52	50	0.533075415866	0.104552116714	0.148496964369	-0.328125	-0.0927734375	0.94189453125	-4.4375	1.25	6.5625
18	12	03	12	52	50	0.533200946002	0.104919004828	0.148436893393	-0.3544921875	-0.123046875	0.90478515625	0.75	-0.8125	1.0625
18	12	03	12	52	50	0.533569403519	0.105590833687	0.148315448473	-0.36669921875	-0.14794921875	0.93115234375	2.9375	0.5625	3.0625
18	12	03	12	52	50	0.533809414873	0.106322433193	0.147642919572	-0.34716796875	-0.146484375	0.888671875	6.75	-0.875	2.75
18	12	03	12	52	50	0.534803749245	0.10687529844	0.147586791335	-0.31494140625	-0.099609375	0.89111328125	-0.75	2.25	6.9375
18	12	03	12	52	50	0.535521294877	0.10656715077	0.148742351905	-0.3134765625	-0.08740234375	0.86328125	-9.875	1.9375	3.3125
18	12	03	12	52	50	0.535648984111	0.106934482698	0.149659447247	-0.32421875	-0.1044921875	0.8759765625	-4.9375	4.0	0.625
18	12	03	12	52	50	0.53631956723	0.1057746455	0.152100644308	-0.35791015625	-0.1435546875	0.9150390625	-15.4375	0.0	2.875
18	12	03	12	52	50	0.536317258586	0.1058962608	0.153686907605	-0.443359375	-0.10888671875	0.9931640625	-10.0	0.4375	-1.5625
18	12	03	12	52	50	0.537473607723	0.105346291952	0.153319748194	-0.39306640625	-0.0966796875	0.994140625	-4.75	-6.5625	5.625
18	12	03	12	52	50	0.538281367403	0.105532201411	0.152530347788	-0.3935546875	-0.11669921875	0.95263671875	1.875	-5.1875	4.625
18	12	03	12	52	50	0.538700722139	0.105408582272	0.151856718409	-0.3212890625	-0.14990234375	0.96142578125	2.6875	-1.1875	3.125
18	12	03	12	52	50	0.538881052719	0.106506675387	0.151794900681	-0.3798828125	-0.0615234375	0.95947265625	-1.5625	3.1875	0.25
18	12	03	12	52	50	0.539309764762	0.106201787085	0.15179531292	-0.42724609375	-0.13037109375	1.015625	-2.6875	-5.6875	1.4375
18	12	03	12	52	50	0.540023144818	0.106075974875	0.151484792658	-0.42431640625	-0.09912109375	1.0	-2.75	-6.0625	3.25
18	12	03	12	52	50	0.540357763727	0.10522724327	0.150638536189	-0.37158203125	-0.15625	0.9658203125	2.4375	-8.4375	1.375
18	12	03	12	52	50	0.541370007767	0.106137817757	0.148556324566	-0.36328125	-0.05810546875	0.86767578125	7.4375	-6.0625	5.9375
18	12	03	12	52	50	0.541926477755	0.10491852858	0.150023119982	-0.3447265625	-0.08740234375	0.904296875	-14.1875	-2.625	0.9375
18	12	03	12	52	50	0.54249067558	0.102602028088	0.152773870497	-0.3056640625	-0.14501953125	0.927734375	-20.4375	-0.875	1.4375
18	12	03	12	52	50	0.5428306196	0.100582961671	0.155390910445	-0.34326171875	-0.18212890625	0.96728515625	-17.125	-1.1875	0.375
18	12	03	12	52	50	0.543345691918	0.0996113423062	0.156253085971	-0.3662109375	-0.18994140625	1.04150390625	-6.125	-1.6875	2.8125
18	12	03	12	52	50	0.543958065809	0.0996117104353	0.155704334142	-0.34619140625	-0.15966796875	1.0302734375	1.5625	-0.625	4.3125
18	12	03	12	52	51	0.544689368493	0.0998556484598	0.155887118684	-0.34765625	-0.11962890625	0.95361328125	-3.125	0.9375	4.25
18	12	03	12	52	51	0.545021070722	0.0993000315863	0.15758615953	-0.361328125	-0.14892578125	0.95751953125	-10.6875	1.375	1.375
18	12	03	12	52	51	0.545967863529	0.0983901840144	0.15906006175	-0.29052734375	-0.134765625	0.94775390625	-12.5625	3.3125	5.1875
18	12	03	12	52	51	0.546504195103	0.0977774983868	0.161436631232	-0.32958984375	-0.14794921875	0.87255859375	-13.625	3.625	2.8125
18	12	03	12	52	51	0.547061337686	0.0971075073367	0.164490717959	-0.32568359375	-0.18603515625	0.83203125	-15.1875	4.875	3.875
18	12	03	12	52	51	0.547611708978	0.0964363018486	0.167847993724	-0.30126953125	-0.2216796875	0.83837890625	-14.3125	7.875	4.75
18	12	03	12	52	51	0.54814747683	0.0965559857861	0.170834515939	-0.333984375	-0.21044921875	0.85302734375	-11.5625	9.0625	5.4375
18	12	03	12	52	51	0.54839600653	0.0974112438977	0.173277269064	-0.43896484375	-0.2001953125	0.841796875	-7.0	4.0625	2.4375
18	12	03	12	52	51	0.548888561039	0.0974120030489	0.175109672147	-0.46240234375	-0.2109375	0.86767578125	-7.0	-2.6875	3.1875
18	12	03	12	52	51	0.549828880175	0.0967449794713	0.176033136148	-0.34619140625	-0.20947265625	0.810546875	-4.25	-3.125	6.1875
18	12	03	12	52	51	0.549934217051	0.0961927109958	0.177797821783	-0.31787109375	-0.2568359375	0.7998046875	-4.0	2.125	2.3125
18	12	03	12	52	51	0.549982615562	0.0966177428071	0.179441670153	-0.31982421875	-0.259765625	0.8408203125	-1.0625	7.625	3.5625
18	12	03	12	52	51	0.549992905981	0.0977792293176	0.180909884955	-0.39306640625	-0.18505859375	0.86669921875	-3.0625	6.75	1.3125
18	12	03	12	52	51	0.550357609268	0.0979620675253	0.182435277155	-0.40185546875	-0.1220703125	0.8173828125	-10.25	0.625	0.625
18	12	03	12	52	51	0.550178202141	0.0970471867544	0.184511726766	-0.3271484375	-0.22216796875	0.73681640625	-8.4375	0.25	-0.8125
18	12	03	12	52	51	0.549992170419	0.096985635201	0.185914565653	-0.259765625	-0.26513671875	0.75146484375	-0.1875	6.625	2.0625
18	12	03	12	52	51	0.55005520296	0.0976573817949	0.186952850274	-0.29736328125	-0.2490234375	0.8427734375	1.125	9.375	3.625
18	12	03	12	52	51	0.550006480587	0.096805046966	0.189032301673	-0.51171875	-0.24951171875	1.04736328125	-11.0625	-3.1875	-1.75
18	12	03	12	52	51	0.549376742497	0.0961302487982	0.188720463038	-0.6826171875	-0.236328125	1.1982421875	-1.4375	-16.9375	-9.0
18	12	03	12	52	51	0.550114992798	0.0931405169211	0.18512135506	-0.421875	-0.244140625	1.15234375	7.0	-24.5625	0.0625
18	12	03	12	52	51	0.549857763734	0.0908800322123	0.180905584605	-0.24169921875	-0.291015625	1.1591796875	17.25	-11.6875	-1.8125
18	12	03	12	52	51	0.55058896797	0.0922225840375	0.174618671695	-0.1123046875	-0.11279296875	1.00830078125	27.9375	2.1875	7.25
18	12	03	12	52	51	0.551143751898	0.0943597165486	0.172240051811	-0.2568359375	0.07958984375	0.80615234375	2.25	4.9375	1.125
18	12	03	12	52	51	0.551626280168	0.0933821872823	0.173275836402	-0.263671875	0.0107421875	0.6748046875	-17.75	-2.4375	-1.375
18	12	03	12	52	51	0.550717089269	0.0911249711048	0.175597147936	-0.22314453125	-0.1611328125	0.6328125	-14.8125	-1.6875	-7.75
18	12	03	12	52	51	0.550894628108	0.0889268195384	0.178158810043	-0.1337890625	-0.26611328125	0.66748046875	-11.3125	5.1875	2.8125
18	12	03	12	52	51	0.552468416832	0.0855068771522	0.183830630965	-0.19775390625	-0.28369140625	0.8828125	-34.25	9.6875	11.125
18	12	03	12	52	51	0.553898488652	0.0794073756184	0.193116784363	-0.4951171875	-0.3271484375	1.1630859375	-63.125	-2.875	3.8125
18	12	03	12	52	51	0.553833358555	0.0726318819352	0.201660283961	-0.82861328125	-0.46533203125	1.3251953125	-55.1875	-25.0	-10.25
18	12	03	12	52	51	0.55397100498	0.0688496357005	0.201788028037	-0.55419921875	-0.6083984375	1.44091796875	1.375	-19.125	0.375
18	12	03	12	52	51	0.556745803552	0.0690286673775	0.192865242186	0.01318359375	-0.47216796875	1.36376953125	48.75	1.6875	27.1875
18	12	03	12	52	51	0.558731708153	0.0737325653757	0.184758671682	-0.02392578125	-0.1162109375	1.02783203125	43.5625	15.75	19.6875
18	12	03	12	52	51	0.557861220059	0.0783691254437	0.183715784724	-0.26220703125	0.009765625	0.74462890625	9.0625	19.1875	-3.875
18	12	03	12	52	51	0.556445411733	0.0809308561981	0.186946615788	-0.30126953125	-0.09814453125	0.6015625	-9.0	18.5625	-7.6875
18	12	03	12	52	51	0.554752578502	0.0836187735227	0.189881755058	-0.23486328125	-0.25	0.5927734375	3.1875	22.8125	-4.375
18	12	03	12	52	51	0.554133431577	0.0889274600516	0.190367019836	-0.17724609375	-0.2626953125	0.5517578125	23.3125	29.1875	7.25
18	12	03	12	52	51	0.554758443732	0.094667218201	0.192386248723	-0.2626953125	-0.21826171875	0.56982421875	12.625	30.75	15.0
18	12	03	12	52	51	0.555238447361	0.0970461835005	0.19793759314	-0.48876953125	-0.19287109375	0.67724609375	-18.4375	15.9375	5.9375
18	12	03	12	52	51	0.555772834695	0.0917946786055	0.207209397517	-0.75146484375	-0.20703125	0.81640625	-62.0625	-19.75	-8.5
18	12	03	12	52	51	0.557077353105	0.0804457052035	0.216556420381	-0.60107421875	-0.4462890625	0.9599609375	-71.5	-35.6875	-4.375
18	12	03	12	52	51	0.55841667941	0.0706184389636	0.220339295297	-0.30859375	-0.5966796875	1.14599609375	-35.125	-24.3125	4.625
18	12	03	12	52	51	0.558644840641	0.0683581581468	0.216548879558	-0.18115234375	-0.42822265625	1.0546875	18.5625	-8.375	3.625
18	12	03	12	52	51	0.558771814928	0.0718377308761	0.210020078118	-0.22216796875	-0.265625	0.90185546875	43.0625	2.4375	5.6875
18	12	03	12	52	51	0.558301733496	0.0767229997819	0.205205032034	-0.2412109375	-0.19189453125	0.79345703125	38.0	11.375	2.6875
18	12	03	12	52	51	0.557558600173	0.080749866232	0.201661041595	-0.22021484375	-0.1220703125	0.74365234375	26.0	12.125	-0.8125
18	12	03	12	52	51	0.556456949467	0.0820311659628	0.200805458346	-0.29541015625	-0.10400390625	0.767578125	3.625	4.125	-8.25
18	12	03	12	52	51	0.555672403793	0.0806286517366	0.201785255595	-0.39794921875	-0.150390625	0.85107421875	-12.75	-6.6875	-10.0
18	12	03	12	52	51	0.555256465355	0.0774563542415	0.203132188271	-0.4794921875	-0.2509765625	0.9462890625	-15.75	-17.125	-8.9375
18	12	03	12	52	51	0.555679206277	0.0745869936369	0.2035577936	-0.5234375	-0.318359375	1.0322265625	-8.8125	-20.6875	-2.5625
18	12	03	12	52	51	0.55652323809	0.0725714115035	0.202760495387	-0.46435546875	-0.36474609375	1.08740234375	1.1875	-16.3125	3.4375
18	12	03	12	52	52	0.557013462607	0.0725106282684	0.19946526362	-0.3837890625	-0.322265625	1.1064453125	17.4375	-9.5	3.0
18	12	03	12	52	52	0.558239383571	0.073121668655	0.195499753507	-0.28466796875	-0.2275390625	1.03564453125	17.3125	-5.3125	8.5625
18	12	03	12	52	52	0.558906350558	0.0742807719372	0.193422979679	-0.25634765625	-0.20947265625	0.97119140625	10.8125	4.5625	6.5
18	12	03	12	52	52	0.559747593973	0.0754386682097	0.192136672754	-0.22607421875	-0.21435546875	0.98779296875	6.8125	9.1875	8.4375
18	12	03	12	52	52	0.560625408863	0.0773949938419	0.191717409825	-0.31884765625	-0.11962890625	0.97119140625	-0.125	9.75	6.4375
18	12	03	12	52	52	0.560853338862	0.0778200029436	0.192505324929	-0.38916015625	-0.1650390625	0.8916015625	-6.25	0.75	0.4375
18	12	03	12	52	52	0.561339685865	0.0759276469736	0.192870871734	-0.32958984375	-0.24365234375	0.931640625	-7.3125	-7.1875	1.0625
18	12	03	12	52	52	0.561763344545	0.075011641726	0.192015154491	-0.26708984375	-0.27197265625	0.9267578125	3.6875	-2.4375	3.625
18	12	03	12	52	52	0.561898673496	0.075989990061	0.191409324363	-0.33740234375	-0.2236328125	0.89306640625	6.375	1.75	2.125
18	12	03	12	52	52	0.562031547776	0.0763576744427	0.192084413646	-0.42724609375	-0.21630859375	0.9384765625	-3.25	-1.375	0.125
18	12	03	12	52	52	0.562581768046	0.0751370463778	0.193488575969	-0.40576171875	-0.2353515625	0.9892578125	-11.6875	-4.0	1.6875
18	12	03	12	52	52	0.562922151338	0.0739129052662	0.194883490103	-0.37841796875	-0.26708984375	0.92919921875	-9.0	-3.4375	1.1875
18	12	03	12	52	52	0.562972503965	0.0729349677187	0.195917360985	-0.35302734375	-0.3046875	0.8935546875	-3.1875	-2.75	1.0
18	12	03	12	52	52	0.563288905588	0.0734857343513	0.195982303158	-0.2939453125	-0.27001953125	0.85595703125	4.3125	4.125	4.625
18	12	03	12	52	52	0.563115083096	0.0758063010195	0.196290711818	-0.36328125	-0.2470703125	0.7998046875	8.875	7.875	1.9375
18	12	03	12	52	52	0.563049119239	0.0772094456193	0.197448661327	-0.431640625	-0.212890625	0.7861328125	0.125	1.9375	0.3125
18	12	03	12	52	52	0.56310369657	0.0767813191291	0.198972257839	-0.39111328125	-0.2265625	0.7919921875	-7.4375	-2.6875	-0.4375
18	12	03	12	52	52	0.563095938479	0.0751933878394	0.200617423562	-0.30517578125	-0.30029296875	0.80078125	-7.0625	-1.8125	0.5
18	12	03	12	52	52	0.562995653386	0.0747690454681	0.201418653098	-0.26806640625	-0.3095703125	0.8115234375	1.0	3.5	1.875
18	12	03	12	52	52	0.562982781175	0.0750725087647	0.201414047905	-0.28076171875	-0.25927734375	0.8525390625	3.1875	4.3125	2.1875
18	12	03	12	52	52	0.563181106897	0.074952465511	0.201785709267	-0.3486328125	-0.23974609375	0.9091796875	-2.4375	0.375	1.0625
18	12	03	12	52	52	0.563468080173	0.0740345300314	0.202389531397	-0.384765625	-0.23193359375	0.9599609375	-7.3125	-3.5625	0.125
