18	12	03	12	57	34	0.92046020531	-0.0231335820831	0.321550687107	-0.599609375	-0.17578125	0.8125	0.75	-0.0625	-0.0625
18	12	03	12	57	34	0.920285807814	-0.0230712319508	0.322020687228	-0.6005859375	-0.220703125	0.77880859375	1.9375	1.375	0.875
18	12	03	12	57	34	0.920395809738	-0.0225841534321	0.321732629029	-0.5595703125	-0.1611328125	0.79150390625	1.4375	0.0625	0.1875
18	12	03	12	57	34	0.920324920523	-0.0216683477109	0.321790222907	-0.55322265625	-0.13623046875	0.7490234375	3.3125	1.625	-1.5
18	12	03	12	57	34	0.920116321085	-0.0213625679854	0.322452704762	-0.59423828125	-0.138671875	0.75244140625	-1.25	2.0	-1.25
18	12	03	12	57	34	0.920087740723	-0.0226451208576	0.322525117552	-0.57958984375	-0.16357421875	0.8154296875	-8.75	-0.125	-2.6875
18	12	03	12	57	34	0.919884355095	-0.0243536499026	0.323067340689	-0.62255859375	-0.2197265625	0.8056640625	-8.1875	-0.25	-1.9375
18	12	03	12	57	34	0.919772989838	-0.0252694948433	0.323437326508	-0.6181640625	-0.21044921875	0.837890625	-5.4375	1.0625	-0.4375
18	12	03	12	57	34	0.91970201587	-0.0263678836512	0.323677979172	-0.59130859375	-0.205078125	0.828125	-5.875	1.0	-0.6875
18	12	03	12	57	34	0.919504679149	-0.0278933712825	0.324527472886	-0.609375	-0.19921875	0.81201171875	-10.5625	2.625	0.1875
18	12	03	12	57	34	0.919210696181	-0.0300910274381	0.325202827972	-0.60498046875	-0.244140625	0.7861328125	-10.1875	0.25	-2.625
18	12	03	12	57	34	0.919085851308	-0.0321051373215	0.325445992773	-0.56884765625	-0.2412109375	0.7666015625	-8.8125	-1.0625	-1.25
18	12	03	12	57	34	0.918985113102	-0.0328383362679	0.325941850688	-0.5791015625	-0.1865234375	0.76025390625	-5.875	0.75	-0.0625
18	12	03	12	57	34	0.918864536924	-0.0333877309484	0.326430685763	-0.60009765625	-0.18505859375	0.755859375	-4.5625	0.1875	-0.4375
18	12	03	12	57	34	0.919081285439	-0.0341191684527	0.325871628567	-0.57421875	-0.1806640625	0.806640625	-5.25	-2.6875	-1.1875
18	12	03	12	57	34	0.919026083435	-0.0346076767821	0.326056806649	-0.6279296875	-0.24072265625	0.81591796875	-1.6875	-0.875	0.5
18	12	03	12	57	34	0.919129503385	-0.0340576574068	0.325867084041	-0.615234375	-0.216796875	0.80859375	3.125	-1.25	1.375
18	12	03	12	57	34	0.919391088023	-0.0331427578037	0.325507048558	-0.591796875	-0.2001953125	0.80126953125	4.25	-1.125	4.0625
18	12	03	12	57	34	0.919563489973	-0.0324099437923	0.325259115762	-0.54931640625	-0.17333984375	0.78173828125	2.125	1.125	2.125
18	12	03	12	57	34	0.919593572514	-0.0322278910319	0.325391831612	-0.5712890625	-0.2060546875	0.77587890625	0.4375	1.1875	2.3125
18	12	03	12	57	34	0.919874583127	-0.0313115029623	0.325017062912	-0.5634765625	-0.13671875	0.76318359375	1.4375	-1.1875	2.125
18	12	03	12	57	34	0.920120715537	-0.030823281018	0.324529475589	-0.5693359375	-0.17041015625	0.77587890625	1.4375	-2.25	1.75
18	12	03	12	57	34	0.920368614834	-0.0300299329199	0.32398147142	-0.560546875	-0.20458984375	0.7890625	4.9375	-1.1875	2.9375
18	12	03	12	57	34	0.920545549487	-0.0287479746591	0.323185829766	-0.564453125	-0.201171875	0.81494140625	8.9375	-0.6875	-0.4375
18	12	03	12	57	34	0.920607724165	-0.0274052156832	0.323125193378	-0.62548828125	-0.208984375	0.826171875	7.75	0.25	2.625
18	12	03	12	57	34	0.920528469842	-0.0265501846162	0.323301903246	-0.650390625	-0.20458984375	0.8232421875	5.0	-0.1875	0.3125
18	12	03	12	57	34	0.920501666642	-0.0264901348268	0.323130815145	-0.6064453125	-0.220703125	0.830078125	2.1875	-0.3125	-0.8125
18	12	03	12	57	34	0.920315747034	-0.0253913881659	0.323129829208	-0.5732421875	-0.1884765625	0.79736328125	7.6875	2.75	-3.0625
18	12	03	12	57	34	0.919961560237	-0.0241099267711	0.324232736729	-0.62109375	-0.14990234375	0.759765625	3.5625	5.0625	0.1875
18	12	03	12	57	34	0.919829683696	-0.0237434470443	0.324717579115	-0.626953125	-0.138671875	0.76220703125	-1.4375	-0.125	-1.3125
18	12	03	12	57	34	0.92003741096	-0.024415508816	0.324115879533	-0.57275390625	-0.1572265625	0.826171875	-5.125	-2.1875	-1.875
18	12	03	12	57	34	0.920031414061	-0.0246595031699	0.323991690164	-0.55322265625	-0.18310546875	0.81884765625	-1.375	2.1875	-1.0625
18	12	03	12	57	34	0.919717950469	-0.0241099409633	0.325087457141	-0.61767578125	-0.1796875	0.81201171875	0.1875	6.1875	1.25
18	12	03	12	57	34	0.919512189643	-0.0241703834782	0.325872922702	-0.634765625	-0.16748046875	0.802734375	-3.0	2.5	-0.125
18	12	03	12	57	35	0.91939208474	-0.02514701845	0.326300875325	-0.6142578125	-0.19970703125	0.7939453125	-5.75	0.1875	-0.4375
18	12	03	12	57	35	0.919156225699	-0.0255134671852	0.326731076178	-0.607421875	-0.25244140625	0.78564453125	1.5	1.25	-0.375
18	12	03	12	57	35	0.919146112104	-0.0251469684698	0.32654437212	-0.53369140625	-0.2041015625	0.75244140625	3.9375	1.3125	-0.125
18	12	03	12	57	35	0.919012041098	-0.0237428228722	0.327028393186	-0.57568359375	-0.15234375	0.72998046875	5.4375	3.3125	1.5625
18	12	03	12	57	35	0.918880308273	-0.0230101545147	0.327452198863	-0.63818359375	-0.16748046875	0.72509765625	3.1875	-1.875	-0.3125
18	12	03	12	57	35	0.919269604297	-0.0228886595585	0.326239694241	-0.583984375	-0.18115234375	0.7783203125	2.3125	-7.0	-0.4375
18	12	03	12	57	35	0.919453602458	-0.0220952073878	0.325446535336	-0.544921875	-0.18017578125	0.77099609375	6.0	-1.4375	-0.6875
18	12	03	12	57	35	0.919276590741	-0.0213018743887	0.325998026104	-0.58935546875	-0.1923828125	0.75732421875	4.5625	2.875	1.75
18	12	03	12	57	35	0.919144350349	-0.0220951095575	0.32636063758	-0.63818359375	-0.17138671875	0.79345703125	-5.6875	-1.125	-2.375
18	12	03	12	57	35	0.919328597766	-0.0230717175644	0.325567570076	-0.61181640625	-0.216796875	0.82568359375	-2.5625	-5.25	-2.4375
18	12	03	12	57	35	0.919626007365	-0.0227053079405	0.324588246311	-0.5390625	-0.18310546875	0.83447265625	3.0625	-0.8125	0.0
18	12	03	12	57	35	0.919672067493	-0.0206921637274	0.324543464715	-0.57470703125	-0.142578125	0.80322265625	8.4375	3.75	2.1875
18	12	03	12	57	35	0.91955474516	-0.0201429184137	0.325033456221	-0.62939453125	-0.14990234375	0.814453125	0.0	2.25	0.0
18	12	03	12	57	35	0.919421330048	-0.0213634379285	0.325334640454	-0.58154296875	-0.16943359375	0.81201171875	-8.0625	1.625	-2.6875
18	12	03	12	57	35	0.919036378932	-0.0236824144933	0.326304607941	-0.56396484375	-0.2138671875	0.75146484375	-11.625	3.0	-3.1875
18	12	03	12	57	35	0.918695459887	-0.0256973482568	0.327107100494	-0.58740234375	-0.21533203125	0.74853515625	-9.875	0.9375	-3.0625
18	12	03	12	57	35	0.918306930085	-0.0264902098808	0.328136793362	-0.63330078125	-0.23779296875	0.7041015625	-2.3125	-0.6875	-0.375
18	12	03	12	57	35	0.918428683149	-0.0257577526609	0.327526305162	-0.62451171875	-0.22119140625	0.79150390625	7.375	-3.75	-0.5625
18	12	03	12	57	35	0.918772937246	-0.0238650248099	0.326541899572	-0.61669921875	-0.20556640625	0.8056640625	12.0625	-4.0	3.0
18	12	03	12	57	35	0.919025778718	-0.0205082461081	0.32605669854	-0.64111328125	-0.1435546875	0.81298828125	16.125	-0.4375	4.1875
18	12	03	12	57	35	0.919077272598	-0.0184938513479	0.32599227739	-0.66455078125	-0.177734375	0.828125	10.0	-0.5625	2.6875
18	12	03	12	57	35	0.919566228831	-0.017578326955	0.325199048667	-0.5771484375	-0.123046875	0.81884765625	1.125	-1.8125	4.1875
18	12	03	12	57	35	0.919684596863	-0.0170899712717	0.32501463222	-0.55810546875	-0.15869140625	0.8017578125	1.4375	1.75	1.8125
18	12	03	12	57	35	0.919652256353	-0.0170905045317	0.325513073812	-0.56982421875	-0.1484375	0.75927734375	-3.0625	2.5625	2.375
18	12	03	12	57	35	0.919812388845	-0.017273185537	0.325382869604	-0.54345703125	-0.134765625	0.7470703125	-3.3125	-0.375	1.25
18	12	03	12	57	35	0.91985465792	-0.0176402120862	0.325031589477	-0.5673828125	-0.18408203125	0.763671875	-0.125	-2.125	-1.6875
18	12	03	12	57	35	0.91984589829	-0.0173958912417	0.324906417823	-0.62158203125	-0.21435546875	0.78125	4.25	-2.125	0.375
18	12	03	12	57	35	0.919965143625	-0.0171516855997	0.324417113745	-0.60302734375	-0.19873046875	0.82421875	3.125	-1.9375	0.0625
18	12	03	12	57	35	0.919755677045	-0.0173953393031	0.324713000324	-0.61572265625	-0.25390625	0.8271484375	3.125	1.75	0.0
18	12	03	12	57	35	0.919481698718	-0.0174569679921	0.32527336514	-0.63037109375	-0.20654296875	0.81201171875	0.875	2.125	-1.25
18	12	03	12	57	35	0.919139477754	-0.0175173006252	0.325870620342	-0.62646484375	-0.19140625	0.767578125	0.8125	1.0625	-3.1875
18	12	03	12	57	35	0.919105579314	-0.0162360263048	0.325697129182	-0.5595703125	-0.138671875	0.74169921875	6.6875	0.9375	-1.25
18	12	03	12	57	35	0.919103791877	-0.0151373183946	0.325879608502	-0.578125	-0.11669921875	0.72265625	2.6875	0.3125	0.875
18	12	03	12	57	35	0.919200666029	-0.0148317238941	0.325748602563	-0.64306640625	-0.13037109375	0.7802734375	-0.625	-3.5625	-0.6875
18	12	03	12	57	35	0.919516531597	-0.0148318962614	0.325019948938	-0.630859375	-0.1640625	0.8203125	-0.5625	-5.375	0.9375
18	12	03	12	57	35	0.919578023846	-0.0154422700141	0.32477596342	-0.60888671875	-0.18603515625	0.85546875	-2.625	-0.3125	-1.3125
18	12	03	12	57	35	0.919195175096	-0.0162964881641	0.325197336847	-0.65625	-0.26025390625	0.87060546875	0.25	1.625	-4.0625
18	12	03	12	57	35	0.918780513654	-0.0172122570152	0.326483555938	-0.69873046875	-0.21240234375	0.7734375	-4.75	-0.125	-0.375
18	12	03	12	57	35	0.918852526354	-0.0169683142239	0.325877085041	-0.5927734375	-0.17041015625	0.7861328125	2.6875	-3.125	-3.375
18	12	03	12	57	35	0.918941541069	-0.0166025970887	0.325764928906	-0.552734375	-0.19775390625	0.7255859375	3.75	-0.6875	3.125
18	12	03	12	57	35	0.919211115681	-0.0151370754773	0.325080903195	-0.53076171875	-0.1142578125	0.73876953125	5.875	-1.0	1.375
18	12	03	12	57	35	0.919039068419	-0.0147099963797	0.325084816258	-0.6025390625	-0.19775390625	0.728515625	5.625	-1.9375	-2.5
18	12	03	12	57	35	0.919189195219	-0.0147104453183	0.324362267308	-0.66015625	-0.2021484375	0.83203125	3.0	-6.25	-1.6875
18	12	03	12	57	35	0.919495223659	-0.013550712935	0.323080736778	-0.6328125	-0.2041015625	0.84814453125	10.1875	-5.875	-0.1875
18	12	03	12	57	35	0.919794914498	-0.0119636208933	0.32216321977	-0.5849609375	-0.189453125	0.83154296875	10.5625	-1.5625	3.1875
18	12	03	12	57	35	0.919882088135	-0.00939963118392	0.322089959464	-0.642578125	-0.10302734375	0.81298828125	10.0	0.375	2.4375
18	12	03	12	57	35	0.92012835456	-0.00836202882751	0.321541371265	-0.63720703125	-0.09033203125	0.79833984375	1.75	-4.3125	-0.1875
18	12	03	12	57	35	0.920432716836	-0.00830098471417	0.321052791151	-0.5400390625	-0.1318359375	0.7451171875	-0.875	-2.625	2.5625
18	12	03	12	57	35	0.920626562034	-0.00891145515196	0.320690310742	-0.51171875	-0.1416015625	0.7783203125	-4.0625	0.5625	0.8125
18	12	03	12	57	35	0.920559432007	-0.00952176577331	0.320993373089	-0.57958984375	-0.16748046875	0.7529296875	-3.1875	-0.4375	0.4375
18	12	03	12	57	36	0.920780721806	-0.00970463573957	0.320314014851	-0.5986328125	-0.1513671875	0.82421875	-0.875	-3.8125	-1.3125
18	12	03	12	57	36	0.920864580785	-0.0104373197663	0.319833658336	-0.59912109375	-0.24609375	0.82958984375	1.4375	-3.0625	0.5
18	12	03	12	57	36	0.921156409192	-0.00909437483234	0.319035552004	-0.6298828125	-0.14453125	0.88037109375	6.625	-2.0625	1.6875
18	12	03	12	57	36	0.921387619765	-0.0100708106294	0.31927521456	-0.60791015625	-0.09228515625	0.80224609375	-12.0625	-1.5	2.625
18	12	03	12	57	36	0.920897679335	-0.0133666882141	0.320312236291	-0.65625	-0.17822265625	0.83642578125	-18.0	-0.0625	-8.875
18	12	03	12	57	36	0.920762924311	-0.0149543862417	0.321000478552	-0.64892578125	-0.2001953125	0.8642578125	-9.1875	1.0625	0.125
18	12	03	12	57	36	0.92055459123	-0.0147708666674	0.321357904975	-0.591796875	-0.1953125	0.80517578125	2.25	2.5625	-0.9375
18	12	03	12	57	36	0.920355762301	-0.0134888668657	0.321901736878	-0.60986328125	-0.16357421875	0.84423828125	5.375	5.8125	1.1875
18	12	03	12	57	36	0.919957694132	-0.0123295816225	0.322827510899	-0.59716796875	-0.1513671875	0.79345703125	4.5625	6.75	-0.9375
18	12	03	12	57	36	0.919464337789	-0.0129398857947	0.32429062843	-0.5947265625	-0.11572265625	0.76171875	-8.0	6.375	-3.25
18	12	03	12	57	36	0.918645211885	-0.0163575122441	0.326661960933	-0.65380859375	-0.201171875	0.7578125	-19.6875	5.125	-5.3125
18	12	03	12	57	36	0.91831867531	-0.0204477737606	0.327713723346	-0.6630859375	-0.23779296875	0.833984375	-21.5	-1.0	-3.6875
18	12	03	12	57	36	0.918166127346	-0.0228885393708	0.328313208735	-0.56201171875	-0.20361328125	0.77880859375	-13.6875	1.875	-1.25
18	12	03	12	57	36	0.917596401946	-0.0251479889311	0.330219951741	-0.59033203125	-0.1884765625	0.7431640625	-15.375	7.125	-0.75
18	12	03	12	57	36	0.916951316681	-0.0273443513195	0.332282697731	-0.623046875	-0.19677734375	0.7451171875	-15.0625	6.4375	-1.625
18	12	03	12	57	36	0.91664003349	-0.0294804325593	0.333440171991	-0.58544921875	-0.19580078125	0.6982421875	-13.375	1.375	-0.3125
18	12	03	12	57	36	0.91660242947	-0.0315564664071	0.333509733943	-0.58837890625	-0.2451171875	0.712890625	-8.1875	-4.375	-0.8125
18	12	03	12	57	36	0.916869012241	-0.0315551377532	0.332702235769	-0.6064453125	-0.22802734375	0.74560546875	3.0625	-6.6875	0.3125
18	12	03	12	57	36	0.917493503117	-0.0292972912118	0.33118146274	-0.55615234375	-0.1650390625	0.7626953125	12.1875	-4.6875	4.0
18	12	03	12	57	36	0.917703215028	-0.0266124776689	0.330580685906	-0.5947265625	-0.1884765625	0.76220703125	15.5625	-1.0	3.0625
18	12	03	12	57	36	0.917990578724	-0.0248418993046	0.329841827621	-0.67919921875	-0.18115234375	0.8310546875	9.125	-4.625	1.25
18	12	03	12	57	36	0.918457205748	-0.0236206099564	0.328674378851	-0.60693359375	-0.17529296875	0.80126953125	6.9375	-5.625	2.5625
18	12	03	12	57	36	0.918774243037	-0.0230715913019	0.327702046826	-0.58837890625	-0.2451171875	0.8095703125	7.375	-3.875	2.6875
18	12	03	12	57	36	0.919047503389	-0.0214242992422	0.326796860805	-0.5947265625	-0.1962890625	0.8037109375	10.9375	-2.375	1.9375
18	12	03	12	57	36	0.919386983025	-0.0186770508402	0.326054920223	-0.5732421875	-0.12548828125	0.767578125	12.625	-0.875	3.75
18	12	03	12	57	36	0.919518376304	-0.0170292483896	0.325814078507	-0.61962890625	-0.15576171875	0.78759765625	8.0	-1.1875	2.5625
18	12	03	12	57	36	0.919874051958	-0.016601800951	0.324955839203	-0.6064453125	-0.14111328125	0.83740234375	0.5	-3.3125	0.5625
18	12	03	12	57	36	0.919923763118	-0.016541658802	0.324851321566	-0.5908203125	-0.14990234375	0.83935546875	0.625	0.3125	-0.125
18	12	03	12	57	36	0.919789349228	-0.0161752058893	0.325457350195	-0.6396484375	-0.162109375	0.8349609375	-0.6875	3.0625	1.1875
18	12	03	12	57	36	0.919704039129	-0.0159916683204	0.326120167313	-0.6279296875	-0.13720703125	0.80908203125	-3.125	2.8125	1.875
18	12	03	12	57	36	0.919655853922	-0.0169074581228	0.327101328809	-0.671875	-0.15087890625	0.8046875	-10.25	0.5625	3.4375
18	12	03	12	57	36	0.920037609774	-0.0181285192133	0.327167888833	-0.69873046875	-0.18701171875	0.84130859375	-9.8125	-5.5625	7.0
18	12	03	12	57	36	0.92077137709	-0.0192272445332	0.326435884964	-0.6083984375	-0.14208984375	0.85546875	-11.75	-4.75	8.375
18	12	03	12	57	36	0.9211302884	-0.0224621261766	0.326799520515	-0.6162109375	-0.14794921875	0.865234375	-24.625	-1.0625	5.5
18	12	03	12	57	36	0.921097830048	-0.0297856829278	0.327947693383	-0.64404296875	-0.208984375	0.86181640625	-45.0	-2.4375	0.25
18	12	03	12	57	36	0.921410442927	-0.0387583221554	0.328011375218	-0.5986328125	-0.28662109375	0.8779296875	-49.75	-8.0	2.1875
18	12	03	12	57	36	0.922428537928	-0.0474855688816	0.325624048822	-0.51708984375	-0.26904296875	0.92138671875	-47.6875	-16.25	1.125
18	12	03	12	57	36	0.92390986301	-0.055787382889	0.321662481209	-0.46533203125	-0.21728515625	0.90966796875	-46.5	-23.1875	-0.1875
18	12	03	12	57	36	0.925563835162	-0.060365512594	0.316415386539	-0.5322265625	-0.25830078125	0.89208984375	-19.3125	-30.4375	-3.6875
18	12	03	12	57	36	0.928111632669	-0.0636604256789	0.307926028332	-0.52197265625	-0.22900390625	0.916015625	-8.8125	-47.6875	-8.5625
18	12	03	12	57	36	0.932225686002	-0.0650659714056	0.294139696251	-0.35498046875	-0.13525390625	0.974609375	3.375	-66.125	-10.125
18	12	03	12	57	36	0.935219530233	-0.0619532582683	0.282604518012	-0.4755859375	-0.22607421875	0.65771484375	39.25	-66.1875	-14.4375
18	12	03	12	57	36	0.935374482815	-0.0598761740713	0.279544217376	-0.65625	-0.24658203125	0.62158203125	25.8125	-29.75	-21.375
18	12	03	12	57	36	0.937466282279	-0.0602434546916	0.273384431169	-0.5576171875	-0.09765625	0.73974609375	-1.875	-44.75	1.125
18	12	03	12	57	36	0.939184744395	-0.0596336839718	0.263315980199	-0.42626953125	-0.18212890625	0.8896484375	21.1875	-50.5	-30.0625
18	12	03	12	57	36	0.94016001065	-0.0657983828787	0.254282062219	-0.27490234375	-0.31396484375	0.9609375	-11.625	-42.4375	-31.6875
18	12	03	12	57	36	0.942057373331	-0.0666532753452	0.241709679823	-0.197265625	-0.24560546875	1.16162109375	16.3125	-46.375	-30.6875
18	12	03	12	57	36	0.943237301174	-0.0607299802425	0.227905272588	-0.130859375	-0.30224609375	1.169921875	65.875	-39.5625	-47.9375
18	12	03	12	57	36	0.942890369012	-0.0499277784731	0.217411671053	-0.177734375	-0.27197265625	0.80615234375	95.9375	-26.6875	-58.25
18	12	03	12	57	36	0.939546785011	-0.0263681031069	0.213020092229	-0.9541015625	-0.65625	0.68408203125	165.0	8.9375	-80.4375
18	12	03	12	57	37	0.935176650073	-0.00762985975192	0.213025684274	-1.5205078125	-0.32275390625	0.2109375	124.125	13.9375	-72.125
18	12	03	12	57	37	0.930000545476	0.0123292058926	0.229005844105	-1.51171875	-0.232421875	0.1298828125	99.625	33.75	-12.6875
18	12	03	12	57	37	0.929113600969	0.0166022138657	0.240793138603	-0.99658203125	-0.09765625	0.4306640625	-2.875	23.1875	36.625
18	12	03	12	57	37	0.929024092385	0.00976570887468	0.247072434529	-0.4951171875	0.15087890625	0.69921875	-68.125	15.5625	6.875
18	12	03	12	57	37	0.928940405418	-0.00891157758007	0.253125426195	-0.31494140625	0.05712890625	0.8984375	-119.75	5.625	-0.1875
18	12	03	12	57	37	0.928734649584	-0.0333260461799	0.258734633254	0.10595703125	0.205078125	1.41943359375	-156.25	4.625	-2.125
18	12	03	12	57	37	0.930638872313	-0.0532857437876	0.247690204227	0.4150390625	-0.154296875	1.2060546875	-98.25	-29.125	-21.625
18	12	03	12	57	37	0.929089461482	-0.0551765124937	0.242923141289	-0.31396484375	-0.546875	1.15234375	24.75	-8.3125	-45.1875
18	12	03	12	57	37	0.92827557529	-0.0439449282799	0.245969529122	-0.8271484375	-0.271484375	0.9443359375	59.8125	13.0625	-0.375
18	12	03	12	57	37	0.928701170871	-0.0260007031277	0.246640472627	-0.775390625	-0.02734375	0.54296875	89.6875	0.625	15.1875
18	12	03	12	57	37	0.926964203261	-0.0136722184454	0.251165977245	-1.041015625	-0.517578125	0.68115234375	85.9375	4.25	5.25
18	12	03	12	57	37	0.929199265481	-0.0156250007858	0.249084485183	-0.044921875	0.41650390625	0.9970703125	-52.4375	10.875	16.9375
18	12	03	12	57	37	0.929826361589	-0.0198978202624	0.249027934573	0.02490234375	-0.06201171875	0.69189453125	-30.625	15.1875	9.5
18	12	03	12	57	37	0.925362266985	-0.0321047788691	0.263185943885	-1.1787109375	-0.37353515625	0.53564453125	-71.625	9.125	-30.1875
18	12	03	12	57	37	0.921680308636	-0.0517605895181	0.276198900436	-1.2646484375	-0.84130859375	0.64599609375	-91.375	-10.1875	-6.9375
18	12	03	12	57	37	0.918955204395	-0.0628058518413	0.282107528873	-0.60986328125	-0.79931640625	0.6123046875	-31.4375	4.0625	-8.25
18	12	03	12	57	37	0.916545690907	-0.0674469225128	0.286267933561	-0.51513671875	-0.6943359375	0.64111328125	0.25	11.625	-10.4375
18	12	03	12	57	37	0.915205133944	-0.0679964331875	0.289137436274	-0.5859375	-0.42822265625	0.7216796875	4.8125	8.1875	-5.875
18	12	03	12	57	37	0.914992781647	-0.0672618267878	0.290959281576	-0.56298828125	-0.181640625	0.71533203125	-4.3125	3.125	2.375
18	12	03	12	57	37	0.915098154525	-0.067687844552	0.291442252241	-0.53466796875	-0.15234375	0.74951171875	-10.75	-3.5	-0.5625
18	12	03	12	57	37	0.914994254219	-0.069764420824	0.291387003512	-0.537109375	-0.19580078125	0.75048828125	-14.875	-8.375	-7.125
18	12	03	12	57	37	0.915146678564	-0.0719641121875	0.2904200558	-0.515625	-0.21142578125	0.74658203125	-13.1875	-12.4375	-6.4375
18	12	03	12	57	37	0.915872255264	-0.0725739494508	0.287915323431	-0.5146484375	-0.22265625	0.79150390625	-2.0	-17.875	-4.0
18	12	03	12	57	37	0.91696476259	-0.0730007226291	0.284251141542	-0.49951171875	-0.21484375	0.826171875	-0.1875	-23.0	-3.6875
18	12	03	12	57	37	0.918350082415	-0.0732433935198	0.280155980213	-0.4189453125	-0.1884765625	0.8486328125	-1.125	-20.5	0.3125
18	12	03	12	57	37	0.919211865645	-0.0746478161809	0.277472585739	-0.39990234375	-0.21826171875	0.86962890625	-8.5	-12.375	-0.25
18	12	03	12	57	37	0.919360908199	-0.0772136202942	0.276504110619	-0.47802734375	-0.2880859375	0.904296875	-14.1875	-8.0625	-3.25
18	12	03	12	57	37	0.919471161462	-0.0802034722624	0.275584990308	-0.5029296875	-0.3994140625	0.947265625	-10.75	-8.375	-0.8125
18	12	03	12	57	37	0.919895544491	-0.0813629328384	0.274302340717	-0.43896484375	-0.4091796875	0.9287109375	-0.25	-5.0625	5.125
18	12	03	12	57	37	0.920241150934	-0.0795300271716	0.273685834104	-0.49951171875	-0.357421875	0.92431640625	12.75	-0.5625	4.25
18	12	03	12	57	37	0.920634533107	-0.0773960477345	0.273205606987	-0.50830078125	-0.2626953125	0.8701171875	9.5625	-1.5	3.0625
18	12	03	12	57	37	0.920636978663	-0.0767248347265	0.273206332725	-0.46240234375	-0.24462890625	0.83349609375	1.4375	0.8125	-1.125
18	12	03	12	57	37	0.920330970615	-0.0780065645607	0.273694393967	-0.46337890625	-0.29443359375	0.828125	-7.25	0.8125	-3.1875
18	12	03	12	57	37	0.920092210763	-0.0803264793263	0.274123266455	-0.48974609375	-0.29541015625	0.82861328125	-13.25	-3.0625	-3.0
18	12	03	12	57	37	0.920146610488	-0.0823401510812	0.274060250819	-0.453125	-0.28564453125	0.82275390625	-11.875	-3.8125	0.5
18	12	03	12	57	37	0.920249749157	-0.0836202265931	0.273688391273	-0.4453125	-0.30322265625	0.78662109375	-5.5625	-4.9375	0.1875
18	12	03	12	57	37	0.920262209808	-0.0844758836887	0.273081722271	-0.47265625	-0.275390625	0.78076171875	-3.8125	-7.125	-4.3125
18	12	03	12	57	37	0.920426563473	-0.0849014157686	0.272160613165	-0.490234375	-0.3271484375	0.7724609375	2.5	-9.8125	-2.0
18	12	03	12	57	37	0.920843364414	-0.0849004520381	0.270448528383	-0.46533203125	-0.30810546875	0.77294921875	5.125	-12.5	-2.0625
18	12	03	12	57	37	0.921410111672	-0.0835592503232	0.268561505787	-0.4873046875	-0.3134765625	0.79150390625	12.75	-12.5625	-0.0625
18	12	03	12	57	37	0.922048571185	-0.0811202536148	0.266860608581	-0.4921875	-0.29248046875	0.77685546875	17.625	-10.5	1.4375
18	12	03	12	57	37	0.922773580454	-0.0773962759635	0.265088348982	-0.5	-0.29931640625	0.8359375	24.3125	-8.3125	3.375
18	12	03	12	57	37	0.923662294782	-0.0731825210761	0.263066443568	-0.4501953125	-0.267578125	0.8349609375	25.6875	-6.25	5.8125
18	12	03	12	57	37	0.92435744507	-0.0687896751581	0.261486218613	-0.435546875	-0.28564453125	0.87255859375	27.3125	-1.1875	6.3125
18	12	03	12	57	37	0.92528110618	-0.065734020538	0.259579191595	-0.45703125	-0.27099609375	0.87548828125	18.6875	-7.125	8.375
18	12	03	12	57	37	0.926238641946	-0.0640279627942	0.257515705461	-0.40771484375	-0.23291015625	0.89892578125	9.125	-6.75	7.75
18	12	03	12	57	37	0.927333358221	-0.0631731735509	0.255805575219	-0.35107421875	-0.27880859375	0.8623046875	5.9375	-4.5	15.0625
18	12	03	12	57	37	0.92808774295	-0.0639681653806	0.255201239939	-0.36865234375	-0.19580078125	0.86181640625	-9.9375	-2.125	11.125
18	12	03	12	57	37	0.929034745353	-0.0676283094311	0.255009997115	-0.421875	-0.1650390625	0.9189453125	-31.5625	-6.5	15.1875
18	12	03	12	57	37	0.929762523153	-0.0744640109136	0.254703538969	-0.43603515625	-0.171875	0.935546875	-49.1875	-12.0625	10.1875
18	12	03	12	57	38	0.930301133531	-0.0813601503082	0.254212322606	-0.4072265625	-0.26123046875	0.9326171875	-43.625	-11.3125	9.8125
18	12	03	12	57	38	0.930519705884	-0.0860021164703	0.254099936739	-0.4423828125	-0.2763671875	0.9326171875	-29.8125	-7.125	4.75
18	12	03	12	57	38	0.930570091493	-0.0868556500193	0.254524287126	-0.51416015625	-0.298828125	0.90234375	-6.8125	-3.125	2.5
18	12	03	12	57	38	0.930506369603	-0.0859398470581	0.254889773661	-0.546875	-0.3212890625	0.87744140625	6.125	-2.625	-0.8125
18	12	03	12	57	38	0.930450719563	-0.0833157460118	0.254769174984	-0.50439453125	-0.3232421875	0.91015625	17.1875	1.0625	-3.0625
18	12	03	12	57	38	0.930374583982	-0.0800794760995	0.255009185323	-0.416015625	-0.25634765625	0.91064453125	16.1875	9.0625	-1.1875
18	12	03	12	57	38	0.929791273524	-0.0770909458715	0.256359439953	-0.4541015625	-0.29296875	0.8955078125	16.625	13.375	-4.875
18	12	03	12	57	38	0.929397206924	-0.0762341309154	0.257267303289	-0.43896484375	-0.2734375	0.88427734375	3.75	7.875	-3.0625
18	12	03	12	57	38	0.929205044571	-0.0759282104208	0.257753080874	-0.3515625	-0.267578125	0.88134765625	0.4375	9.75	0.3125
18	12	03	12	57	38	0.928594408977	-0.0755619743863	0.259034749027	-0.390625	-0.283203125	0.8046875	2.75	10.125	-3.9375
18	12	03	12	57	38	0.927922109108	-0.0744632620609	0.260194168988	-0.44189453125	-0.25	0.798828125	5.8125	7.9375	-7.875
18	12	03	12	57	38	0.927629441607	-0.0734266494442	0.260624931943	-0.4384765625	-0.263671875	0.8056640625	6.75	3.75	-3.75
18	12	03	12	57	38	0.927636754202	-0.0731220444489	0.26019972912	-0.38623046875	-0.19140625	0.822265625	-1.1875	0.75	-3.5625
18	12	03	12	57	38	0.927471825789	-0.0741000853246	0.260021716213	-0.4443359375	-0.2470703125	0.8583984375	-5.9375	-1.625	-5.4375
18	12	03	12	57	38	0.927396324732	-0.0777611503033	0.259346254034	-0.40869140625	-0.22998046875	0.8955078125	-22.4375	-5.875	-6.1875
18	12	03	12	57	38	0.926864835454	-0.0817301293825	0.259534361564	-0.43505859375	-0.3525390625	0.9189453125	-18.375	-1.5	-6.875
18	12	03	12	57	38	0.926264184556	-0.0856318299244	0.260069299578	-0.41650390625	-0.37646484375	0.890625	-17.0	0.5625	-5.375
18	12	03	12	57	38	0.925841619494	-0.0870360702352	0.26043682447	-0.4130859375	-0.4169921875	0.9228515625	-1.625	4.625	-2.0625
18	12	03	12	57	38	0.92537440346	-0.0874042705464	0.260992081604	-0.43115234375	-0.3837890625	0.8876953125	2.8125	5.0	-3.5
18	12	03	12	57	38	0.924996705784	-0.0861214352927	0.26147712884	-0.40380859375	-0.31884765625	0.90185546875	7.75	9.75	-3.625
18	12	03	12	57	38	0.924353965124	-0.0847812769121	0.262950137464	-0.43408203125	-0.337890625	0.88232421875	8.375	12.8125	-3.0625
18	12	03	12	57	38	0.923583748693	-0.083740213006	0.264465264544	-0.4423828125	-0.28369140625	0.87548828125	3.6875	12.5625	-7.375
18	12	03	12	57	38	0.922919757619	-0.083313634624	0.266176381389	-0.4384765625	-0.30126953125	0.86865234375	0.375	12.1875	-3.1875
18	12	03	12	57	38	0.922157524081	-0.084842398628	0.267894451495	-0.37841796875	-0.28173828125	0.8564453125	-11.75	12.8125	-3.9375
18	12	03	12	57	38	0.920908312681	-0.0872201735698	0.270693820701	-0.43603515625	-0.33837890625	0.85205078125	-14.875	14.75	-6.75
18	12	03	12	57	38	0.919544275311	-0.0910083315292	0.273635379105	-0.419921875	-0.32470703125	0.80908203125	-23.3125	13.5	-7.5
18	12	03	12	57	38	0.9180796415	-0.0943654760826	0.276565311857	-0.46044921875	-0.4130859375	0.83154296875	-16.25	12.9375	-7.75
18	12	03	12	57	38	0.916898124743	-0.0976592330974	0.27851192539	-0.46826171875	-0.3837890625	0.787109375	-15.4375	5.6875	-9.0625
18	12	03	12	57	38	0.915964052012	-0.0992441892831	0.27978804654	-0.45703125	-0.3876953125	0.8173828125	-5.8125	6.3125	-8.0
18	12	03	12	57	38	0.915300194111	-0.0999164055588	0.280950039577	-0.4140625	-0.37158203125	0.787109375	-1.3125	8.25	-3.4375
18	12	03	12	57	38	0.914489311735	-0.0987548359065	0.282409533831	-0.4169921875	-0.35009765625	0.7998046875	7.5	13.5625	-5.6875
18	12	03	12	57	38	0.913704808853	-0.0972299105212	0.283877158716	-0.447265625	-0.36279296875	0.7880859375	10.0625	12.125	-5.0625
18	12	03	12	57	38	0.913217734186	-0.0958872517314	0.284304785847	-0.43798828125	-0.33154296875	0.81640625	8.875	7.75	-6.4375
18	12	03	12	57	38	0.91261589104	-0.0952167462562	0.284856765883	-0.48046875	-0.40283203125	0.82470703125	9.0625	5.25	-6.3125
18	12	03	12	57	38	0.912474049456	-0.0947327396318	0.284686531986	-0.3447265625	-0.31640625	0.82421875	2.9375	7.6875	-1.3125
18	12	03	12	57	38	0.9117967197	-0.0935661270031	0.285825292078	-0.39111328125	-0.408203125	0.84033203125	10.3125	14.8125	-1.5625
18	12	03	12	57	38	0.911142764558	-0.0939951672976	0.286746296081	-0.4130859375	-0.3271484375	0.83349609375	-3.25	9.6875	-5.625
18	12	03	12	57	38	0.910660879739	-0.0951555168575	0.287114529376	-0.4443359375	-0.38427734375	0.8955078125	-4.75	5.3125	-4.4375
18	12	03	12	57	38	0.910398652483	-0.0982053789116	0.28686468669	-0.37646484375	-0.38427734375	0.87255859375	-14.25	1.3125	-2.4375
18	12	03	12	57	38	0.910145742328	-0.09869932703	0.286942199362	-0.3623046875	-0.3623046875	0.87451171875	-2.25	8.3125	-0.9375
18	12	03	12	57	38	0.909690145719	-0.0976586307804	0.287848814225	-0.40283203125	-0.3798828125	0.83154296875	7.125	11.6875	-0.25
18	12	03	12	57	38	0.909435169224	-0.0963146776534	0.288028494199	-0.39794921875	-0.3173828125	0.8544921875	6.25	9.75	-3.0625
18	12	03	12	57	38	0.909145810062	-0.0954007990015	0.288155580349	-0.40185546875	-0.357421875	0.86572265625	6.0625	8.6875	-2.375
18	12	03	12	57	38	0.909008175169	-0.0958264174455	0.288211683553	-0.3271484375	-0.275390625	0.85791015625	-6.9375	9.75	-0.875
18	12	03	12	57	38	0.908316164152	-0.096739760797	0.289486867798	-0.41064453125	-0.36572265625	0.84326171875	-5.3125	10.9375	-2.8125
18	12	03	12	57	38	0.907746039708	-0.0992465748093	0.290232142201	-0.48388671875	-0.3515625	0.849609375	-14.9375	1.3125	-5.875
18	12	03	12	57	38	0.907664557855	-0.10192991807	0.290164569164	-0.42041015625	-0.36279296875	0.8583984375	-15.625	-0.5625	0.125
18	12	03	12	57	38	0.907278872545	-0.10449118263	0.290585584406	-0.46240234375	-0.39990234375	0.84521484375	-12.6875	-0.125	-2.5625
18	12	03	12	57	38	0.906774291418	-0.106083314384	0.291149257543	-0.48583984375	-0.3486328125	0.8486328125	-10.625	1.8125	-6.0
18	12	03	12	57	38	0.9060774596	-0.106385517823	0.292911130254	-0.5087890625	-0.39697265625	0.837890625	-3.1875	8.9375	-2.1875
18	12	03	12	57	39	0.905257287698	-0.106572667003	0.295180651561	-0.43603515625	-0.35546875	0.81396484375	-5.3125	15.375	-0.4375
18	12	03	12	57	39	0.904354753424	-0.105529416796	0.297850522826	-0.47021484375	-0.3916015625	0.8515625	1.3125	19.375	0.625
18	12	03	12	57	39	0.90373384492	-0.106084656387	0.299576233342	-0.4443359375	-0.32958984375	0.8271484375	-8.75	12.25	-1.125
18	12	03	12	57	39	0.903241109525	-0.10571790794	0.30171109639	-0.36279296875	-0.30908203125	0.83251953125	-6.875	20.375	5.4375
18	12	03	12	57	39	0.902283124918	-0.105651903486	0.305114884764	-0.2998046875	-0.27392578125	0.71142578125	-9.8125	26.875	5.1875
18	12	03	12	57	39	0.900702090457	-0.106201913492	0.308656940533	-0.36669921875	-0.29248046875	0.68017578125	-9.25	23.9375	-5.9375
18	12	03	12	57	39	0.899300109647	-0.110718772832	0.310244499616	-0.4306640625	-0.298828125	0.72412109375	-28.125	5.5625	-15.3125
18	12	03	12	57	39	0.898784879595	-0.117131964954	0.309767963596	-0.35595703125	-0.27392578125	0.744140625	-38.8125	-6.4375	-10.8125
18	12	03	12	57	39	0.898143487701	-0.122621153027	0.30951312444	-0.41943359375	-0.36328125	0.70751953125	-28.0625	-8.0	-10.3125
18	12	03	12	57	39	0.897903654129	-0.125978733065	0.308232849796	-0.515625	-0.38427734375	0.72509765625	-13.6875	-15.0	-12.4375
18	12	03	12	57	39	0.898534544479	-0.126469912109	0.305432162256	-0.53759765625	-0.388671875	0.7578125	3.8125	-19.9375	-8.25
18	12	03	12	57	39	0.899367563194	-0.125551345605	0.302250978822	-0.66064453125	-0.46240234375	0.77978515625	15.875	-26.125	-8.875
18	12	03	12	57	39	0.900448914557	-0.123046499813	0.298338934071	-0.69287109375	-0.45849609375	0.84912109375	25.3125	-27.4375	-9.9375
18	12	03	12	57	39	0.901685700452	-0.117433377626	0.294743129187	-0.6650390625	-0.55712890625	0.93115234375	45.625	-16.9375	-1.875
18	12	03	12	57	39	0.902841327586	-0.109498197789	0.292483480381	-0.4931640625	-0.498046875	0.92236328125	52.5	3.1875	8.0625
18	12	03	12	57	39	0.903483344769	-0.100468422206	0.292371653928	-0.447265625	-0.4794921875	0.97509765625	52.5	21.1875	14.0
18	12	03	12	57	39	0.903488653066	-0.095585949919	0.292312333437	-0.4716796875	-0.43212890625	0.974609375	29.0	14.25	2.3125
18	12	03	12	57	39	0.903568408248	-0.0952152605287	0.291200005117	-0.3447265625	-0.32568359375	0.9931640625	-0.1875	8.3125	-2.6875
18	12	03	12	57	39	0.903016161057	-0.0963746210414	0.290832849438	-0.31787109375	-0.34619140625	0.8818359375	-5.0	8.75	-8.25
18	12	03	12	57	39	0.902111516156	-0.097413395114	0.291324645914	-0.34375	-0.24609375	0.7939453125	-9.1875	9.75	-13.125
18	12	03	12	57	39	0.901347501009	-0.0968672366832	0.291822469176	-0.3779296875	-0.203125	0.7392578125	-2.0625	8.625	-13.0
18	12	03	12	57	39	0.900923818397	-0.0959520489512	0.291640515196	-0.43798828125	-0.19287109375	0.744140625	0.3125	1.8125	-12.625
18	12	03	12	57	39	0.900935160448	-0.0971674531152	0.290769941357	-0.46533203125	-0.22021484375	0.77734375	-11.0625	-7.75	-9.0
18	12	03	12	57	39	0.901610809196	-0.100158633759	0.288940263386	-0.4296875	-0.228515625	0.8359375	-21.75	-13.875	-2.0
18	12	03	12	57	39	0.902110341588	-0.103028569459	0.287784185425	-0.45068359375	-0.322265625	0.826171875	-17.1875	-11.875	1.125
18	12	03	12	57	39	0.902703625382	-0.104369384679	0.286863221048	-0.52099609375	-0.39453125	0.8603515625	-6.625	-11.125	4.75
18	12	03	12	57	39	0.903819519699	-0.10443241479	0.284793481828	-0.513671875	-0.3935546875	0.90283203125	1.25	-14.0	7.1875
18	12	03	12	57	39	0.905015239746	-0.103086777713	0.282649418348	-0.435546875	-0.36328125	0.92333984375	7.3125	-7.5	9.375
18	12	03	12	57	39	0.905309750384	-0.101261385915	0.282543071368	-0.5166015625	-0.40185546875	0.923828125	9.6875	1.4375	4.0
18	12	03	12	57	39	0.905236996647	-0.101015928087	0.282478377755	-0.5185546875	-0.3359375	0.90185546875	-1.0	-0.9375	-3.625
18	12	03	12	57	39	0.905158561332	-0.100464665674	0.282411912561	-0.53955078125	-0.37939453125	0.95703125	1.5625	0.1875	-3.5
18	12	03	12	57	39	0.904973527688	-0.0994268480882	0.282655453343	-0.61328125	-0.4345703125	0.90771484375	8.625	-2.5625	-3.25
18	12	03	12	57	39	0.905455483821	-0.0960081884766	0.282165197284	-0.5625	-0.32421875	0.9189453125	15.5	-0.6875	2.3125
18	12	03	12	57	39	0.905826885952	-0.0907596913557	0.282838204265	-0.5322265625	-0.35791015625	0.9296875	24.9375	11.0625	8.8125
18	12	03	12	57	39	0.905838902782	-0.0865493945249	0.284306826303	-0.48046875	-0.310546875	0.888671875	16.1875	15.75	7.5625
18	12	03	12	57	39	0.905545279379	-0.0839259071951	0.286019491721	-0.43603515625	-0.3408203125	0.90087890625	9.6875	18.5	5.9375
18	12	03	12	57	39	0.905198547851	-0.0828290242369	0.287490570491	-0.3671875	-0.37158203125	0.8271484375	5.5625	16.0625	5.9375
18	12	03	12	57	39	0.905013096192	-0.0816080467801	0.288039171844	-0.3232421875	-0.2666015625	0.79833984375	3.0	13.375	1.8125
18	12	03	12	57	39	0.904516303648	-0.0795930400133	0.289074108515	-0.3857421875	-0.2333984375	0.72900390625	7.25	12.0	-3.5625
18	12	03	12	57	39	0.904259504773	-0.0791036326822	0.289375248878	-0.44384765625	-0.12744140625	0.72265625	-5.8125	1.8125	-8.25
18	12	03	12	57	39	0.904008094979	-0.0806289037517	0.289678105379	-0.4775390625	-0.1513671875	0.7265625	-16.3125	-3.9375	-8.875
18	12	03	12	57	39	0.903816342884	-0.0837409523525	0.290163620615	-0.5439453125	-0.2548828125	0.72802734375	-20.625	-9.875	-5.5
18	12	03	12	57	39	0.904142472045	-0.0876492668505	0.289193750932	-0.50244140625	-0.287109375	0.7451171875	-20.9375	-17.125	-2.8125
18	12	03	12	57	39	0.90493791472	-0.089419536292	0.287302223431	-0.49365234375	-0.37841796875	0.80029296875	-4.6875	-16.75	4.0
18	12	03	12	57	39	0.905860838694	-0.0893592256484	0.285168239228	-0.55078125	-0.41552734375	0.78125	9.0625	-19.3125	5.0625
18	12	03	12	57	39	0.907267390128	-0.0869179738659	0.281750960228	-0.50244140625	-0.3486328125	0.82470703125	19.8125	-18.5	5.75
18	12	03	12	57	39	0.908503877328	-0.0830074083417	0.278685166535	-0.49169921875	-0.35693359375	0.88623046875	27.5	-11.375	6.3125
18	12	03	12	57	39	0.90937549858	-0.0797740638059	0.276310012892	-0.478515625	-0.2958984375	0.875	20.3125	-8.0625	2.1875
18	12	03	12	57	39	0.91003723422	-0.0772097318101	0.274659125016	-0.43505859375	-0.2119140625	0.95654296875	8.6875	-0.375	0.75
18	12	03	12	57	40	0.910050790141	-0.0765394829535	0.27466321634	-0.44580078125	-0.271484375	0.94384765625	-0.6875	5.0625	-0.5625
18	12	03	12	57	40	0.909921648104	-0.0778816758103	0.274783153995	-0.390625	-0.2353515625	0.9453125	-13.9375	5.625	-2.875
18	12	03	12	57	40	0.909644123515	-0.0778230059372	0.275707072799	-0.38720703125	-0.3056640625	0.95068359375	-4.0625	13.125	1.5625
18	12	03	12	57	40	0.909364339431	-0.0775758155189	0.27624558697	-0.36962890625	-0.322265625	0.8994140625	0.5625	10.9375	0.0625
18	12	03	12	57	40	0.909306064939	-0.0760501649157	0.275391929454	-0.3583984375	-0.28076171875	0.91455078125	8.0625	7.125	-3.625
18	12	03	12	57	40	0.909390849011	-0.073854817592	0.274422528838	-0.40283203125	-0.29052734375	0.8720703125	13.625	3.25	-2.1875
18	12	03	12	57	40	0.909586982937	-0.0719636996969	0.273388813352	-0.42529296875	-0.22265625	0.826171875	8.75	-1.0625	-3.0625
18	12	03	12	57	40	0.909555033493	-0.0711677069556	0.272829888586	-0.458984375	-0.228515625	0.8203125	2.8125	-1.875	-5.625
18	12	03	12	57	40	0.909199994689	-0.0725724217028	0.272955315269	-0.57470703125	-0.2998046875	0.8662109375	-7.375	-7.5	-8.4375
18	12	03	12	57	40	0.908949785545	-0.0762341043611	0.272587277884	-0.60498046875	-0.31787109375	0.88037109375	-18.25	-16.0	-10.0
18	12	03	12	57	40	0.908951590399	-0.0799574659832	0.271855384343	-0.630859375	-0.447265625	0.9638671875	-13.5	-17.375	-4.625
18	12	03	12	57	40	0.909027400405	-0.0819119567141	0.270944244302	-0.59765625	-0.4755859375	0.9443359375	-1.125	-14.4375	-2.125
18	12	03	12	57	40	0.909130487506	-0.080628491037	0.27002304644	-0.54248046875	-0.41015625	0.916015625	13.5625	-5.9375	-1.9375
18	12	03	12	57	40	0.90895996635	-0.0777608781312	0.269904712006	-0.48681640625	-0.38623046875	0.92578125	20.0625	5.4375	-1.1875
18	12	03	12	57	40	0.908774034044	-0.0748919161644	0.270086983723	-0.36865234375	-0.34130859375	0.84130859375	18.4375	11.3125	1.1875
18	12	03	12	57	40	0.908576658791	-0.072327243092	0.270265850136	-0.33251953125	-0.228515625	0.78125	11.5	10.8125	-1.5625
18	12	03	12	57	40	0.908292727105	-0.071535453005	0.270089061047	-0.396484375	-0.220703125	0.794921875	2.75	3.0	-6.8125
18	12	03	12	57	40	0.908367444691	-0.0728183282836	0.268994444883	-0.31298828125	-0.123046875	0.7421875	-12.625	-3.625	-7.3125
18	12	03	12	57	40	0.908222009591	-0.0737930382793	0.268804417355	-0.2783203125	-0.13427734375	0.712890625	-11.4375	3.1875	-5.625
18	12	03	12	57	40	0.907795326162	-0.0748917410879	0.269231841841	-0.296875	-0.1376953125	0.69091796875	-12.125	5.25	-7.625
18	12	03	12	57	40	0.907493473958	-0.0773334834211	0.269415939874	-0.298828125	-0.12451171875	0.7236328125	-21.5	1.8125	-7.375
18	12	03	12	57	40	0.907236737205	-0.0813607757464	0.269595308681	-0.3505859375	-0.22265625	0.76416015625	-25.875	-3.375	-5.4375
18	12	03	12	57	40	0.907194588673	-0.08496365925	0.269112624737	-0.39013671875	-0.30712890625	0.7939453125	-18.3125	-7.8125	-3.0625
18	12	03	12	57	40	0.907591857175	-0.0856322377685	0.268066135623	-0.37890625	-0.3271484375	0.8154296875	-1.3125	-5.0625	2.5625
18	12	03	12	57	40	0.908089799521	-0.0827644688904	0.267275523061	-0.3828125	-0.32958984375	0.818359375	17.6875	2.6875	6.6875
18	12	03	12	57	40	0.908333169283	-0.0791632926059	0.267397366929	-0.49462890625	-0.35693359375	0.9169921875	20.0625	5.375	5.5
18	12	03	12	57	40	0.908786305429	-0.0766019755063	0.267588096111	-0.47705078125	-0.333984375	1.01123046875	9.8125	7.3125	9.3125
18	12	03	12	57	40	0.908724838038	-0.0743435553956	0.269419091557	-0.39453125	-0.396484375	1.01611328125	9.1875	21.4375	12.5625
18	12	03	12	57	40	0.907632562519	-0.0711090743332	0.273449487565	-0.3701171875	-0.38232421875	0.96435546875	12.1875	37.75	7.0
18	12	03	12	57	40	0.905971335281	-0.0666523410447	0.278511567937	-0.3759765625	-0.31396484375	0.90966796875	15.125	44.9375	1.1875
18	12	03	12	57	40	0.90420462079	-0.0634176185366	0.283456612593	-0.4169921875	-0.30908203125	0.84716796875	10.25	38.5	-1.0625
18	12	03	12	57	40	0.902971834178	-0.0621350092736	0.286443613478	-0.42724609375	-0.27001953125	0.83447265625	1.1875	23.3125	-4.5
18	12	03	12	57	40	0.902379634391	-0.0604882452436	0.287914281346	-0.3720703125	-0.18798828125	0.75634765625	2.125	15.5625	-2.8125
18	12	03	12	57	40	0.90179890169	-0.0584109339369	0.289369109503	-0.38720703125	-0.1640625	0.66748046875	5.0625	13.125	-2.9375
18	12	03	12	57	40	0.90134240851	-0.0573753547775	0.290783181021	-0.43603515625	-0.14404296875	0.6494140625	-1.75	6.8125	-3.6875
18	12	03	12	57	40	0.901456003672	-0.0587786669061	0.291146667853	-0.43603515625	-0.13525390625	0.67626953125	-15.375	-3.1875	-1.25
18	12	03	12	57	40	0.901699951943	-0.0626239863734	0.290841418196	-0.4462890625	-0.21923828125	0.6923828125	-22.9375	-11.3125	-1.9375
18	12	03	12	57	40	0.90201447418	-0.0670803834838	0.290050939322	-0.49365234375	-0.3056640625	0.74951171875	-21.6875	-16.3125	-1.75
18	12	03	12	57	40	0.902675148707	-0.0701314318659	0.288521565213	-0.49658203125	-0.3369140625	0.76708984375	-11.875	-18.1875	2.0625
18	12	03	12	57	40	0.903375941561	-0.0710492970255	0.286943939276	-0.50537109375	-0.357421875	0.78955078125	0.75	-14.0	4.1875
18	12	03	12	57	40	0.903941721137	-0.0709237191061	0.285403881704	-0.533203125	-0.39697265625	0.84130859375	8.1875	-11.875	3.25
18	12	03	12	57	40	0.904523456253	-0.0708652225326	0.28315569968	-0.50048828125	-0.39111328125	0.896484375	8.625	-12.0625	0.6875
18	12	03	12	57	40	0.905065965818	-0.0703153488415	0.281017244849	-0.46142578125	-0.37548828125	0.9287109375	10.1875	-7.5	0.625
18	12	03	12	57	40	0.905299922169	-0.0689107073981	0.279732304699	-0.50390625	-0.35498046875	0.9345703125	12.125	-3.25	-0.9375
18	12	03	12	57	40	0.905580709946	-0.0672608979147	0.278687168674	-0.51806640625	-0.26123046875	0.94580078125	6.875	-2.4375	-2.0
18	12	03	12	57	40	0.905898504714	-0.067078726363	0.277897580647	-0.49267578125	-0.2587890625	0.9853515625	-3.3125	-1.3125	-0.4375
18	12	03	12	57	40	0.906077002223	-0.0681770300763	0.277529951439	-0.5087890625	-0.33251953125	0.98779296875	-6.8125	-2.25	0.5625
18	12	03	12	57	40	0.906473892324	-0.0681793372652	0.276562736928	-0.48876953125	-0.32568359375	0.98046875	0.25	-2.75	2.625
18	12	03	12	57	40	0.906942505055	-0.0659195036987	0.275580147407	-0.46533203125	-0.30419921875	0.94970703125	11.875	1.3125	4.0
18	12	03	12	57	40	0.907136368432	-0.0621970097855	0.274973041299	-0.48193359375	-0.28662109375	0.919921875	20.25	4.5	1.875
18	12	03	12	57	41	0.907267854898	-0.0580470754849	0.274121362779	-0.47265625	-0.24658203125	0.90771484375	21.875	4.625	-0.75
18	12	03	12	57	41	0.907272702063	-0.0547513195473	0.273451406434	-0.47705078125	-0.21630859375	0.8857421875	16.25	3.3125	-3.3125
18	12	03	12	57	41	0.90719085573	-0.0524306630607	0.273200987031	-0.5185546875	-0.21875	0.88232421875	9.9375	1.25	-3.6875
18	12	03	12	57	41	0.907168845987	-0.0510866126684	0.273255394166	-0.556640625	-0.23486328125	0.87939453125	4.6875	-1.4375	-1.875
18	12	03	12	57	41	0.907440464656	-0.0504777873324	0.273019519635	-0.50732421875	-0.255859375	0.8857421875	1.8125	-2.1875	2.9375
18	12	03	12	57	41	0.90778900368	-0.0491340111586	0.272464876785	-0.478515625	-0.28662109375	0.91943359375	7.625	0.5	4.75
18	12	03	12	57	41	0.908118990827	-0.0472431844939	0.271617791987	-0.48388671875	-0.31396484375	0.93310546875	13.4375	-0.0625	4.125
18	12	03	12	57	41	0.908574460393	-0.0448000573645	0.270021054197	-0.43408203125	-0.259765625	0.91064453125	15.6875	-0.75	3.0625
18	12	03	12	57	41	0.908975189941	-0.041994018982	0.268749513921	-0.40380859375	-0.19189453125	0.90625	13.0625	3.0625	2.25
18	12	03	12	57	41	0.909012022151	-0.0402838873712	0.268681321527	-0.4443359375	-0.185546875	0.8955078125	5.25	5.4375	-0.0625
18	12	03	12	57	41	0.908966737376	-0.0402235482091	0.269052201071	-0.453125	-0.177734375	0.87939453125	-5.125	3.5	-0.9375
18	12	03	12	57	41	0.908967524714	-0.0416274410324	0.269479695247	-0.41748046875	-0.18798828125	0.87646484375	-13.0625	3.1875	-0.3125
18	12	03	12	57	41	0.908816298468	-0.0424806006537	0.270508652439	-0.40966796875	-0.2119140625	0.845703125	-9.1875	7.0625	1.4375
18	12	03	12	57	41	0.908620477761	-0.0424218213116	0.271438617802	-0.4248046875	-0.22607421875	0.82373046875	-2.625	6.875	1.0
18	12	03	12	57	41	0.908588009818	-0.0424813418536	0.271550991245	-0.42138671875	-0.21337890625	0.83447265625	-2.4375	3.0625	-0.3125
18	12	03	12	57	41	0.908631122545	-0.0424194686753	0.271423564315	-0.40185546875	-0.20068359375	0.81640625	-0.875	-0.3125	0.875
18	12	03	12	57	41	0.908743748411	-0.0421166836649	0.271072742255	-0.42041015625	-0.2216796875	0.78076171875	1.8125	-1.125	0.375
18	12	03	12	57	41	0.908911002914	-0.0422380239081	0.270640748568	-0.4833984375	-0.2099609375	0.81201171875	-1.5	-5.0	-0.9375
18	12	03	12	57	41	0.909309022207	-0.0431522002081	0.269594438924	-0.48974609375	-0.19873046875	0.81298828125	-5.8125	-10.875	-1.0625
18	12	03	12	57	41	0.909586547479	-0.0445576553254	0.269054992705	-0.48046875	-0.2373046875	0.79931640625	-6.9375	-8.4375	0.5625
18	12	03	12	57	41	0.90973487033	-0.04510527133	0.269044703684	-0.5166015625	-0.27587890625	0.8291015625	-1.9375	-5.4375	1.6875
18	12	03	12	57	41	0.910022086975	-0.0459619445632	0.268691208455	-0.544921875	-0.275390625	0.8515625	-3.0625	-9.0625	1.75
18	12	03	12	57	41	0.910620678446	-0.047060027018	0.267466975866	-0.4814453125	-0.2568359375	0.84130859375	-4.375	-11.1875	3.125
18	12	03	12	57	41	0.911040890627	-0.0475479601902	0.266305199371	-0.4111328125	-0.271484375	0.845703125	0.375	-5.375	2.75
18	12	03	12	57	41	0.911082553507	-0.0466924468033	0.265750213571	-0.4287109375	-0.26416015625	0.83154296875	7.4375	-0.3125	-0.375
18	12	03	12	57	41	0.910962176895	-0.0466925336901	0.265445528128	-0.45849609375	-0.18896484375	0.8037109375	-1.5625	-3.375	-5.625
18	12	03	12	57	41	0.911022893858	-0.0487677403318	0.26507921935	-0.4326171875	-0.15478515625	0.79248046875	-15.5	-6.375	-5.125
18	12	03	12	57	41	0.910870672726	-0.0520654482232	0.265393398446	-0.44482421875	-0.23291015625	0.8125	-19.125	-5.125	-4.125
18	12	03	12	57	41	0.910638586101	-0.0551754210345	0.265867404896	-0.5078125	-0.2744140625	0.82421875	-16.5	-7.3125	-4.3125
18	12	03	12	57	41	0.910798793123	-0.0569478135628	0.266000612547	-0.4931640625	-0.2314453125	0.798828125	-12.3125	-7.1875	0.125
18	12	03	12	57	41	0.911033175898	-0.0574965330093	0.266363980947	-0.47216796875	-0.2431640625	0.810546875	-5.875	-2.5625	4.375
18	12	03	12	57	41	0.911277076402	-0.0579848106217	0.266485982289	-0.48291015625	-0.3154296875	0.89013671875	-2.25	-1.375	5.125
18	12	03	12	57	41	0.911768012232	-0.058656383703	0.265998460122	-0.45166015625	-0.3212890625	0.90966796875	-2.1875	-3.375	7.375
18	12	03	12	57	41	0.912482192425	-0.0584110674348	0.265016567191	-0.37890625	-0.2431640625	0.896484375	-1.375	-0.5625	8.125
18	12	03	12	57	41	0.912776730603	-0.056823479518	0.265196582713	-0.3876953125	-0.23388671875	0.8857421875	4.625	7.8125	7.0
18	12	03	12	57	41	0.912891221819	-0.0563384994476	0.265517305089	-0.443359375	-0.24755859375	0.91259765625	-1.0625	4.375	3.3125
18	12	03	12	57	41	0.913268549651	-0.057373015884	0.265136575532	-0.39794921875	-0.21728515625	0.8916015625	-9.75	-0.375	3.375
18	12	03	12	57	41	0.913577135417	-0.0572511593413	0.265076529871	-0.39501953125	-0.2021484375	0.84521484375	-4.4375	2.3125	4.3125
18	12	03	12	57	41	0.913803562712	-0.0561551852044	0.265211173601	-0.45751953125	-0.1923828125	0.84619140625	0.875	1.25	2.8125
18	12	03	12	57	41	0.914259658249	-0.0559700985789	0.265079758046	-0.47509765625	-0.181640625	0.8671875	-5.8125	-2.3125	4.4375
18	12	03	12	57	41	0.914763050776	-0.0562151711326	0.265084134885	-0.4677734375	-0.23486328125	0.8583984375	-5.375	-2.4375	7.4375
18	12	03	12	57	41	0.915131675278	-0.0557270205782	0.265084830637	-0.4716796875	-0.25146484375	0.86376953125	0.375	-1.125	6.3125
18	12	03	12	57	41	0.915596895874	-0.0545659372649	0.264895042203	-0.45166015625	-0.23193359375	0.87451171875	2.9375	0.9375	7.125
18	12	03	12	57	41	0.915789255472	-0.0536509434524	0.265508081932	-0.447265625	-0.2646484375	0.8623046875	2.625	4.875	7.25
18	12	03	12	57	41	0.915619451467	-0.0527361646602	0.266610610226	-0.45654296875	-0.30224609375	0.8115234375	5.9375	6.25	4.625
18	12	03	12	57	41	0.915588735338	-0.051818867829	0.266906842186	-0.4541015625	-0.22802734375	0.79833984375	3.875	1.5	0.6875
18	12	03	12	57	41	0.915772674996	-0.0521240912054	0.26641880341	-0.43896484375	-0.1943359375	0.8017578125	-3.6875	-4.0	-0.6875
18	12	03	12	57	41	0.915931201267	-0.0532248438961	0.266185257145	-0.47802734375	-0.234375	0.7939453125	-6.3125	-6.625	-0.125
18	12	03	12	57	41	0.916221163933	-0.0549940222973	0.265509430625	-0.5390625	-0.25830078125	0.79443359375	-8.0625	-13.9375	-0.75
18	12	03	12	57	41	0.91712436062	-0.0568853922599	0.263613743745	-0.50048828125	-0.1953125	0.7958984375	-11.4375	-20.125	2.75
18	12	03	12	57	41	0.918171335165	-0.0585949931369	0.261480156874	-0.484375	-0.18212890625	0.77490234375	-10.8125	-20.875	4.4375
18	12	03	12	57	42	0.918983803508	-0.0608545996345	0.259044053008	-0.5029296875	-0.244140625	0.86181640625	-10.25	-21.75	-0.1875
18	12	03	12	57	42	0.919952265216	-0.0640279940427	0.255989901826	-0.4697265625	-0.27880859375	0.93994140625	-13.5625	-23.0625	0.875
18	12	03	12	57	42	0.92068851866	-0.0675073920471	0.253122201464	-0.3779296875	-0.29296875	0.984375	-15.0625	-15.5	-0.0625
18	12	03	12	57	42	0.920883778836	-0.0678700133925	0.251277738432	-0.3486328125	-0.26904296875	0.91015625	1.5	-4.375	-4.3125
18	12	03	12	57	42	0.92090908288	-0.0664680535032	0.250063925806	-0.39794921875	-0.23291015625	0.96923828125	7.0	0.8125	-6.125
18	12	03	12	57	42	0.920810895398	-0.0662866652792	0.248605513519	-0.43212890625	-0.2314453125	1.0283203125	0.25	-2.5	-9.9375
18	12	03	12	57	42	0.920253895794	-0.0676899628862	0.248054111064	-0.46484375	-0.2763671875	1.05126953125	-6.9375	-1.4375	-14.0625
18	12	03	12	57	42	0.91955858441	-0.068054415347	0.249085263705	-0.47412109375	-0.2333984375	0.94775390625	-6.375	5.375	-10.0625
18	12	03	12	57	42	0.918605486117	-0.0686054861393	0.252204509544	-0.494140625	-0.193359375	0.83203125	-12.9375	11.5	-5.9375
18	12	03	12	57	42	0.917726236724	-0.0714112594418	0.255615687643	-0.48095703125	-0.224609375	0.845703125	-25.25	10.625	-2.375
18	12	03	12	57	42	0.916980938774	-0.0764812032406	0.258131690746	-0.41455078125	-0.322265625	0.8955078125	-32.1875	7.3125	-0.5625
18	12	03	12	57	42	0.91609433479	-0.0813003966913	0.260503072882	-0.37890625	-0.365234375	0.8583984375	-26.8125	8.5625	-1.3125
18	12	03	12	57	42	0.915115762476	-0.0836195954506	0.263127062765	-0.4326171875	-0.29541015625	0.77734375	-16.1875	9.25	-4.8125
18	12	03	12	57	42	0.914280110186	-0.0842316945094	0.265207762785	-0.44140625	-0.2646484375	0.748046875	-7.0625	8.0	-5.6875
18	12	03	12	57	42	0.91396659588	-0.0824608568875	0.26569364177	-0.37158203125	-0.3134765625	0.748046875	12.1875	7.5625	-1.3125
18	12	03	12	57	42	0.913695967405	-0.0785522184402	0.26550283622	-0.4521484375	-0.40087890625	0.77685546875	31.3125	3.875	-2.8125
18	12	03	12	57	42	0.914191153414	-0.0723271809852	0.263429631335	-0.546875	-0.33349609375	0.8017578125	42.625	-8.0625	-1.625
18	12	03	12	57	42	0.915550480467	-0.0641495703314	0.259894263055	-0.46728515625	-0.234375	0.7763671875	49.8125	-10.625	7.25
18	12	03	12	57	42	0.916756943477	-0.0554814954474	0.257631894702	-0.4365234375	-0.212890625	0.7861328125	48.6875	-0.9375	12.8125
18	12	03	12	57	42	0.917804432612	-0.0498057070567	0.25604772194	-0.44580078125	-0.22998046875	0.89208984375	29.9375	0.375	13.8125
18	12	03	12	57	42	0.918981675643	-0.0485859068685	0.254465635345	-0.38037109375	-0.21728515625	0.9453125	3.5	-2.6875	14.375
18	12	03	12	57	42	0.919629383651	-0.0501105544552	0.253970788171	-0.30810546875	-0.2451171875	0.900390625	-10.1875	2.375	10.6875
18	12	03	12	57	42	0.919519532463	-0.0525526928278	0.255072826164	-0.31103515625	-0.26904296875	0.83935546875	-14.3125	8.4375	4.75
18	12	03	12	57	42	0.919105091363	-0.0559715346514	0.256114023334	-0.3388671875	-0.28857421875	0.86083984375	-18.25	6.375	-1.25
18	12	03	12	57	42	0.918827628644	-0.0587161006215	0.256226809157	-0.30908203125	-0.28857421875	0.8369140625	-12.125	3.25	-2.5625
18	12	03	12	57	42	0.918435413622	-0.0595118314801	0.256663847563	-0.4052734375	-0.271484375	0.7939453125	-2.1875	1.8125	-4.3125
18	12	03	12	57	42	0.918392482447	-0.0595700845928	0.256468745347	-0.47998046875	-0.18798828125	0.81982421875	-3.3125	-5.1875	-4.875
18	12	03	12	57	42	0.918772726745	-0.0600592814135	0.255618161138	-0.45458984375	-0.1845703125	0.82666015625	-6.0	-8.125	-0.3125
18	12	03	12	57	42	0.918847401851	-0.0617692022501	0.255499882034	-0.4853515625	-0.24462890625	0.857421875	-10.5625	-7.1875	-1.375
18	12	03	12	57	42	0.91896968079	-0.0649431283449	0.255255792047	-0.51708984375	-0.302734375	0.93505859375	-16.6875	-10.3125	-0.75
18	12	03	12	57	42	0.919261354333	-0.0680550036572	0.25451961009	-0.44189453125	-0.3193359375	0.9658203125	-15.75	-7.25	1.8125
18	12	03	12	57	42	0.919095145894	-0.070009438992	0.255073622971	-0.4580078125	-0.3583984375	0.91455078125	-8.1875	-0.5625	1.25
18	12	03	12	57	42	0.918647331981	-0.0720220484843	0.255434129582	-0.48193359375	-0.30712890625	0.93701171875	-10.5	-1.75	-7.1875
18	12	03	12	57	42	0.918384368514	-0.0747110505823	0.254469256436	-0.37548828125	-0.2529296875	0.9462890625	-15.0	-3.1875	-10.0625
18	12	03	12	57	42	0.917843727183	-0.0784299234892	0.254332677961	-0.390625	-0.3037109375	0.93994140625	-19.5	-1.6875	-9.75
18	12	03	12	57	42	0.917003096889	-0.0830088000379	0.254702737175	-0.4677734375	-0.32470703125	0.95703125	-24.625	-4.125	-13.875
18	12	03	12	57	42	0.916664734134	-0.0868566997385	0.253916985883	-0.41455078125	-0.32666015625	0.9248046875	-18.4375	-7.6875	-9.3125
18	12	03	12	57	42	0.916281046795	-0.0885640686717	0.253362818095	-0.388671875	-0.32373046875	0.8642578125	-6.125	-3.25	-8.8125
18	12	03	12	57	42	0.915981538857	-0.0887477282267	0.253303350853	-0.416015625	-0.29833984375	0.8349609375	-0.375	-0.4375	-6.25
18	12	03	12	57	42	0.915916584643	-0.0891746055021	0.252813973983	-0.40869140625	-0.27392578125	0.880859375	-3.625	-2.3125	-4.4375
18	12	03	12	57	42	0.91562273645	-0.0902133460752	0.253000216158	-0.40380859375	-0.32568359375	0.85693359375	-5.0	0.375	-4.1875
18	12	03	12	57	42	0.914552169592	-0.0919190848509	0.255249410921	-0.44580078125	-0.34033203125	0.8232421875	-10.25	8.0	-7.6875
18	12	03	12	57	42	0.913446748124	-0.0914911583214	0.258055114998	-0.46337890625	-0.32421875	0.8115234375	-0.625	13.4375	-6.5625
18	12	03	12	57	42	0.912327536878	-0.0903355024138	0.261667769492	-0.4560546875	-0.28564453125	0.7734375	-0.5625	18.875	-3.3125
18	12	03	12	57	42	0.911142801896	-0.089295412592	0.266055163013	-0.51904296875	-0.3447265625	0.78564453125	-0.1875	19.4375	-0.0625
18	12	03	12	57	42	0.910269256169	-0.0886831989549	0.269101324289	-0.48583984375	-0.37646484375	0.84228515625	0.625	15.5	0.875
18	12	03	12	57	42	0.909727497497	-0.0860594278075	0.271361855342	-0.46875	-0.42333984375	0.84130859375	15.9375	15.9375	4.875
18	12	03	12	57	42	0.909202795904	-0.0822164450915	0.273139266358	-0.47021484375	-0.40673828125	0.8544921875	23.5	16.3125	2.625
18	12	03	12	57	42	0.908776243162	-0.0778218624509	0.275092654169	-0.4345703125	-0.30419921875	0.80078125	20.8125	18.9375	4.0
18	12	03	12	57	42	0.908299117605	-0.0745878315781	0.277415461966	-0.47802734375	-0.25146484375	0.8203125	9.8125	16.75	2.25
18	12	03	12	57	43	0.907846253478	-0.0753181576437	0.279238712496	-0.47314453125	-0.2880859375	0.869140625	-9.75	9.1875	0.75
18	12	03	12	57	43	0.907478852151	-0.0779425944443	0.280703204267	-0.41064453125	-0.36474609375	0.84326171875	-15.1875	6.9375	3.125
18	12	03	12	57	43	0.907017901071	-0.0797150322207	0.281749302244	-0.39794921875	-0.41015625	0.82470703125	-5.625	6.8125	1.6875
18	12	03	12	57	43	0.906775134297	-0.0791047774669	0.282176995547	-0.3818359375	-0.3486328125	0.76416015625	6.375	6.3125	1.125
18	12	03	12	57	43	0.906726203825	-0.0780071416014	0.28224180185	-0.40771484375	-0.30908203125	0.74365234375	7.6875	3.1875	0.875
18	12	03	12	57	43	0.906781519304	-0.0780066492778	0.281934830214	-0.43505859375	-0.3154296875	0.7451171875	3.0	-2.75	0.0
18	12	03	12	57	43	0.906859444485	-0.0786132026179	0.281860069635	-0.4873046875	-0.34814453125	0.708984375	0.875	-6.9375	1.375
18	12	03	12	57	43	0.906859510362	-0.0787352785279	0.283263897402	-0.61669921875	-0.384765625	0.5751953125	4.375	-10.6875	6.4375
18	12	03	12	57	43	0.907204305696	-0.0783114528835	0.28510740173	-0.73388671875	-0.47119140625	0.44970703125	12.125	-18.875	15.5625
18	12	03	12	57	43	0.908410075089	-0.0750141760588	0.285346845464	-0.708984375	-0.4833984375	0.4033203125	32.0625	-24.125	24.0625
18	12	03	12	57	43	0.910807330609	-0.0668975227414	0.282605410851	-0.65380859375	-0.43017578125	0.4501953125	59.375	-28.5	31.75
18	12	03	12	57	43	0.913938005555	-0.0572508247102	0.278441644273	-0.61669921875	-0.2880859375	0.5205078125	59.625	-30.875	36.75
18	12	03	12	57	43	0.916890514167	-0.0510265257518	0.27545778794	-0.64599609375	-0.18994140625	0.5693359375	31.25	-31.0	36.875
18	12	03	12	57	43	0.918980787183	-0.0518818855676	0.273814280772	-0.65283203125	-0.24560546875	0.625	-5.875	-32.8125	26.375
18	12	03	12	57	43	0.920618020113	-0.0572525162677	0.2711864923	-0.6142578125	-0.341796875	0.77197265625	-23.4375	-37.25	14.5
18	12	03	12	57	43	0.923730735054	-0.0649431414099	0.263923067158	-0.2763671875	-0.16162109375	1.03271484375	-45.3125	-40.625	17.5
18	12	03	12	57	43	0.92599043296	-0.0688495951736	0.258430129402	-0.25537109375	-0.34375	0.9833984375	-14.1875	-24.5	19.375
18	12	03	12	57	43	0.927416884574	-0.0679967361732	0.257032545804	-0.412109375	-0.25634765625	0.8291015625	2.25	-8.75	21.3125
18	12	03	12	57	43	0.928050289083	-0.0602423962726	0.257998590724	-0.6279296875	-0.29248046875	0.64501953125	44.375	-2.1875	17.75
18	12	03	12	57	43	0.927631290475	-0.0512705806026	0.261235815452	-0.8515625	-0.1865234375	0.578125	44.875	-1.5	4.75
18	12	03	12	57	43	0.927381214526	-0.044312147015	0.265018377878	-0.79345703125	-0.17333984375	0.6416015625	29.25	3.75	12.8125
18	12	03	12	57	43	0.927378220903	-0.0384525654317	0.269595208749	-0.56884765625	-0.13525390625	0.83203125	14.4375	26.25	26.375
18	12	03	12	57	43	0.929147788876	-0.0397953332686	0.269045750073	0.0859375	0.1240234375	1.6162109375	-47.1875	51.0625	29.75
18	12	03	12	57	43	0.924730996786	-0.0419943845405	0.282119251957	0.93115234375	-0.08251953125	2.4638671875	-29.125	73.75	-15.375
18	12	03	12	57	43	0.922223397729	-0.0215464199747	0.284070930772	0.46826171875	-0.5146484375	2.05712890625	120.3125	46.1875	-19.875
18	12	03	12	57	43	0.927226008874	0.00201424911414	0.268566548551	-0.21044921875	0.0087890625	0.91357421875	145.0625	-50.25	45.75
18	12	03	12	57	43	0.928508341681	0.0241099654854	0.258129225412	-1.111328125	0.0302734375	0.25830078125	139.625	-38.8125	7.9375
18	12	03	12	57	43	0.921117197921	0.0200203062036	0.26960272104	-2.2041015625	0.06298828125	-0.09619140625	-17.125	63.6875	-94.875
18	12	03	12	57	43	0.927891232105	-0.0103763655741	0.276194436605	-1.048828125	0.22900390625	0.193359375	-221.75	-34.875	116.625
18	12	03	12	57	43	0.929018701373	-0.0439483222726	0.279499121786	-0.24169921875	-0.24462890625	0.70263671875	-200.6875	-30.3125	12.1875
18	12	03	12	57	43	0.927258128629	-0.0699471969069	0.281864009874	-0.1240234375	-0.7578125	0.91748046875	-139.125	-14.75	-26.1875
18	12	03	12	57	43	0.92628273189	-0.06628512433	0.277835990746	-0.07470703125	-1.0859375	0.923828125	87.375	15.5625	-11.6875
18	12	03	12	57	43	0.926709870145	-0.0350957106852	0.269840238155	-0.2392578125	-0.53662109375	0.896484375	203.0625	9.5	-19.875
18	12	03	12	57	43	0.926790700486	0.00537128435476	0.264108493217	-0.30712890625	0.08837890625	0.91650390625	232.1875	34.25	18.5625
18	12	03	12	57	43	0.929000218377	0.0243542107183	0.254223778551	-0.158203125	0.66748046875	1.09521484375	69.3125	1.3125	4.4375
18	12	03	12	57	43	0.929060777102	0.0299697024871	0.249340600122	-0.46728515625	0.3994140625	0.87109375	13.4375	-17.3125	-27.1875
18	12	03	12	57	43	0.927977578782	0.0162963702667	0.252502186492	-0.66455078125	-0.00634765625	0.7822265625	-80.625	-17.5625	-36.875
18	12	03	12	57	43	0.928646777209	-6.1038962614e-05	0.25428831825	-0.55859375	-0.1220703125	0.93115234375	-96.375	-20.0625	-5.8125
18	12	03	12	57	43	0.928548874061	-0.0102541386211	0.255804136672	-0.39013671875	-0.26953125	0.83056640625	-51.3125	-3.9375	-3.625
18	12	03	12	57	43	0.927636574495	-0.0109255788153	0.260199678713	-0.50830078125	-0.32080078125	0.7978515625	-1.375	19.25	8.8125
18	12	03	12	57	43	0.926574186618	-0.00195325256731	0.266313779724	-0.5966796875	-0.1494140625	0.763671875	36.25	38.375	22.375
18	12	03	12	57	43	0.925009037354	0.00830097189575	0.27454243814	-0.52490234375	-0.02587890625	0.71337890625	32.4375	56.125	25.6875
18	12	03	12	57	43	0.922280240298	0.0125737742886	0.286816336807	-0.5478515625	-0.017578125	0.712890625	-7.0	70.375	17.8125
18	12	03	12	57	43	0.918454516038	0.00915585680905	0.302143274699	-0.58740234375	-0.115234375	0.72216796875	-47.1875	77.3125	5.9375
18	12	03	12	57	43	0.914269307563	0.00048829390884	0.318184518348	-0.51025390625	-0.3076171875	0.79443359375	-67.625	83.3125	7.5625
18	12	03	12	57	43	0.909163748327	-0.001159725493	0.329362040012	-0.3818359375	-0.5341796875	0.9833984375	0.5625	85.625	-13.8125
18	12	03	12	57	43	0.903792484115	0.00207529847099	0.341447636668	-0.60888671875	-0.36865234375	0.943359375	13.5625	86.0625	-9.75
18	12	03	12	57	43	0.899776827956	0.00347922659205	0.350303182663	-0.650390625	-0.1806640625	0.89892578125	-2.9375	61.3125	-14.5625
18	12	03	12	57	43	0.89676191655	0.00891146473022	0.356702738927	-0.568359375	-0.03466796875	0.79150390625	13.9375	53.375	-7.125
18	12	03	12	57	43	0.894320914144	0.0117802304416	0.361769045737	-0.50390625	0.033203125	0.62451171875	0.625	37.5	-12.0625
18	12	03	12	57	44	0.890986140607	0.00958312146848	0.369224851992	-0.66943359375	-0.13232421875	0.6591796875	-21.5625	38.5	-17.5
18	12	03	12	57	44	0.888704682818	0.00347913234345	0.373671021168	-0.62353515625	-0.181640625	0.86376953125	-36.9375	27.0625	-24.875
18	12	03	12	57	44	0.88703697523	0.000305180270842	0.377202814761	-0.60498046875	-0.19677734375	0.85693359375	-22.5625	26.75	-11.8125
18	12	03	12	57	44	0.884910220908	-0.00122073419907	0.380319739721	-0.7021484375	-0.25634765625	0.84326171875	-6.0	22.625	-18.0625
18	12	03	12	57	44	0.88370226718	-0.00012207518541	0.381912217554	-0.828125	-0.1474609375	0.81591796875	1.9375	10.125	-13.1875
18	12	03	12	57	44	0.88367434642	0.000122071328418	0.380984615993	-0.7763671875	-0.15478515625	0.80029296875	1.9375	-5.125	-10.5625
18	12	03	12	57	44	0.884007409036	-0.000122075179042	0.38111870897	-0.6708984375	-0.22705078125	0.7099609375	-3.375	-0.5	7.25
18	12	03	12	57	44	0.883420704189	0.000427245055225	0.381835009355	-0.646484375	-0.26171875	0.66943359375	7.125	5.375	-1.125
18	12	03	12	57	44	0.882985795644	0.00323505095874	0.382163284013	-0.69921875	-0.2119140625	0.74365234375	15.625	7.625	0.9375
18	12	03	12	57	44	0.882226303261	0.00488294619212	0.383250239254	-0.7470703125	-0.19873046875	0.7568359375	7.5	8.75	-3.375
18	12	03	12	57	44	0.881619904278	0.00366222613242	0.384655818108	-0.7080078125	-0.2353515625	0.80908203125	-8.125	10.1875	-2.6875
18	12	03	12	57	44	0.881142594796	0.00207528735267	0.385454106826	-0.677734375	-0.24462890625	0.794921875	-7.875	7.0625	-4.6875
18	12	03	12	57	44	0.880780562966	0.000488305232414	0.386371515147	-0.67822265625	-0.18359375	0.71435546875	-11.0625	3.8125	-4.8125
18	12	03	12	57	44	0.880635356302	-0.00250249858666	0.386483440262	-0.63525390625	-0.23046875	0.73095703125	-14.6875	-0.1875	-7.0625
18	12	03	12	57	44	0.880634752641	-0.0039063365795	0.386300065807	-0.61376953125	-0.22265625	0.71337890625	-6.0	0.5	-3.25
18	12	03	12	57	44	0.880606091908	-0.00396751895571	0.38631426878	-0.68310546875	-0.24755859375	0.7001953125	0.8125	0.5625	-0.4375
18	12	03	12	57	44	0.881077714703	-0.00274669187126	0.385208275545	-0.63330078125	-0.14697265625	0.72802734375	4.0	-1.3125	0.4375
18	12	03	12	57	44	0.881113177429	-0.00433354361301	0.384769844175	-0.59912109375	-0.2177734375	0.7197265625	-6.625	-0.1875	-4.875
18	12	03	12	57	44	0.880994717663	-0.00488288606159	0.385381782411	-0.65673828125	-0.18310546875	0.7314453125	-7.0	4.5625	-0.375
18	12	03	12	57	44	0.880824344739	-0.00732443499194	0.386119797992	-0.625	-0.2275390625	0.697265625	-14.375	2.9375	-2.125
18	12	03	12	57	44	0.880425362016	-0.0114753166985	0.387352977493	-0.60986328125	-0.2939453125	0.71142578125	-21.625	4.1875	-2.8125
18	12	03	12	57	44	0.880029408603	-0.0141605508944	0.388255449308	-0.59765625	-0.21484375	0.66943359375	-15.8125	3.875	-5.6875
18	12	03	12	57	44	0.87934705483	-0.0177004682377	0.390508950982	-0.6103515625	-0.23193359375	0.63525390625	-23.8125	7.625	-1.875
18	12	03	12	57	44	0.878306637034	-0.0218508530965	0.392338781296	-0.6806640625	-0.35205078125	0.6552734375	-17.3125	3.0	-8.125
18	12	03	12	57	44	0.87792261262	-0.022279201391	0.392358100113	-0.708984375	-0.31640625	0.70263671875	3.0	-0.5	-5.3125
18	12	03	12	57	44	0.878484681904	-0.0216065849645	0.390932702536	-0.6630859375	-0.21337890625	0.68603515625	4.625	-7.0625	-0.75
18	12	03	12	57	44	0.878625500329	-0.0217291197025	0.390818970379	-0.697265625	-0.23779296875	0.69921875	-1.9375	-1.9375	0.1875
18	12	03	12	57	44	0.878753452151	-0.0224006749281	0.390577435599	-0.6923828125	-0.29296875	0.70458984375	-1.4375	-2.8125	0.875
18	12	03	12	57	44	0.87859661964	-0.0234984160168	0.390745089193	-0.7255859375	-0.28173828125	0.705078125	-4.375	-2.75	-3.125
18	12	03	12	57	44	0.878581055237	-0.0255138864172	0.39107050305	-0.72509765625	-0.25146484375	0.7353515625	-13.25	-2.1875	-2.9375
18	12	03	12	57	44	0.878672675686	-0.0294192990887	0.391362128126	-0.59765625	-0.2470703125	0.6845703125	-23.4375	-1.5	-2.5
18	12	03	12	57	44	0.878145515226	-0.03399784889	0.393264165886	-0.60595703125	-0.27392578125	0.626953125	-28.25	3.6875	-1.375
18	12	03	12	57	44	0.877944473998	-0.0403449177776	0.394659967246	-0.62841796875	-0.3447265625	0.67041015625	-36.25	-1.4375	0.5
18	12	03	12	57	44	0.877759825267	-0.043640795151	0.394720310827	-0.6162109375	-0.404296875	0.65771484375	-10.375	-3.1875	-0.9375
18	12	03	12	57	44	0.878112115826	-0.0418700849	0.393798524453	-0.615234375	-0.3515625	0.677734375	14.75	-0.375	5.9375
18	12	03	12	57	44	0.878481950888	-0.0390015956797	0.39264047732	-0.64892578125	-0.30126953125	0.6923828125	19.3125	-0.75	3.5
18	12	03	12	57	44	0.87898060084	-0.0356450712375	0.391546458884	-0.6982421875	-0.294921875	0.72802734375	19.8125	-1.0	6.1875
18	12	03	12	57	44	0.879249626665	-0.0330214542191	0.390703010085	-0.66943359375	-0.32421875	0.74267578125	17.75	1.5	5.4375
18	12	03	12	57	44	0.879409173697	-0.0306401586061	0.390204250933	-0.6962890625	-0.33544921875	0.74365234375	16.375	2.1875	5.9375
18	12	03	12	57	44	0.879598310035	-0.0275275024513	0.389413449311	-0.6767578125	-0.29931640625	0.7353515625	20.0	1.9375	4.5
18	12	03	12	57	44	0.879972810625	-0.0238655315915	0.388806742296	-0.6318359375	-0.17041015625	0.705078125	15.3125	4.25	5.375
18	12	03	12	57	44	0.879810591856	-0.02313363496	0.389426361596	-0.6064453125	-0.16943359375	0.65234375	-1.5625	5.8125	0.0
18	12	03	12	57	44	0.87943685531	-0.023133437546	0.390948990718	-0.67626953125	-0.21337890625	0.67529296875	-6.1875	7.4375	2.625
18	12	03	12	57	44	0.879543821973	-0.0229499290119	0.391186422972	-0.63623046875	-0.24267578125	0.66845703125	-0.875	1.875	4.1875
18	12	03	12	57	44	0.880026748074	-0.021729055508	0.390085375707	-0.57275390625	-0.24560546875	0.6953125	8.0	0.3125	4.625
18	12	03	12	57	44	0.880341216288	-0.0186774188577	0.389234967501	-0.58984375	-0.2373046875	0.67919921875	17.625	3.0625	6.0625
18	12	03	12	57	44	0.880616651674	-0.0157481871582	0.388394243751	-0.67578125	-0.21044921875	0.669921875	16.1875	-1.4375	2.875
18	12	03	12	57	44	0.881003538332	-0.0144046581021	0.387277778212	-0.701171875	-0.2099609375	0.68310546875	8.4375	-6.6875	-0.125
18	12	03	12	57	44	0.881560773701	-0.0132450798237	0.386304655318	-0.7099609375	-0.21728515625	0.68212890625	6.0625	-6.9375	3.75
18	12	03	12	57	44	0.882225243292	-0.0123294243216	0.38520295492	-0.68505859375	-0.1982421875	0.67919921875	4.0	-7.125	3.875
18	12	03	12	57	45	0.882956355408	-0.0116580024805	0.384103715235	-0.638671875	-0.197265625	0.66455078125	2.25	-6.5625	5.8125
18	12	03	12	57	45	0.88373850313	-0.0115357812758	0.383122217291	-0.64306640625	-0.208984375	0.68798828125	-0.625	-5.9375	6.8125
18	12	03	12	57	45	0.884564783511	-0.0124517813853	0.382159819871	-0.6552734375	-0.1875	0.70556640625	-8.0	-7.875	4.6875
18	12	03	12	57	45	0.885313480371	-0.0140380627705	0.38110288669	-0.6806640625	-0.1884765625	0.71142578125	-10.8125	-10.0	0.875
18	12	03	12	57	45	0.886063770282	-0.0155642530428	0.379889846817	-0.69091796875	-0.2216796875	0.74169921875	-8.75	-9.8125	0.9375
18	12	03	12	57	45	0.886736348773	-0.0157473828458	0.378608588343	-0.6806640625	-0.2275390625	0.73486328125	-0.1875	-8.375	2.3125
18	12	03	12	57	45	0.887400513763	-0.0140992859673	0.377201676529	-0.666015625	-0.22509765625	0.72509765625	10.125	-5.6875	5.125
18	12	03	12	57	45	0.888079564076	-0.0111696604966	0.375740054739	-0.68505859375	-0.205078125	0.73388671875	16.0	-4.9375	6.4375
18	12	03	12	57	45	0.888699065883	-0.00897244249209	0.374156955622	-0.68896484375	-0.1943359375	0.744140625	12.875	-6.4375	3.25
18	12	03	12	57	45	0.889366000134	-0.0074464794466	0.37269019263	-0.65673828125	-0.17138671875	0.76904296875	7.0625	-4.25	2.8125
18	12	03	12	57	45	0.889564885335	-0.00622585551696	0.372147461636	-0.6455078125	-0.166015625	0.74560546875	4.625	0.5	0.4375
18	12	03	12	57	45	0.889632868545	-0.00561552136577	0.371906213931	-0.662109375	-0.18310546875	0.7314453125	2.5625	-0.25	-0.5
18	12	03	12	57	45	0.889839424203	-0.0056152841091	0.371463250957	-0.63916015625	-0.1982421875	0.72119140625	0.0625	-2.0	0.5625
18	12	03	12	57	45	0.890182733721	-0.00549344802763	0.370502550308	-0.6259765625	-0.2099609375	0.74365234375	2.4375	-2.9375	0.25
18	12	03	12	57	45	0.890341549398	-0.00469982171136	0.369698962412	-0.63720703125	-0.208984375	0.7529296875	6.1875	-0.875	-0.5625
18	12	03	12	57	45	0.890170401453	-0.00329602315404	0.369948080308	-0.662109375	-0.17724609375	0.73583984375	5.875	3.5625	0.125
18	12	03	12	57	45	0.88996354122	-0.00299075601946	0.370365459716	-0.6708984375	-0.18115234375	0.7509765625	-0.3125	3.625	-1.625
18	12	03	12	57	45	0.889498873343	-0.00396743476067	0.371290856141	-0.7041015625	-0.21484375	0.72607421875	-5.5625	1.9375	-4.3125
18	12	03	12	57	45	0.889324978461	-0.00598173286817	0.371721971093	-0.68212890625	-0.24072265625	0.7119140625	-9.25	-2.1875	-3.0625
18	12	03	12	57	45	0.889426080895	-0.00775165469899	0.371408022389	-0.6328125	-0.25390625	0.74365234375	-6.5	-2.25	-1.6875
18	12	03	12	57	45	0.88932596086	-0.0076297697397	0.371295114613	-0.65087890625	-0.2373046875	0.72216796875	3.0625	-0.0625	-0.9375
18	12	03	12	57	45	0.889142862949	-0.00671419749601	0.371356159689	-0.70361328125	-0.2041015625	0.7275390625	5.3125	-0.125	-2.125
18	12	03	12	57	45	0.889226758295	-0.00592044722044	0.370912966584	-0.7041015625	-0.1796875	0.75634765625	3.4375	-2.125	-2.1875
18	12	03	12	57	45	0.889327986964	-0.00610382969776	0.370746615842	-0.66943359375	-0.189453125	0.72509765625	-2.0625	-1.9375	-0.9375
18	12	03	12	57	45	0.889347763328	-0.00775203609765	0.371060058564	-0.638671875	-0.2158203125	0.7060546875	-9.5625	-1.0	-0.4375
18	12	03	12	57	45	0.889364369987	-0.0101931130182	0.371102557787	-0.6650390625	-0.263671875	0.7431640625	-10.8125	-3.4375	-2.0625
18	12	03	12	57	45	0.889626622474	-0.0120244558921	0.370194543074	-0.6337890625	-0.25537109375	0.771484375	-6.125	-4.875	-3.0625
18	12	03	12	57	45	0.889642969123	-0.0122069562174	0.370114912511	-0.63818359375	-0.28173828125	0.76416015625	-0.4375	-0.875	-0.25
18	12	03	12	57	45	0.889677494503	-0.0119022441979	0.36994616453	-0.63427734375	-0.22802734375	0.765625	1.625	2.125	0.6875
18	12	03	12	57	45	0.889678291647	-0.0129398873374	0.370129607612	-0.61328125	-0.22216796875	0.73876953125	-6.1875	1.9375	-0.125
18	12	03	12	57	45	0.88953309085	-0.0160523674279	0.370669305663	-0.59814453125	-0.24951171875	0.71728515625	-16.5625	0.5625	-2.6875
18	12	03	12	57	45	0.889194762701	-0.0198371978225	0.371291305705	-0.623046875	-0.291015625	0.72900390625	-17.25	0.0	-5.5
18	12	03	12	57	45	0.8888304929	-0.0224008234373	0.371841461526	-0.64892578125	-0.287109375	0.736328125	-11.4375	0.25	-5.1875
18	12	03	12	57	45	0.888581396369	-0.0227669227123	0.372327690469	-0.6630859375	-0.2373046875	0.759765625	-3.0	3.625	-1.875
18	12	03	12	57	45	0.88828054829	-0.0220345824182	0.373306110997	-0.63134765625	-0.18896484375	0.72265625	-1.0625	7.5	0.8125
18	12	03	12	57	45	0.887767440046	-0.0220339667141	0.375309865166	-0.615234375	-0.177734375	0.66064453125	-7.625	10.625	2.75
18	12	03	12	57	45	0.887336815184	-0.023803917865	0.377078473257	-0.580078125	-0.18603515625	0.6640625	-16.1875	8.625	0.75
18	12	03	12	57	45	0.886805490902	-0.0263069148998	0.378795159786	-0.53759765625	-0.22119140625	0.6240234375	-17.3125	7.875	-0.4375
18	12	03	12	57	45	0.886303330808	-0.0286258702671	0.38043720549	-0.53662109375	-0.25244140625	0.61669921875	-14.5	7.75	1.1875
18	12	03	12	57	45	0.88583039177	-0.0296639957555	0.381664537982	-0.560546875	-0.2705078125	0.6279296875	-5.875	6.9375	1.3125
18	12	03	12	57	45	0.885414884019	-0.0292981624382	0.382402057657	-0.607421875	-0.27734375	0.6357421875	4.0625	4.5625	0.6875
18	12	03	12	57	45	0.885134859644	-0.02838144461	0.382874843094	-0.6611328125	-0.28515625	0.6640625	6.8125	2.8125	1.4375
18	12	03	12	57	45	0.884970174574	-0.0278937423119	0.383371106042	-0.66259765625	-0.27490234375	0.69140625	3.0	2.9375	2.375
18	12	03	12	57	45	0.884861421015	-0.0276500119832	0.383804139846	-0.650390625	-0.25	0.70361328125	-0.1875	3.375	2.125
18	12	03	12	57	45	0.88464870074	-0.0280152996854	0.384523721172	-0.66064453125	-0.24072265625	0.6953125	-4.25	3.4375	0.375
18	12	03	12	57	45	0.884445084668	-0.028321774968	0.385334839166	-0.66015625	-0.23486328125	0.66650390625	-3.9375	2.625	1.0625
18	12	03	12	57	45	0.884531902015	-0.0281985742983	0.385441551285	-0.6591796875	-0.234375	0.65185546875	-0.6875	-1.25	2.125
18	12	03	12	57	45	0.884741880672	-0.026917638453	0.385087031746	-0.6708984375	-0.2314453125	0.63525390625	7.375	-3.6875	2.3125
18	12	03	12	57	45	0.884958352018	-0.0245974353999	0.38470877252	-0.68994140625	-0.2265625	0.630859375	12.6875	-3.375	3.9375
18	12	03	12	57	45	0.884995944509	-0.0220959053667	0.384725114714	-0.72314453125	-0.2109375	0.6259765625	12.5625	-2.5625	2.75
18	12	03	12	57	46	0.88468095995	-0.0201424532071	0.385392271362	-0.80078125	-0.224609375	0.62939453125	10.0625	-3.0	0.0625
18	12	03	12	57	46	0.884108771242	-0.0188601733044	0.386358890022	-0.8671875	-0.27294921875	0.66650390625	8.5	-2.875	-2.6875
18	12	03	12	57	46	0.883834140151	-0.0175179833027	0.387043665932	-0.84326171875	-0.26806640625	0.724609375	7.125	-1.1875	1.25
18	12	03	12	57	46	0.883865976639	-0.015930461978	0.387458132705	-0.78271484375	-0.23046875	0.74267578125	5.3125	1.1875	5.125
18	12	03	12	57	46	0.883676925712	-0.0147096380092	0.388554172474	-0.76123046875	-0.23193359375	0.71728515625	2.3125	4.75	5.8125
18	12	03	12	57	46	0.883574696293	-0.0140995962174	0.389539493765	-0.71337890625	-0.220703125	0.712890625	-1.5	5.3125	6.1875
18	12	03	12	57	46	0.883322085053	-0.014282571027	0.390512347994	-0.6884765625	-0.1962890625	0.68212890625	-5.0625	4.25	0.625
18	12	03	12	57	46	0.882905553281	-0.0151983050651	0.391859913727	-0.68701171875	-0.22119140625	0.63232421875	-7.75	3.375	0.5625
18	12	03	12	57	46	0.882461281489	-0.0164187359746	0.393134120492	-0.6796875	-0.26025390625	0.62744140625	-6.9375	2.75	0.4375
18	12	03	12	57	46	0.882348848627	-0.0173955051092	0.393382562908	-0.65771484375	-0.26220703125	0.67626953125	-3.6875	0.6875	-0.3125
18	12	03	12	57	46	0.882514677019	-0.0178834497798	0.393191752497	-0.6318359375	-0.24462890625	0.70556640625	-2.75	1.125	2.0
18	12	03	12	57	46	0.882227590018	-0.0182500380113	0.394054332445	-0.67041015625	-0.26220703125	0.703125	-2.875	5.8125	2.4375
18	12	03	12	57	46	0.881431047989	-0.0188603416542	0.395884064625	-0.7138671875	-0.28955078125	0.63818359375	-2.9375	6.8125	0.25
18	12	03	12	57	46	0.880793137888	-0.0197156052348	0.397608212072	-0.7080078125	-0.2392578125	0.62060546875	-7.0625	5.0	-0.4375
18	12	03	12	57	46	0.880068162111	-0.0213013238489	0.399842328177	-0.6484375	-0.21435546875	0.56689453125	-13.1875	7.0625	0.875
18	12	03	12	57	46	0.879189322573	-0.0232554243197	0.402544680809	-0.61669921875	-0.22119140625	0.54541015625	-16.0625	9.9375	1.875
18	12	03	12	57	46	0.878271279342	-0.0253306401367	0.405107129126	-0.64111328125	-0.24267578125	0.5625	-15.4375	9.25	0.0
18	12	03	12	57	46	0.877712841413	-0.0273446003445	0.406262633689	-0.69384765625	-0.2685546875	0.61865234375	-10.625	1.9375	-3.625
18	12	03	12	57	46	0.877697932509	-0.0280765680775	0.406133660842	-0.71728515625	-0.275390625	0.662109375	-2.0	-2.75	-2.25
18	12	03	12	57	46	0.877917207477	-0.0271621467932	0.405601045935	-0.66552734375	-0.2646484375	0.654296875	6.5625	-0.875	2.8125
18	12	03	12	57	46	0.877650414735	-0.0247199678676	0.406261990436	-0.724609375	-0.275390625	0.57666015625	14.375	1.8125	5.4375
18	12	03	12	57	46	0.877535292943	-0.0227669655886	0.406509358767	-0.75390625	-0.24609375	0.56591796875	11.6875	-3.25	2.5
18	12	03	12	57	46	0.87788894045	-0.022339383453	0.405771096163	-0.72216796875	-0.26123046875	0.58935546875	5.4375	-8.75	2.0
18	12	03	12	57	46	0.878543665366	-0.0230713842926	0.404542685428	-0.6884765625	-0.26806640625	0.6328125	-1.25	-10.25	2.1875
18	12	03	12	57	46	0.879128633534	-0.0228281683636	0.40327729513	-0.70068359375	-0.2607421875	0.63525390625	4.875	-9.5	1.875
18	12	03	12	57	46	0.879915731844	-0.0208137669644	0.401321166542	-0.72314453125	-0.2548828125	0.6572265625	15.375	-10.75	2.9375
18	12	03	12	57	46	0.881046005507	-0.0166626643231	0.398255987941	-0.734375	-0.23095703125	0.71337890625	27.375	-12.5	4.0625
18	12	03	12	57	46	0.882148630632	-0.0108643503946	0.395022897492	-0.7939453125	-0.2333984375	0.73193359375	37.5	-13.1875	5.75
18	12	03	12	57	46	0.883871029447	-0.00549329415442	0.391183580397	-0.82861328125	-0.14306640625	0.783203125	28.625	-17.875	8.4375
18	12	03	12	57	46	0.88536385067	-0.00347919610398	0.388815424251	-0.7998046875	-0.1181640625	0.76318359375	5.1875	-14.75	8.375
18	12	03	12	57	46	0.886356460119	-0.00433351526432	0.388185311001	-0.7783203125	-0.1298828125	0.78466796875	-13.8125	-7.125	7.25
18	12	03	12	57	46	0.886829826038	-0.00640905304797	0.388449653308	-0.791015625	-0.18505859375	0.7490234375	-17.8125	-5.4375	4.375
18	12	03	12	57	46	0.88755979758	-0.00866745693256	0.388692716525	-0.8349609375	-0.22314453125	0.798828125	-19.25	-6.125	10.0
18	12	03	12	57	46	0.889684755056	-0.00805696951615	0.387833214436	-0.91455078125	-0.2890625	0.84619140625	-7.5625	-12.6875	37.6875
18	12	03	12	57	46	0.893823558537	-0.00115970005546	0.382884128838	-0.97314453125	-0.24951171875	0.65576171875	30.3125	-42.3125	58.0
18	12	03	12	57	46	0.90037103124	0.00811804943088	0.373308197889	-0.955078125	-0.046875	0.62109375	34.3125	-70.0	72.0625
18	12	03	12	57	46	0.908541817223	0.0153203893935	0.358899958701	-0.7197265625	-0.0068359375	0.7021484375	27.625	-87.1875	72.4375
18	12	03	12	57	46	0.916363476688	0.0198373496252	0.342301097533	-0.392578125	-0.0869140625	0.8193359375	28.0	-81.1875	55.9375
18	12	03	12	57	46	0.92258797768	0.0226450638253	0.327041110447	-0.18896484375	-0.072265625	0.86865234375	23.8125	-61.5625	33.8125
18	12	03	12	57	46	0.92652483951	0.0230715671499	0.317325602148	-0.115234375	-0.02587890625	0.78125	5.0	-31.625	20.5
18	12	03	12	57	46	0.928314091558	0.0209357441912	0.313486828473	-0.16259765625	-0.0634765625	0.7705078125	-12.0625	-3.25	11.0625
18	12	03	12	57	46	0.928624989191	0.0178229589091	0.312329043624	-0.20947265625	-0.0966796875	0.7763671875	-13.4375	9.75	-6.1875
18	12	03	12	57	46	0.928307112452	0.0153202107453	0.31116507721	-0.2587890625	-0.04443359375	0.7744140625	-8.375	8.1875	-23.3125
18	12	03	12	57	46	0.927253869389	0.0127564546276	0.31128190718	-0.43701171875	0.0498046875	0.82275390625	-14.375	8.1875	-36.4375
18	12	03	12	57	46	0.927129642831	0.00750736972141	0.310182544099	-0.68359375	0.072265625	0.9619140625	-34.1875	-11.6875	-31.1875
18	12	03	12	57	46	0.929719707419	-0.00152593176769	0.303050049064	-0.62451171875	0.04296875	0.93212890625	-52.1875	-52.375	-15.4375
18	12	03	12	57	46	0.932638193645	-0.00659194534775	0.295172663905	-0.5166015625	-0.14599609375	0.6884765625	-18.6875	-56.4375	5.125
18	12	03	12	57	46	0.934184301373	-0.0101933210277	0.289258373355	-0.5947265625	-0.328125	0.70263671875	2.1875	-46.75	-4.375
18	12	03	12	57	46	0.935379424048	-0.00744641368573	0.281315743258	-0.533203125	-0.265625	0.75732421875	41.625	-44.9375	-19.3125
18	12	03	12	57	47	0.936192718691	-0.00323498592324	0.273875129011	-0.47802734375	-0.10546875	0.74951171875	41.375	-37.3125	-25.875
18	12	03	12	57	47	0.93631875812	-0.00494405602397	0.269359496713	-0.4736328125	-0.0703125	0.80615234375	1.0625	-26.375	-31.0625
18	12	03	12	57	47	0.935869615359	-0.00836197334534	0.267277965542	-0.544921875	-0.20556640625	0.83642578125	-4.9375	-18.25	-26.5
18	12	03	12	57	47	0.935039695213	-0.0105595578871	0.265698008569	-0.56884765625	-0.31982421875	0.8056640625	8.8125	-16.4375	-26.5
18	12	03	12	57	47	0.933806120482	-0.00891141209166	0.264473620501	-0.6552734375	-0.3359375	0.72509765625	32.8125	-16.9375	-28.0625
18	12	03	12	57	47	0.930576955938	-0.00183112348669	0.267771291204	-0.9990234375	-0.39111328125	0.33837890625	66.5	-15.75	-37.5
18	12	03	12	57	47	0.923789650116	0.00781269079715	0.280402355641	-1.53759765625	-0.59814453125	0.15234375	83.5625	5.8125	-46.75
18	12	03	12	57	47	0.919959366696	0.00793489368833	0.290966447787	-1.18798828125	-0.46142578125	0.43798828125	10.6875	9.0625	-10.5625
18	12	03	12	57	47	0.918016706502	0.00177011200057	0.298904774717	-0.70068359375	-0.32470703125	0.49609375	-34.125	14.8125	2.0
18	12	03	12	57	47	0.913951774337	-0.0197756360949	0.311161088926	-0.3095703125	-0.21728515625	0.75048828125	-132.625	42.25	-37.8125
18	12	03	12	57	47	0.905397388188	-0.060058718483	0.329590528261	-0.11474609375	-0.11865234375	1.1416015625	-241.5625	61.5	-88.0
18	12	03	12	57	47	0.8946597761	-0.0885626507792	0.343996622875	-0.4384765625	-0.8427734375	1.4443359375	-151.4375	64.625	-112.0
18	12	03	12	57	47	0.88569635316	-0.0906997988282	0.34631942029	-0.232421875	-1.23046875	1.6796875	35.0	51.8125	-132.875
18	12	03	12	57	47	0.879526363922	-0.0664069870886	0.340457880497	0.27294921875	-0.4443359375	1.48486328125	187.375	57.0	-112.0625
18	12	03	12	57	47	0.875479058444	-0.0316791209184	0.331135319812	-0.30126953125	0.29345703125	1.00048828125	230.75	41.1875	-72.4375
18	12	03	12	57	47	0.875401428529	-0.00329603103755	0.320874725267	-1.40576171875	1.1044921875	0.98291015625	183.875	7.375	-3.1875
18	12	03	12	57	47	0.882164876983	0.0117801024879	0.316780994364	-0.8291015625	1.35888671875	1.10400390625	59.875	-2.0	108.0
18	12	03	12	57	47	0.889104640847	0.0079956551075	0.306215279957	0.26171875	0.35546875	0.578125	-41.5625	-36.3125	38.625
18	12	03	12	57	47	0.883771137824	-0.0238659102762	0.313674969078	-0.25	-0.73291015625	0.68603515625	-158.3125	-12.1875	-93.3125
18	12	03	12	57	47	0.876692597312	-0.0464501195123	0.325028760056	-0.88427734375	-0.974609375	0.78955078125	-91.9375	6.9375	-61.25
18	12	03	12	57	47	0.872482167174	-0.0415642081739	0.337213289516	-1.4365234375	-0.841796875	0.30859375	37.375	12.5625	7.125
18	12	03	12	57	47	0.873731239111	-0.0225223071765	0.336919066706	-0.98046875	-0.5703125	0.201171875	100.5625	23.0	45.4375
18	12	03	12	57	47	0.870978623262	-0.0075684197116	0.343508597878	-0.70703125	-0.53515625	0.38916015625	85.375	46.875	27.625
18	12	03	12	57	47	0.867873801053	-0.00360113610396	0.349005021058	-0.60986328125	-0.22705078125	0.88623046875	9.375	46.5625	-10.875
18	12	03	12	57	47	0.868276762276	-0.0153196588873	0.349544567521	-0.3349609375	0.1171875	1.20654296875	-92.1875	11.0625	-25.375
18	12	03	12	57	47	0.867902113893	-0.0339372371703	0.352068316544	-0.337890625	0.037109375	1.15380859375	-110.3125	-17.25	-25.8125
18	12	03	12	57	47	0.868305927734	-0.0383919885101	0.352913318864	-0.5517578125	-0.09228515625	0.81005859375	-41.25	-1.5	-4.875
18	12	03	12	57	47	0.867494044393	-0.0291748507155	0.353394112224	-0.59716796875	-0.10009765625	0.60546875	41.875	16.875	-3.125
18	12	03	12	57	47	0.865923378079	-0.0161136090655	0.354804581432	-0.693359375	-0.17919921875	0.41943359375	69.9375	18.0625	0.875
18	12	03	12	57	47	0.865444359637	-0.00708029802651	0.354564234793	-0.42724609375	0.0966796875	0.6181640625	32.0	22.3125	-2.9375
18	12	03	12	57	47	0.866490331044	-0.00677517798999	0.35365208355	-0.43701171875	0.1298828125	0.732421875	-20.125	2.125	-2.75
18	12	03	12	57	47	0.866962414736	-0.0225835041856	0.357551804106	-0.52685546875	-0.10546875	0.6279296875	-100.0625	-13.9375	-3.6875
18	12	03	12	57	47	0.866915461257	-0.038209468334	0.361647124407	-0.6201171875	-0.50830078125	0.57470703125	-83.5	-18.9375	3.9375
18	12	03	12	57	47	0.865692587677	-0.0459611167257	0.367627896466	-0.73828125	-0.51171875	0.3720703125	-41.625	-5.75	9.0625
18	12	03	12	57	47	0.863896556096	-0.0482180499729	0.373476263018	-0.55517578125	-0.474609375	0.3603515625	-12.0	15.625	11.25
18	12	03	12	57	47	0.860700844503	-0.0495630867128	0.3784373616	-0.60888671875	-0.5361328125	0.4208984375	4.625	17.375	-11.125
18	12	03	12	57	47	0.85823981648	-0.0526748425875	0.381907867984	-0.63427734375	-0.37744140625	0.501953125	-12.1875	7.5625	-18.875
18	12	03	12	57	47	0.85716081244	-0.0617707571167	0.384358159648	-0.64794921875	-0.392578125	0.6025390625	-49.625	-9.125	-13.0
18	12	03	12	57	47	0.857330445001	-0.0752590373549	0.385145600737	-0.6591796875	-0.39794921875	0.7060546875	-76.5625	-26.0625	-10.0625
18	12	03	12	57	47	0.858479742366	-0.0888082492103	0.383737087825	-0.59375	-0.4462890625	0.775390625	-74.5	-33.25	-3.1875
18	12	03	12	57	47	0.859577557307	-0.0984519349525	0.381051103477	-0.546875	-0.44775390625	0.7998046875	-48.9375	-28.125	-5.5625
18	12	03	12	57	47	0.860334815131	-0.104802758253	0.377888105036	-0.5810546875	-0.4150390625	0.810546875	-29.8125	-24.4375	-13.4375
18	12	03	12	57	47	0.861089514654	-0.109131560264	0.374147910748	-0.5732421875	-0.36474609375	0.802734375	-18.375	-23.375	-17.4375
18	12	03	12	57	47	0.861710550416	-0.111269183554	0.370734515032	-0.537109375	-0.40478515625	0.79833984375	-5.125	-15.9375	-13.75
18	12	03	12	57	47	0.862445930776	-0.110842307876	0.36707359007	-0.546875	-0.42041015625	0.82275390625	10.0	-12.125	-11.3125
18	12	03	12	57	47	0.863667981847	-0.109255525619	0.363167808621	-0.5634765625	-0.36865234375	0.828125	12.8125	-13.5	-8.0
18	12	03	12	57	47	0.864692221027	-0.109864191279	0.3598662621	-0.58837890625	-0.39111328125	0.83544921875	-0.125	-16.875	-7.5
18	12	03	12	57	47	0.865001416111	-0.112184067373	0.358403070519	-0.54296875	-0.3955078125	0.78955078125	-12.375	-9.125	-6.625
18	12	03	12	57	47	0.86452023177	-0.111879806893	0.359992962933	-0.55029296875	-0.41064453125	0.6728515625	-2.6875	7.25	1.625
18	12	03	12	57	47	0.864074676451	-0.111267085906	0.36248778014	-0.673828125	-0.37646484375	0.74462890625	-8.3125	8.8125	2.6875
18	12	03	12	57	48	0.864105444616	-0.115116399558	0.363477284925	-0.5830078125	-0.41455078125	0.8740234375	-32.5625	0.9375	3.375
18	12	03	12	57	48	0.863042695603	-0.12109453381	0.36560295238	-0.4951171875	-0.60595703125	0.81884765625	-33.8125	7.625	3.1875
18	12	03	12	57	48	0.86141592544	-0.122196179603	0.368724835654	-0.4814453125	-0.5859375	0.71484375	-5.625	21.3125	2.5625
18	12	03	12	57	48	0.860703727331	-0.116705590147	0.371175048997	-0.48095703125	-0.45751953125	0.671875	25.8125	27.6875	9.625
18	12	03	12	57	48	0.860478261612	-0.112061149689	0.372438526909	-0.54736328125	-0.35888671875	0.70361328125	17.9375	17.1875	3.75
18	12	03	12	57	48	0.860777412101	-0.111388979443	0.372435919211	-0.4833984375	-0.30419921875	0.740234375	-5.5625	6.0	1.9375
18	12	03	12	57	48	0.860427121178	-0.111330004187	0.373846642351	-0.44384765625	-0.36376953125	0.62109375	-5.25	10.5625	4.625
18	12	03	12	57	48	0.859518206676	-0.109865982958	0.376413064946	-0.58935546875	-0.3369140625	0.58935546875	-0.0625	12.5	-1.0
18	12	03	12	57	48	0.859824248434	-0.110110239524	0.377390028258	-0.58837890625	-0.265625	0.64453125	-13.9375	-0.1875	3.5625
18	12	03	12	57	48	0.860443781983	-0.113834692019	0.378065459715	-0.64794921875	-0.328125	0.705078125	-33.125	-10.0625	4.9375
18	12	03	12	57	48	0.860782201251	-0.119812483943	0.37896877881	-0.75146484375	-0.4326171875	0.79248046875	-44.25	-14.0625	2.625
18	12	03	12	57	48	0.8611088827	-0.124759466702	0.379222390716	-0.69580078125	-0.533203125	0.8271484375	-32.375	-10.25	4.5625
18	12	03	12	57	48	0.86122545719	-0.127322204373	0.379219969208	-0.7314453125	-0.62744140625	0.830078125	-12.125	-7.6875	2.9375
18	12	03	12	57	48	0.861910440114	-0.127568360586	0.378432457241	-0.66796875	-0.5419921875	0.83349609375	-2.3125	-4.9375	5.875
18	12	03	12	57	48	0.862787229935	-0.125426411822	0.377866138973	-0.55517578125	-0.470703125	0.783203125	7.9375	3.625	11.4375
18	12	03	12	57	48	0.862893043614	-0.125310845196	0.377397445615	-0.66015625	-0.451171875	0.7578125	-0.3125	-3.3125	-4.4375
18	12	03	12	57	48	0.863525274817	-0.126708967382	0.376098582374	-0.6083984375	-0.3564453125	0.74560546875	-12.4375	-10.375	-4.3125
18	12	03	12	57	48	0.863752036256	-0.128241327692	0.375751362815	-0.615234375	-0.384765625	0.693359375	-12.375	-7.4375	-3.375
18	12	03	12	57	48	0.863896008985	-0.129639333269	0.375001913184	-0.65869140625	-0.333984375	0.69384765625	-11.6875	-10.6875	-10.5625
18	12	03	12	57	48	0.864715207408	-0.130741863081	0.373426105663	-0.53564453125	-0.314453125	0.68310546875	-10.75	-10.75	-2.75
18	12	03	12	57	48	0.864922461861	-0.132994569501	0.372311552985	-0.54296875	-0.4404296875	0.712890625	-11.25	-8.375	-4.5
18	12	03	12	57	48	0.865368505441	-0.133485747031	0.370122345676	-0.54541015625	-0.4853515625	0.7470703125	3.375	-8.8125	-6.375
18	12	03	12	57	48	0.866353778119	-0.130435256012	0.367196303309	-0.4951171875	-0.5146484375	0.74560546875	26.75	-4.875	0.1875
18	12	03	12	57	48	0.867203598155	-0.125246465612	0.36432561074	-0.505859375	-0.47802734375	0.74365234375	38.25	-0.4375	-2.6875
18	12	03	12	57	48	0.868149693566	-0.118719760528	0.361957933126	-0.484375	-0.36181640625	0.7216796875	38.875	3.8125	-0.1875
18	12	03	12	57	48	0.868666553296	-0.114747970784	0.360662637959	-0.5	-0.33447265625	0.72900390625	20.375	4.0	-1.375
18	12	03	12	57	48	0.86871672193	-0.116089313926	0.360169843048	-0.56689453125	-0.33984375	0.76611328125	-12.375	-3.75	-6.8125
18	12	03	12	57	48	0.868307731162	-0.120364322076	0.360665709506	-0.4853515625	-0.40576171875	0.732421875	-26.6875	-1.25	-3.4375
18	12	03	12	57	48	0.866980324691	-0.122991083797	0.363174664314	-0.4892578125	-0.478515625	0.67919921875	-16.75	12.3125	-1.5625
18	12	03	12	57	48	0.865753665334	-0.12323439441	0.365796793313	-0.56396484375	-0.4658203125	0.6904296875	-5.125	14.4375	-1.5625
18	12	03	12	57	48	0.865413347418	-0.123961810326	0.367002641796	-0.56689453125	-0.46484375	0.70263671875	-6.8125	4.625	2.625
18	12	03	12	57	48	0.865123960159	-0.128114519005	0.366887267145	-0.658203125	-0.54248046875	0.75634765625	-19.6875	-10.9375	-5.8125
18	12	03	12	57	48	0.865212179872	-0.131170439121	0.36580011245	-0.54833984375	-0.49462890625	0.7158203125	-12.5625	-10.6875	-4.3125
18	12	03	12	57	48	0.864591391848	-0.129581893745	0.367199563245	-0.50390625	-0.46337890625	0.57861328125	10.5	9.4375	1.3125
18	12	03	12	57	48	0.863229801142	-0.127198678186	0.370487512758	-0.71728515625	-0.42529296875	0.57861328125	8.75	12.1875	-5.5625
18	12	03	12	57	48	0.862952084995	-0.129461124082	0.371231757034	-0.66845703125	-0.38818359375	0.67333984375	-17.9375	-6.8125	-5.75
18	12	03	12	57	48	0.862872495231	-0.136111315298	0.370552374517	-0.50390625	-0.5205078125	0.6943359375	-33.4375	-13.9375	-2.5625
18	12	03	12	57	48	0.862576595114	-0.14008019288	0.370434287839	-0.48291015625	-0.55029296875	0.64794921875	-16.3125	-5.875	-0.25
18	12	03	12	57	48	0.863075863149	-0.13776253346	0.370500034605	-0.5400390625	-0.4560546875	0.6083984375	12.6875	0.4375	7.875
18	12	03	12	57	48	0.864072241342	-0.13629111499	0.368834396725	-0.58056640625	-0.41552734375	0.689453125	8.375	-9.0	1.4375
18	12	03	12	57	48	0.865315491503	-0.138186800646	0.365975290051	-0.50634765625	-0.3681640625	0.79052734375	-13.5	-15.25	-2.1875
18	12	03	12	57	48	0.865575646817	-0.141668505484	0.36470026724	-0.453125	-0.49658203125	0.78466796875	-18.25	-5.875	0.0
18	12	03	12	57	48	0.865061781737	-0.143007108912	0.365299849269	-0.51513671875	-0.54345703125	0.7431640625	-6.375	5.0625	-0.5
18	12	03	12	57	48	0.865631850259	-0.141423564874	0.364820305246	-0.484375	-0.4755859375	0.78759765625	5.375	5.375	7.625
18	12	03	12	57	48	0.866286748378	-0.139589783241	0.364080916936	-0.46435546875	-0.46337890625	0.7841796875	7.3125	5.5625	7.25
18	12	03	12	57	48	0.866543045942	-0.138859296296	0.363536689556	-0.53515625	-0.50390625	0.80078125	3.875	2.5	1.9375
18	12	03	12	57	48	0.866951764572	-0.138368040713	0.362491307364	-0.537109375	-0.48876953125	0.80615234375	2.5625	-0.625	0.4375
18	12	03	12	57	48	0.867080685713	-0.136782191798	0.362677279636	-0.5556640625	-0.48681640625	0.7509765625	7.375	5.0625	3.75
18	12	03	12	57	48	0.86676407376	-0.134766218919	0.364503559502	-0.58984375	-0.47216796875	0.69775390625	6.25	11.0	5.875
18	12	03	12	57	48	0.866616503503	-0.133306835023	0.366471720456	-0.60595703125	-0.43896484375	0.7060546875	-0.375	9.4375	8.1875
18	12	03	12	57	49	0.866825135019	-0.135193470924	0.36731120001	-0.6484375	-0.482421875	0.73779296875	-16.25	-4.5625	6.125
18	12	03	12	57	49	0.867265279016	-0.138491443317	0.366523189562	-0.5947265625	-0.5244140625	0.728515625	-16.625	-12.6875	3.1875
18	12	03	12	57	49	0.867928732625	-0.136659102134	0.36615361934	-0.49169921875	-0.47314453125	0.62841796875	11.5	-0.1875	9.8125
18	12	03	12	57	49	0.868334536447	-0.131049785586	0.367024853624	-0.62255859375	-0.40625	0.55908203125	29.3125	5.0	8.25
18	12	03	12	57	49	0.869618136333	-0.127622931153	0.365718126959	-0.68212890625	-0.2646484375	0.64697265625	11.8125	-11.9375	0.5
18	12	03	12	57	49	0.871302915216	-0.12738418102	0.363658337573	-0.5166015625	-0.2734375	0.6416015625	-5.25	-15.5625	7.5625
18	12	03	12	57	49	0.871515064491	-0.127074330434	0.363828090162	-0.58251953125	-0.39453125	0.6240234375	0.125	-3.75	1.875
18	12	03	12	57	49	0.871376328896	-0.123357492344	0.365372562676	-0.6513671875	-0.3876953125	0.61376953125	16.0	6.6875	3.75
18	12	03	12	57	49	0.872058759271	-0.117499342871	0.365621331843	-0.55712890625	-0.37060546875	0.73583984375	25.9375	11.6875	11.0625
18	12	03	12	57	49	0.872347263186	-0.114262110039	0.366468861473	-0.56787109375	-0.42529296875	0.87353515625	8.75	15.5625	11.1875
18	12	03	12	57	49	0.872452681656	-0.111879513465	0.367560518325	-0.57470703125	-0.47705078125	0.9375	4.5	18.5	12.125
18	12	03	12	57	49	0.87261288111	-0.109503882814	0.367332422952	-0.63134765625	-0.591796875	1.03076171875	13.125	13.375	7.1875
18	12	03	12	57	49	0.873618024363	-0.108340109917	0.36432795273	-0.5830078125	-0.55078125	1.080078125	10.1875	-0.0625	2.0
18	12	03	12	57	49	0.874790100751	-0.107181929732	0.361281231255	-0.55078125	-0.53125	0.9921875	11.625	-3.3125	4.75
18	12	03	12	57	49	0.875445136068	-0.104738468486	0.359016125661	-0.63720703125	-0.501953125	0.875	20.625	-5.1875	-1.625
18	12	03	12	57	49	0.876467336654	-0.101196576892	0.356385290997	-0.6474609375	-0.37646484375	0.80615234375	22.3125	-9.4375	-2.75
18	12	03	12	57	49	0.877509116681	-0.0991828833976	0.354433848547	-0.6494140625	-0.34423828125	0.7119140625	12.0625	-13.5	1.0625
18	12	03	12	57	49	0.877981911334	-0.10089010076	0.353206904476	-0.69140625	-0.35888671875	0.72705078125	-9.0625	-17.5625	-6.0
18	12	03	12	57	49	0.87873514215	-0.103578074337	0.351445228068	-0.58984375	-0.37451171875	0.73193359375	-13.0625	-17.4375	-1.75
18	12	03	12	57	49	0.878857214129	-0.104981902098	0.35120108411	-0.5791015625	-0.4140625	0.685546875	-5.6875	-7.25	-0.1875
18	12	03	12	57	49	0.878846074258	-0.105957134864	0.35125766771	-0.6142578125	-0.3681640625	0.755859375	-8.1875	-4.0	-3.125
18	12	03	12	57	49	0.8791953365	-0.107610481689	0.351031128868	-0.54443359375	-0.3642578125	0.7548828125	-12.9375	-4.0625	2.4375
18	12	03	12	57	49	0.878978726162	-0.110291962931	0.351383968232	-0.52734375	-0.42724609375	0.76953125	-15.9375	-0.1875	-0.375
18	12	03	12	57	49	0.87886613288	-0.110476262276	0.351815014231	-0.49755859375	-0.42431640625	0.76953125	-2.875	6.5	2.8125
18	12	03	12	57	49	0.878706411544	-0.108648055887	0.352617875763	-0.4794921875	-0.4091796875	0.7236328125	8.5	11.1875	5.625
18	12	03	12	57	49	0.878565121367	-0.106814572905	0.353220533372	-0.5283203125	-0.36474609375	0.75341796875	6.0	9.0	1.1875
18	12	03	12	57	49	0.87857354644	-0.106205222371	0.353590145514	-0.49072265625	-0.3408203125	0.74072265625	-1.5	6.9375	2.1875
18	12	03	12	57	49	0.877903087522	-0.105778074858	0.355482693578	-0.47021484375	-0.40673828125	0.67333984375	0.0	13.8125	4.0625
18	12	03	12	57	49	0.876831412364	-0.104003948675	0.358337548517	-0.4921875	-0.3759765625	0.64404296875	4.875	20.5	2.6875
18	12	03	12	57	49	0.876025518872	-0.102117523207	0.360982087417	-0.494140625	-0.33349609375	0.6328125	3.0625	18.625	4.625
18	12	03	12	57	49	0.87521717934	-0.102848242359	0.362990206119	-0.5302734375	-0.353515625	0.642578125	-8.5625	9.625	-1.0625
18	12	03	12	57	49	0.874723352084	-0.104983892651	0.364330729788	-0.4970703125	-0.35302734375	0.61376953125	-15.0	3.3125	0.5
18	12	03	12	57	49	0.87429026332	-0.105898743847	0.365610072416	-0.47509765625	-0.369140625	0.5517578125	-5.625	4.0	2.5
18	12	03	12	57	49	0.873790204857	-0.10540903072	0.366947940179	-0.58837890625	-0.33203125	0.5361328125	1.0625	1.0	-2.5
18	12	03	12	57	49	0.874176637841	-0.107242588513	0.366590202965	-0.71484375	-0.32763671875	0.615234375	-12.3125	-17.0	-3.9375
18	12	03	12	57	49	0.875411625433	-0.113287127095	0.363849442142	-0.70947265625	-0.396484375	0.71630859375	-31.5625	-35.125	-4.375
18	12	03	12	57	49	0.876429149893	-0.118533700752	0.361216498995	-0.55810546875	-0.458984375	0.72802734375	-23.4375	-24.4375	-0.0625
18	12	03	12	57	49	0.87612603957	-0.119144352044	0.361400465396	-0.6982421875	-0.591796875	0.697265625	6.125	-6.4375	-1.25
18	12	03	12	57	49	0.876171475543	-0.116944935363	0.360356418781	-0.86865234375	-0.58056640625	0.85595703125	20.625	-10.0625	-9.0
18	12	03	12	57	49	0.878077321776	-0.113223511184	0.356272579397	-0.646484375	-0.4833984375	0.904296875	26.8125	-14.8125	4.75
18	12	03	12	57	49	0.879180229855	-0.110294270713	0.353588660896	-0.4658203125	-0.517578125	0.84228515625	24.375	-0.9375	7.75
18	12	03	12	57	49	0.879360081831	-0.105594012742	0.352549721154	-0.5400390625	-0.43701171875	0.82373046875	29.6875	8.5	-0.6875
18	12	03	12	57	49	0.879705866475	-0.102051495785	0.351687032722	-0.6357421875	-0.30517578125	0.81201171875	15.4375	0.875	-4.75
18	12	03	12	57	49	0.8801086006	-0.10455829342	0.350297750111	-0.55615234375	-0.27734375	0.84130859375	-20.25	-8.4375	-7.625
18	12	03	12	57	49	0.879841895891	-0.109560610692	0.350288771454	-0.53271484375	-0.41162109375	0.8193359375	-29.5	-4.1875	-4.9375
18	12	03	12	57	49	0.879026517631	-0.113219982656	0.351439708965	-0.6240234375	-0.505859375	0.8291015625	-19.5625	1.0	-4.875
18	12	03	12	57	49	0.879050120373	-0.113284059395	0.351510182143	-0.58837890625	-0.48583984375	0.841796875	-0.1875	2.4375	2.375
18	12	03	12	57	49	0.879176050444	-0.11163655903	0.35151172414	-0.57080078125	-0.52880859375	0.841796875	11.5	6.1875	6.375
18	12	03	12	57	49	0.879311940467	-0.108647456201	0.351212057854	-0.54736328125	-0.494140625	0.85205078125	18.9375	8.9375	4.5
18	12	03	12	57	49	0.879458420014	-0.104980809385	0.351075357896	-0.5263671875	-0.42822265625	0.80810546875	20.125	10.3125	4.25
18	12	03	12	57	50	0.878948810895	-0.103520637728	0.352189905477	-0.5947265625	-0.4111328125	0.77490234375	6.125	9.6875	-1.0
18	12	03	12	57	50	0.878212093534	-0.104252589363	0.354019331561	-0.6328125	-0.40234375	0.74853515625	-8.3125	6.0625	-2.375
18	12	03	12	57	50	0.877641697857	-0.1055318517	0.355841929098	-0.5517578125	-0.39599609375	0.6943359375	-11.25	6.875	1.875
18	12	03	12	57	50	0.876715168603	-0.106507098943	0.358400965611	-0.59375	-0.41015625	0.66796875	-9.5625	9.25	1.0625
18	12	03	12	57	50	0.876203078454	-0.106572662834	0.360491492954	-0.630859375	-0.38330078125	0.6708984375	-6.0625	5.6875	2.75
18	12	03	12	57	50	0.876197357589	-0.106877155913	0.361282630412	-0.56689453125	-0.3798828125	0.67431640625	-5.3125	1.0625	3.9375
18	12	03	12	57	50	0.876048817765	-0.107362214899	0.361760004382	-0.560546875	-0.4091796875	0.6728515625	-2.375	0.5	0.9375
18	12	03	12	57	50	0.87599841089	-0.106753150825	0.362008540621	-0.6220703125	-0.40380859375	0.67919921875	3.4375	-1.6875	-0.5625
18	12	03	12	57	50	0.876451392886	-0.106206938061	0.361469820229	-0.61083984375	-0.3701171875	0.67138671875	2.5625	-6.6875	1.75
18	12	03	12	57	50	0.876980976692	-0.10681491573	0.3606681926	-0.634765625	-0.37060546875	0.68994140625	-3.8125	-11.0	-0.25
18	12	03	12	57	50	0.877661956988	-0.108036835932	0.359451371076	-0.65576171875	-0.392578125	0.734375	-6.8125	-14.0625	-0.125
18	12	03	12	57	50	0.878240754	-0.108704342406	0.358095663612	-0.6259765625	-0.40966796875	0.75732421875	-2.1875	-11.0625	-1.4375
18	12	03	12	57	50	0.878595839032	-0.108031582847	0.356870432151	-0.66162109375	-0.43994140625	0.7685546875	7.375	-8.75	-3.375
18	12	03	12	57	50	0.879226997056	-0.106508233937	0.355047791869	-0.650390625	-0.419921875	0.79541015625	12.125	-9.125	-2.9375
18	12	03	12	57	50	0.880149913319	-0.104433876677	0.352853443058	-0.60009765625	-0.40869140625	0.8037109375	14.5625	-8.125	0.4375
18	12	03	12	57	50	0.880928156674	-0.102600999887	0.350772127514	-0.6201171875	-0.40576171875	0.8330078125	12.5625	-7.6875	-1.25
18	12	03	12	57	50	0.881684281966	-0.10168819756	0.348706286111	-0.6259765625	-0.38623046875	0.84521484375	6.5	-9.6875	-2.875
18	12	03	12	57	50	0.882294541898	-0.101627147164	0.346753046871	-0.58203125	-0.39404296875	0.84326171875	2.5625	-8.4375	-3.0625
18	12	03	12	57	50	0.882492408774	-0.100828373974	0.345697282198	-0.5634765625	-0.41259765625	0.8037109375	7.1875	-2.0625	-2.5
18	12	03	12	57	50	0.882524573097	-0.0988788857056	0.345526772827	-0.59716796875	-0.3955078125	0.77734375	11.125	1.9375	-0.8125
18	12	03	12	57	50	0.882703976061	-0.0973525682352	0.34534221384	-0.576171875	-0.359375	0.78515625	6.25	1.6875	0.5
18	12	03	12	57	50	0.882907257153	-0.0973547926138	0.344922842044	-0.51708984375	-0.37548828125	0.7822265625	-0.625	0.8125	1.4375
18	12	03	12	57	50	0.882738549351	-0.0978446891585	0.345050547606	-0.51513671875	-0.380859375	0.77587890625	-3.625	3.125	-1.25
18	12	03	12	57	50	0.882415429767	-0.0975375151669	0.345592872888	-0.52685546875	-0.365234375	0.75830078125	0.0	6.0625	-1.625
18	12	03	12	57	50	0.881984097877	-0.0973539540563	0.346262684239	-0.56298828125	-0.3701171875	0.7490234375	-0.5	4.6875	-3.625
18	12	03	12	57	50	0.88171246465	-0.0976560946587	0.346984311334	-0.5390625	-0.3525390625	0.76025390625	-5.25	4.875	-0.9375
18	12	03	12	57	50	0.88136228525	-0.0971085454178	0.348394454585	-0.48681640625	-0.38232421875	0.72509765625	-0.375	11.75	5.125
18	12	03	12	57	50	0.880451146181	-0.0958883016049	0.350654546607	-0.49560546875	-0.396484375	0.70458984375	3.8125	17.5	2.1875
18	12	03	12	57	50	0.879845937466	-0.0941187953918	0.352487706477	-0.5078125	-0.34765625	0.7021484375	5.125	15.125	2.5625
18	12	03	12	57	50	0.879540438739	-0.0943629089723	0.353342095757	-0.53173828125	-0.34033203125	0.68896484375	-4.375	4.5	-0.3125
18	12	03	12	57	50	0.879586465871	-0.0957651214317	0.353275030495	-0.51123046875	-0.32080078125	0.67138671875	-9.5625	-2.75	-1.5
18	12	03	12	57	50	0.879476826616	-0.0955833652912	0.354012464041	-0.50341796875	-0.35009765625	0.5712890625	1.3125	0.625	3.625
18	12	03	12	57	50	0.878799988938	-0.0956438104366	0.355414108597	-0.72705078125	-0.3740234375	0.58251953125	0.6875	-5.8125	-6.9375
18	12	03	12	57	50	0.879395650006	-0.0980225856406	0.354492638481	-0.771484375	-0.337890625	0.6474609375	-13.125	-24.4375	-4.9375
18	12	03	12	57	50	0.88051399831	-0.103029781585	0.352669477488	-0.67138671875	-0.42333984375	0.68994140625	-24.5	-29.3125	2.875
18	12	03	12	57	50	0.880990337787	-0.107606066615	0.351199833977	-0.67919921875	-0.5341796875	0.7197265625	-15.75	-23.5	-0.875
18	12	03	12	57	50	0.88181480798	-0.108037115673	0.349503121097	-0.74658203125	-0.55517578125	0.7509765625	7.75	-20.75	3.3125
18	12	03	12	57	50	0.883227939841	-0.107672016992	0.346027587488	-0.80322265625	-0.50048828125	0.86962890625	10.375	-28.0	-2.3125
18	12	03	12	57	50	0.885213326818	-0.106569845454	0.341377517541	-0.72705078125	-0.45556640625	0.88623046875	13.8125	-30.1875	0.625
18	12	03	12	57	50	0.886692466702	-0.10528977112	0.337537643069	-0.65869140625	-0.50048828125	0.87548828125	17.25	-21.5	1.3125
18	12	03	12	57	50	0.887890477742	-0.102723563212	0.334416163302	-0.63232421875	-0.427734375	0.90625	18.875	-12.875	-0.375
18	12	03	12	57	50	0.889010623361	-0.0988806872534	0.331982751834	-0.658203125	-0.365234375	0.89501953125	21.5625	-9.3125	0.9375
18	12	03	12	57	50	0.890036409275	-0.097109307856	0.329475828917	-0.6201171875	-0.39013671875	0.8984375	11.9375	-11.4375	0.1875
18	12	03	12	57	50	0.891269175453	-0.096317131822	0.326245291247	-0.5263671875	-0.45654296875	0.91748046875	11.5625	-12.0	4.5625
18	12	03	12	57	50	0.892426638208	-0.0930819111735	0.322765341826	-0.57958984375	-0.60400390625	0.97607421875	33.8125	-9.4375	6.75
18	12	03	12	57	50	0.894543450124	-0.0830699805963	0.318241644988	-0.685546875	-0.97900390625	0.90576171875	95.1875	-14.0	31.5625
18	12	03	12	57	50	0.901282801326	-0.0418108302119	0.300793826692	-0.63623046875	-0.9765625	0.73291015625	267.1875	-30.0625	52.3125
18	12	03	12	57	50	0.904926015651	0.0245366422698	0.273260068263	-0.59765625	-0.142578125	0.49462890625	422.625	-31.375	29.25
18	12	03	12	57	50	0.903053645134	0.0908241854653	0.242625092221	-0.65771484375	0.50634765625	0.3623046875	421.625	-41.5	10.0625
18	12	03	12	57	50	0.901411989655	0.132941177781	0.215281696067	-0.751953125	0.93310546875	0.5703125	271.75	-67.4375	17.3125
18	12	03	12	57	51	0.906627246822	0.142091573354	0.192934477393	-0.75390625	0.98388671875	0.79248046875	70.3125	-105.75	53.4375
18	12	03	12	57	51	0.917197345431	0.125308188605	0.172916755148	-0.58251953125	0.50830078125	0.95703125	-74.375	-142.8125	73.0625
18	12	03	12	57	51	0.927143348087	0.10443332907	0.150027541119	-0.32177734375	-0.009765625	1.08447265625	-80.1875	-162.375	64.3125
18	12	03	12	57	51	0.93467623965	0.0974778263385	0.12042814738	-0.109375	-0.220703125	1.1083984375	13.4375	-168.875	65.0625
18	12	03	12	57	51	0.940220303753	0.104923312266	0.086184826597	-0.0087890625	-0.0869140625	1.03955078125	98.5	-165.4375	75.75
18	12	03	12	57	51	0.94490182285	0.117677844742	0.0522470099063	0.037109375	0.08349609375	0.96484375	122.625	-152.1875	96.0
18	12	03	12	57	51	0.949238231059	0.127505058172	0.0215458523382	0.11376953125	0.2001953125	0.89306640625	99.0	-137.4375	107.3125
18	12	03	12	57	51	0.953823535861	0.12829955029	-0.00433361944366	0.181640625	0.29248046875	0.82421875	40.3125	-124.9375	108.25
18	12	03	12	57	51	0.958934339046	0.118043346172	-0.0252688445271	0.17138671875	0.28271484375	0.76513671875	-28.5	-116.5	104.0625
18	12	03	12	57	51	0.96393298065	0.0996098666765	-0.0429079266382	0.14208984375	0.2412109375	0.701171875	-78.5	-112.1875	96.5
18	12	03	12	57	51	0.96824754511	0.0769080190909	-0.0578641286493	0.0869140625	0.1044921875	0.68212890625	-103.5625	-105.625	88.125
18	12	03	12	57	51	0.971324047963	0.055420525044	-0.0725105547932	0.0166015625	0.00732421875	0.76416015625	-95.875	-105.0625	79.5
18	12	03	12	57	51	0.973474011959	0.0407114656704	-0.0860006823531	0.0166015625	-0.00244140625	0.71435546875	-54.9375	-95.1875	77.1875
18	12	03	12	57	51	0.975340209069	0.0316771945248	-0.0983885117034	0.05322265625	0.02197265625	0.67529296875	-26.5625	-80.625	82.25
18	12	03	12	57	51	0.977282763828	0.0272840794099	-0.108403859132	0.13818359375	0.11279296875	0.7197265625	-8.125	-58.0	90.625
18	12	03	12	57	51	0.979164626239	0.0269175663989	-0.115727224246	0.17724609375	0.22607421875	0.73974609375	3.8125	-37.1875	91.625
18	12	03	12	57	51	0.98104131217	0.0265509220926	-0.119997960538	0.21337890625	0.30419921875	0.74462890625	-4.75	-18.5625	89.5
18	12	03	12	57	51	0.982827449551	0.02191249872	-0.121281712971	0.26025390625	0.33203125	0.833984375	-34.75	-4.125	79.1875
18	12	03	12	57	51	0.984481313056	0.0140387316016	-0.120977243628	0.3291015625	0.15478515625	0.8603515625	-44.4375	6.375	69.875
18	12	03	12	57	51	0.986113593708	0.00476088513922	-0.118777980525	0.40625	-0.05810546875	0.861328125	-40.5625	21.25	63.875
18	12	03	12	57	51	0.987229606655	-0.00042726643048	-0.115178822045	0.2158203125	-0.1748046875	1.1123046875	-13.9375	14.875	34.125
18	12	03	12	57	51	0.986754509085	-0.00146484247034	-0.116699116804	0.1533203125	-0.0234375	1.27734375	-2.875	-19.75	-15.1875
18	12	03	12	57	51	0.985387383345	0.002197345503	-0.121342301666	0.24951171875	0.09228515625	1.25341796875	15.375	-28.875	-40.8125
18	12	03	12	57	51	0.984326954936	0.000976575387795	-0.123964038288	0.267578125	0.04638671875	1.23046875	-9.5625	-19.375	-33.3125
18	12	03	12	57	51	0.983808673077	-0.00207528817996	-0.125493897	0.34765625	-0.06494140625	1.20947265625	-11.0625	-8.625	-14.1875
18	12	03	12	57	51	0.9831412378	-0.00329605928113	-0.126776206054	0.31640625	-0.01708984375	1.2705078125	-4.875	-9.0625	-21.8125
18	12	03	12	57	51	0.982204884518	-0.00451672641401	-0.126712486966	0.123046875	0.06396484375	1.267578125	-14.1875	-15.375	-37.375
18	12	03	12	57	51	0.981455568214	-0.00811776060774	-0.124879234612	0.13916015625	-0.0234375	1.14501953125	-23.5	-3.5	-35.9375
18	12	03	12	57	51	0.980603317415	-0.0166628100121	-0.125245736794	0.33251953125	-0.21044921875	1.1865234375	-36.3125	-7.6875	-24.625
18	12	03	12	57	51	0.979763857919	-0.0220343105351	-0.125796991725	0.45361328125	-0.2275390625	1.1201171875	-17.6875	3.0625	-24.9375
18	12	03	12	57	51	0.979533641553	-0.0214852842614	-0.122563780673	0.2998046875	-0.06689453125	1.1015625	1.4375	20.125	-24.3125
18	12	03	12	57	51	0.979805922713	-0.0222169909592	-0.117127488051	0.24169921875	-0.02685546875	1.00927734375	-9.0625	30.0625	-12.0
18	12	03	12	57	51	0.979885197899	-0.0234991778492	-0.113284348281	0.30615234375	-0.06201171875	1.01025390625	-8.6875	25.5	-10.875
18	12	03	12	57	51	0.979621160626	-0.0256349462594	-0.110291304502	0.2998046875	-0.1015625	1.02099609375	-11.0625	19.4375	-18.5
18	12	03	12	57	51	0.9795436694	-0.0263058957886	-0.106017032447	0.26220703125	-0.0546875	0.87744140625	-6.9375	28.3125	-16.875
18	12	03	12	57	51	0.980091008915	-0.0264295576297	-0.0991261006712	0.1015625	0.0	0.87939453125	-9.0	33.5	-3.9375
18	12	03	12	57	51	0.981187052417	-0.025086648743	-0.0902142745551	0.04638671875	-0.01123046875	0.8134765625	-0.625	44.1875	8.1875
18	12	03	12	57	51	0.982203658688	-0.0256964790149	-0.0833762240721	0.13134765625	0.03125	0.81982421875	-12.3125	37.1875	16.875
18	12	03	12	57	51	0.982656324678	-0.0256361051224	-0.0822796897737	0.23779296875	0.01953125	0.8076171875	-2.0625	12.9375	13.125
18	12	03	12	57	51	0.982773925195	-0.023316541794	-0.0804481729959	0.1611328125	-0.03125	0.6884765625	11.9375	15.75	-3.6875
18	12	03	12	57	51	0.983169040742	-0.0227664546931	-0.0747081515935	0.015625	-0.005859375	0.65234375	-3.0	27.0625	-1.625
18	12	03	12	57	51	0.983759030101	-0.0219738940768	-0.0702554224512	-0.04052734375	0.0947265625	0.7109375	-6.6875	16.0	9.75
18	12	03	12	57	51	0.983910747266	-0.0243536220942	-0.0701921438806	0.1123046875	0.16259765625	0.75341796875	-25.3125	-1.8125	9.9375
18	12	03	12	57	51	0.983932763191	-0.026734649521	-0.0727573110251	0.27001953125	0.05712890625	0.740234375	-16.125	-6.3125	11.25
18	12	03	12	57	51	0.984233886671	-0.0272228411445	-0.0730621992152	0.18505859375	-0.0859375	0.6318359375	3.1875	3.9375	11.5625
18	12	03	12	57	51	0.984434166667	-0.0256347169694	-0.0703734015852	-0.12939453125	0.0263671875	0.75244140625	2.75	-0.1875	-1.625
18	12	03	12	57	51	0.984247457291	-0.0263060060829	-0.0733638499109	-0.021484375	0.13818359375	0.84716796875	-12.3125	-28.0625	2.9375
18	12	03	12	57	51	0.983815409969	-0.0274672375286	-0.0814250996959	0.21728515625	0.08056640625	0.94873046875	-6.1875	-43.125	8.125
18	12	03	12	57	51	0.98307829511	-0.0299086281264	-0.0885661620641	0.30126953125	-0.04248046875	0.95849609375	-6.6875	-34.25	-2.3125
18	12	03	12	57	51	0.982525534026	-0.0293591838148	-0.0937540672339	0.220703125	-0.0234375	0.923828125	7.3125	-26.125	-4.5
18	12	03	12	57	52	0.981865883249	-0.0273435641012	-0.099364558832	0.09619140625	-0.02197265625	1.072265625	15.375	-39.0	-8.5625
18	12	03	12	57	52	0.980955887441	-0.0259399111599	-0.104553100746	0.11572265625	0.0087890625	1.00927734375	9.3125	-35.1875	-16.5
18	12	03	12	57	52	0.980676986886	-0.0238653576817	-0.108523288895	0.16748046875	0.0244140625	1.1103515625	13.0	-26.5625	2.0
18	12	03	12	57	52	0.980071758814	-0.0255745199566	-0.116458673215	0.34814453125	-0.04833984375	1.2646484375	1.125	-43.9375	10.875
18	12	03	12	57	52	0.979065621629	-0.0222168123105	-0.12481698125	0.28857421875	0.0107421875	1.16796875	24.875	-45.5625	-6.375
18	12	03	12	57	52	0.978758558747	-0.0197143311596	-0.129272301536	0.3232421875	-0.04931640625	1.21484375	22.4375	-23.375	4.1875
18	12	03	12	57	52	0.978101724096	-0.0180666527508	-0.136781651401	0.51025390625	-0.02783203125	1.224609375	20.0625	-30.0625	8.125
18	12	03	12	57	52	0.977435575388	-0.0115969001701	-0.138369329924	0.2255859375	0.0625	1.1708984375	32.4375	-10.6875	-23.875
18	12	03	12	57	52	0.977341362407	-0.00933882266102	-0.135992790123	0.0107421875	0.08447265625	1.35888671875	4.8125	-9.625	-15.6875
18	12	03	12	57	52	0.977137095542	-0.0148319266798	-0.141666262649	0.7099609375	-0.0927734375	1.12353515625	-14.9375	-11.5	24.0
18	12	03	12	57	52	0.976491044314	-0.0139167369736	-0.145210163422	0.57666015625	-0.13134765625	1.16015625	18.125	-3.8125	-9.9375
18	12	03	12	57	52	0.977029467148	-0.00817904345585	-0.138433362372	0.154296875	-0.1708984375	1.06689453125	36.875	33.75	-24.625
18	12	03	12	57	52	0.977600580201	-0.00738525755162	-0.13763434528	0.287109375	0.31005859375	1.03955078125	-12.9375	5.0	20.625
18	12	03	12	57	52	0.977556522699	-0.00714124083141	-0.139834040553	0.373046875	0.1171875	1.15478515625	-0.9375	-9.625	10.3125
18	12	03	12	57	52	0.977387891414	-0.00701927231078	-0.137028402937	0.34375	-0.05859375	1.0263671875	1.5	19.75	-21.4375
18	12	03	12	57	52	0.978235662023	-0.00512708526923	-0.133365253729	0.26708984375	-0.0126953125	0.91845703125	11.8125	24.1875	9.625
18	12	03	12	57	52	0.979059698453	-0.00164794039388	-0.127501758623	0.18115234375	0.04833984375	1.0009765625	13.6875	31.0	-0.25
18	12	03	12	57	52	0.979088841222	0.00433360187811	-0.12512512465	0.099609375	0.0517578125	0.859375	29.3125	11.125	-13.3125
18	12	03	12	57	52	0.979336835149	0.0059816148236	-0.123416583401	0.25	0.1455078125	0.93701171875	1.375	12.5625	2.1875
18	12	03	12	57	52	0.979832545987	0.00787381788029	-0.123295442777	0.3388671875	0.04833984375	0.87451171875	12.6875	11.0	15.5625
18	12	03	12	57	52	0.979861964758	0.0134888186254	-0.119873483168	0.1455078125	0.10546875	0.81982421875	23.1875	20.75	-14.6875
18	12	03	12	57	52	0.97995706678	0.0181281375792	-0.115116725503	0.0166015625	0.09619140625	0.79931640625	17.4375	20.0	-15.8125
18	12	03	12	57	52	0.98025989507	0.0177618698297	-0.113956738736	0.13525390625	0.0595703125	0.8251953125	-2.5625	3.0625	6.0625
18	12	03	12	57	52	0.980193378255	0.0158085861491	-0.1139561017	0.2353515625	0.05419921875	0.85009765625	-10.75	1.0	-2.5625
18	12	03	12	57	52	0.980116806307	0.0150148670041	-0.114808800141	0.22412109375	0.04931640625	0.86767578125	-3.125	-3.5	0.5
18	12	03	12	57	52	0.980027679515	0.0158088670275	-0.116216535986	0.240234375	0.06982421875	0.86376953125	5.25	-4.3125	2.5625
18	12	03	12	57	52	0.979844552448	0.0179452001756	-0.117193144004	0.1875	0.05810546875	0.845703125	13.3125	-4.3125	-2.6875
18	12	03	12	57	52	0.979647641925	0.0198981390198	-0.117435642559	0.08203125	0.099609375	0.87841796875	8.3125	-7.75	-4.625
18	12	03	12	57	52	0.979520148338	0.0188604016598	-0.119327136715	0.20361328125	0.1279296875	0.89892578125	-7.75	-12.3125	4.375
18	12	03	12	57	52	0.979216981233	0.0159917003729	-0.122440270794	0.30078125	0.06591796875	0.970703125	-12.625	-15.8125	2.4375
18	12	03	12	57	52	0.978773774489	0.0137941427435	-0.124147284691	0.27978515625	0.03857421875	0.966796875	-9.875	-9.0625	-8.1875
18	12	03	12	57	52	0.978745274173	0.0125738401297	-0.124334525943	0.21630859375	0.05322265625	0.99609375	-5.875	-4.1875	-0.0625
18	12	03	12	57	52	0.978858750986	0.0129399548051	-0.123723058443	0.1826171875	0.00830078125	0.98974609375	5.3125	-0.5625	0.5
18	12	03	12	57	52	0.978999644672	0.0134276759244	-0.122802199818	0.1767578125	0.03857421875	1.01220703125	4.25	1.25	0.4375
18	12	03	12	57	52	0.979094834232	0.0123294779948	-0.124149298225	0.32763671875	0.08251953125	1.05859375	-5.0	-4.0625	9.375
18	12	03	12	57	52	0.978926384253	0.0109257901722	-0.126836826691	0.39794921875	0.0673828125	1.0537109375	-4.625	-7.25	5.8125
18	12	03	12	57	52	0.978643694383	0.0108643244106	-0.127564258529	0.25830078125	0.0732421875	1.01904296875	-1.0625	-4.4375	-6.4375
18	12	03	12	57	52	0.978760135711	0.0112915081758	-0.126709032286	0.18359375	0.0595703125	0.98095703125	1.75	0.875	0.3125
18	12	03	12	57	52	0.978904276179	0.0114748724231	-0.125491157989	0.13818359375	0.10498046875	1.0146484375	-2.6875	-1.0	0.75
18	12	03	12	57	52	0.978918085344	0.0114750342963	-0.125615003095	0.2158203125	0.13623046875	1.0126953125	-4.8125	-3.25	2.1875
18	12	03	12	57	52	0.978881978156	0.00988769674905	-0.127502459931	0.34326171875	0.10009765625	1.05126953125	-8.8125	-6.6875	8.125
18	12	03	12	57	52	0.978803943719	0.0104985207234	-0.128118575572	0.34375	0.009765625	1.00341796875	7.75	3.0	-1.625
18	12	03	12	57	52	0.978765783675	0.013488852469	-0.126526656869	0.19189453125	0.04541015625	0.97119140625	15.875	7.75	-9.625
18	12	03	12	57	52	0.9789611806	0.0165408367069	-0.124636120131	0.12353515625	0.11865234375	0.99169921875	12.375	5.375	-0.8125
18	12	03	12	57	52	0.979130838754	0.0140991911079	-0.124939585272	0.28857421875	0.13037109375	1.02978515625	-16.9375	-1.5	8.5625
18	12	03	12	57	52	0.979067636773	0.0119018882346	-0.127197615799	0.41064453125	0.0546875	1.0107421875	-8.625	-4.125	7.75
18	12	03	12	57	52	0.979134823763	0.011840927304	-0.125916665093	0.28173828125	-0.0419921875	0.98388671875	5.375	9.5625	-5.5625
18	12	03	12	57	52	0.979532687248	0.0143438547796	-0.122746774306	0.16943359375	0.04833984375	0.9130859375	11.9375	17.0625	-0.75
18	12	03	12	57	52	0.979935970707	0.0165408064816	-0.119691961293	0.11376953125	0.1298828125	0.9501953125	5.75	11.75	2.3125
18	12	03	12	57	52	0.980182965521	0.015625309121	-0.118593654774	0.23583984375	0.10546875	0.88037109375	-8.75	7.5	4.6875
18	12	03	12	57	52	0.98075081188	0.0138555161997	-0.117253068809	0.32666015625	0.07373046875	0.884765625	-10.625	14.9375	14.625
18	12	03	12	57	53	0.981331668717	0.0131837069563	-0.113465329776	0.1923828125	0.02783203125	0.8857421875	-5.125	20.5625	4.6875
18	12	03	12	57	53	0.981409599373	0.0136111910355	-0.112734842344	0.14892578125	0.1259765625	0.84814453125	-2.9375	1.8125	1.125
18	12	03	12	57	53	0.981476660164	0.0137943858953	-0.112796571392	0.22900390625	0.1044921875	0.876953125	-2.3125	2.125	3.125
18	12	03	12	57	53	0.981588793043	0.0138552826776	-0.110964334396	0.166015625	0.0576171875	0.8466796875	-2.0	9.125	-3.4375
18	12	03	12	57	53	0.981490026843	0.0155036359961	-0.11041762802	0.08984375	0.15869140625	0.8515625	1.125	-1.875	-4.0625
18	12	03	12	57	53	0.98140654644	0.0168460853795	-0.110537176168	0.12890625	0.14697265625	0.92626953125	1.9375	-4.6875	-1.125
18	12	03	12	57	53	0.981486869325	0.0153815106387	-0.112248405018	0.28125	0.0380859375	0.841796875	-4.75	-4.3125	9.5
18	12	03	12	57	53	0.981575703565	0.0156861681269	-0.111939425466	0.16015625	0.01708984375	0.92236328125	4.8125	-0.625	1.375
18	12	03	12	57	53	0.981361528892	0.0162970225286	-0.111271430972	0.05322265625	-0.00439453125	0.9033203125	6.0625	-6.1875	-11.0
18	12	03	12	57	53	0.981110888942	0.0155644691228	-0.112552474755	0.220703125	0.14013671875	0.91796875	-8.5625	-6.8125	-2.6875
18	12	03	12	57	53	0.981046545938	0.015198195106	-0.113162464765	0.19482421875	0.08056640625	0.9970703125	-2.5	-5.6875	0.5625
18	12	03	12	57	53	0.980886642058	0.0128180581725	-0.114324871224	0.19677734375	0.0244140625	0.99609375	-10.0625	-10.875	-1.0
18	12	03	12	57	53	0.980638140858	0.0124517727334	-0.11762042185	0.34033203125	0.08740234375	0.94384765625	-0.5	-10.4375	4.9375
18	12	03	12	57	53	0.980793573969	0.0147708037153	-0.117433993174	0.224609375	-0.05322265625	0.98876953125	21.5625	2.9375	2.4375
