18	11	21	14	43	37	-0.521816872662	0.081476669591	-0.242721134804	-0.35107421875	0.31396484375	0.87939453125	-7.875	1.0625	10.4375
18	11	21	14	43	37	-0.521406861822	0.0828220896047	-0.239555417611	-0.3544921875	0.2607421875	0.88818359375	-17.5	-1.125	2.25
18	11	21	14	43	37	-0.522358480826	0.0846490492937	-0.235699083181	-0.333984375	0.24755859375	0.91259765625	-19.875	-0.25	-7.5625
18	11	21	14	43	37	-0.523719433951	0.086299881087	-0.233021885424	-0.39404296875	0.23046875	0.8916015625	-12.4375	-2.125	-9.125
18	11	21	14	43	37	-0.52367117064	0.0851423406811	-0.23198999063	-0.36376953125	0.240234375	0.888671875	1.0625	-7.1875	3.4375
18	11	21	14	43	37	-0.522988976136	0.0825161740852	-0.235158889608	-0.3994140625	0.24365234375	0.8046875	24.3125	-4.9375	9.6875
18	11	21	14	43	37	-0.522144307893	0.0794660302602	-0.23864222605	-0.3447265625	0.2607421875	0.8349609375	27.1875	-1.375	9.4375
18	11	21	14	43	37	-0.521596716306	0.0784287129011	-0.240168860129	-0.2998046875	0.2685546875	0.84375	11.8125	4.3125	4.0
18	11	21	14	43	37	-0.522562654512	0.0798919078202	-0.239919854577	-0.33935546875	0.283203125	0.79248046875	-4.375	5.5625	-9.1875
18	11	21	14	43	37	-0.524076606788	0.0820261976853	-0.23655769511	-0.38671875	0.259765625	0.8330078125	-19.625	-3.5	-10.875
18	11	21	14	43	37	-0.52390253227	0.0839196157819	-0.23241156138	-0.3681640625	0.30859375	0.8779296875	-27.9375	-3.125	-1.125
18	11	21	14	43	37	-0.524028320589	0.0862394615645	-0.227347483601	-0.37841796875	0.20263671875	0.91748046875	-26.375	-4.25	-0.875
18	11	21	14	43	37	-0.523664667939	0.0862398806292	-0.225090360765	-0.359375	0.18408203125	0.931640625	-5.1875	-4.3125	5.5
18	11	21	14	43	37	-0.522693220883	0.0840435036379	-0.227472867145	-0.34033203125	0.2421875	0.8740234375	19.3125	-0.125	9.3125
18	11	21	14	43	37	-0.523465760517	0.082636427625	-0.231980104433	-0.40576171875	0.23291015625	0.7998046875	29.8125	2.875	-2.3125
18	11	21	14	43	37	-0.522743872811	0.0803798809681	-0.233266442718	-0.28466796875	0.24951171875	0.82470703125	14.0	-1.5625	7.0
18	11	21	14	43	37	-0.522433610411	0.0802570324404	-0.234667900938	-0.3857421875	0.267578125	0.7822265625	6.625	0.875	2.75
18	11	21	14	43	37	-0.521508928114	0.0819034501497	-0.233443142193	-0.376953125	0.32275390625	0.84228515625	-14.375	4.0	3.3125
18	11	21	14	43	37	-0.521755592688	0.084589221133	-0.22953828332	-0.37255859375	0.2880859375	0.87890625	-27.3125	0.8125	-4.875
18	11	21	14	43	37	-0.522385995158	0.0869117486978	-0.224237194323	-0.376953125	0.19091796875	0.91748046875	-26.8125	-5.4375	-4.0
18	11	21	14	43	37	-0.522210513317	0.0860585348033	-0.221799088989	-0.3486328125	0.2109375	0.9306640625	-5.3125	-8.875	4.5
18	11	21	14	43	37	-0.520493440911	0.0850806586104	-0.222650102303	-0.3642578125	0.28125	0.91259765625	4.9375	0.8125	12.5
18	11	21	14	43	37	-0.518953704998	0.0855056028111	-0.222338980043	-0.353515625	0.24951171875	0.91015625	-2.625	4.125	9.625
18	11	21	14	43	37	-0.518527423729	0.0862991733936	-0.221668032366	-0.3525390625	0.2490234375	0.88916015625	-4.5625	3.375	2.125
18	11	21	14	43	37	-0.518530574938	0.0867879563985	-0.220998023994	-0.34326171875	0.26123046875	0.86572265625	-4.3125	1.4375	-1.0
18	11	21	14	43	37	-0.519204414676	0.086422175994	-0.222036635781	-0.4013671875	0.25927734375	0.8408203125	7.0	-2.0625	-3.25
18	11	21	14	43	37	-0.518366248458	0.0859976503093	-0.221128095863	-0.3671875	0.23388671875	0.884765625	-2.125	-3.875	7.375
18	11	21	14	43	37	-0.517451919876	0.0852654319494	-0.220823430775	-0.35009765625	0.2744140625	0.9033203125	-0.375	-2.0	6.9375
18	11	21	14	43	37	-0.516696487445	0.0859940173411	-0.219715019466	-0.34375	0.28369140625	0.8935546875	-9.25	2.375	3.3125
18	11	21	14	43	37	-0.517493194197	0.0875203727419	-0.219045061207	-0.34814453125	0.263671875	0.87158203125	-6.625	5.4375	-7.625
18	11	21	14	43	37	-0.519307756105	0.0891654285661	-0.218305775483	-0.41064453125	0.21826171875	0.8720703125	-3.4375	1.0625	-12.4375
18	11	21	14	43	37	-0.519038137753	0.0887442911916	-0.217527272219	-0.404296875	0.28076171875	0.8955078125	-4.0	-6.0	2.75
18	11	21	14	43	37	-0.517864848342	0.0875212955241	-0.218131876013	-0.42041015625	0.26708984375	0.88232421875	4.8125	-6.3125	10.375
18	11	21	14	43	37	-0.51706604391	0.0859335445969	-0.218617867007	-0.33544921875	0.181640625	0.9111328125	11.9375	-2.5	9.375
18	11	21	14	43	38	-0.517370905968	0.0848349132118	-0.220387677416	-0.3193359375	0.20751953125	0.8681640625	16.3125	2.4375	-0.3125
18	11	21	14	43	38	-0.518409232513	0.0842857487756	-0.221791753114	-0.33740234375	0.294921875	0.84375	7.625	1.4375	-7.125
18	11	21	14	43	38	-0.518896543668	0.0841635301951	-0.221608251007	-0.38818359375	0.2783203125	0.84619140625	-0.6875	-4.0	-2.625
18	11	21	14	43	38	-0.518912210198	0.0837388323209	-0.221187702865	-0.388671875	0.2705078125	0.8837890625	-0.875	-4.8125	1.0
18	11	21	14	43	38	-0.518467773585	0.0849566969783	-0.219593531414	-0.39013671875	0.24755859375	0.91259765625	-9.9375	0.5	2.75
18	11	21	14	43	38	-0.517809509366	0.0853860801041	-0.217462904511	-0.3388671875	0.23876953125	0.9384765625	-10.125	-1.0625	4.3125
18	11	21	14	43	38	-0.518285750655	0.0850789374014	-0.21721372899	-0.3720703125	0.189453125	0.912109375	5.5625	-2.4375	-0.3125
18	11	21	14	43	38	-0.519004102242	0.083367780299	-0.220381445578	-0.3994140625	0.22607421875	0.86328125	24.25	-1.9375	-1.3125
18	11	21	14	43	38	-0.517487480784	0.0814162400478	-0.222338352694	-0.337890625	0.29638671875	0.8662109375	12.0625	-0.4375	11.5
18	11	21	14	43	38	-0.517001385288	0.0810503883441	-0.222461344514	-0.34619140625	0.2333984375	0.85986328125	3.5	-0.5625	4.375
18	11	21	14	43	38	-0.516335515602	0.0801357602819	-0.222951966725	-0.3154296875	0.2412109375	0.85546875	6.1875	-0.1875	5.875
18	11	21	14	43	38	-0.516450406106	0.0803177421928	-0.222887837757	-0.33154296875	0.2626953125	0.8681640625	0.25	2.0625	-1.3125
18	11	21	14	43	38	-0.516650185596	0.0803813696905	-0.222528833631	-0.36572265625	0.26953125	0.85888671875	-1.5	-1.9375	-0.75
18	11	21	14	43	38	-0.516030964989	0.0797086268806	-0.221548480534	-0.3310546875	0.26123046875	0.8466796875	-3.375	-5.0	5.3125
18	11	21	14	43	38	-0.51504720703	0.080012666005	-0.22172846346	-0.35107421875	0.29541015625	0.83544921875	-3.1875	2.3125	5.4375
18	11	21	14	43	38	-0.514866330601	0.0814777799137	-0.220691874283	-0.33056640625	0.224609375	0.86669921875	-6.625	5.1875	-0.1875
18	11	21	14	43	38	-0.514810064826	0.0828822842956	-0.218435710968	-0.3232421875	0.25146484375	0.88525390625	-13.9375	2.125	-1.25
18	11	21	14	43	38	-0.516049227882	0.083678709808	-0.218321477012	-0.3955078125	0.2900390625	0.83251953125	-3.5	-1.1875	-9.125
18	11	21	14	43	38	-0.515602038699	0.0835534080231	-0.216543091063	-0.32958984375	0.26806640625	0.88916015625	-9.375	-3.875	3.0
18	11	21	14	43	38	-0.515286940713	0.0838569532796	-0.216538915747	-0.345703125	0.23974609375	0.83447265625	-0.5	1.3125	2.25
18	11	21	14	43	38	-0.515539470933	0.0851399978633	-0.215382833304	-0.34814453125	0.2255859375	0.86572265625	-7.125	2.625	-2.5625
18	11	21	14	43	38	-0.515896486602	0.0863591066535	-0.215501064024	-0.38525390625	0.3291015625	0.82373046875	-7.375	2.9375	-5.625
18	11	21	14	43	38	-0.516520275662	0.0884975067601	-0.212332983461	-0.38134765625	0.2421875	0.85546875	-21.0625	-2.4375	-5.875
18	11	21	14	43	38	-0.517680273231	0.0892299645677	-0.210135956229	-0.40625	0.16650390625	0.8408203125	-7.125	-8.1875	-5.1875
18	11	21	14	43	38	-0.516580766746	0.0886194793614	-0.208304602659	-0.3427734375	0.19970703125	0.8828125	-5.9375	-6.75	9.5625
18	11	21	14	43	38	-0.515600224705	0.087947434162	-0.209828784628	-0.3681640625	0.27294921875	0.841796875	6.1875	0.5625	6.75
18	11	21	14	43	38	-0.514681307742	0.0886792292363	-0.208911907554	-0.3125	0.33203125	0.87158203125	-13.1875	4.0	2.3125
18	11	21	14	43	38	-0.515118725872	0.0920378007838	-0.204826829861	-0.3642578125	0.27197265625	0.8662109375	-31.8125	2.25	-8.0
18	11	21	14	43	38	-0.51518698431	0.0953349211577	-0.198054941842	-0.359375	0.224609375	0.92626953125	-42.6875	-4.5	-4.0
18	11	21	14	43	38	-0.514690416257	0.0976526344137	-0.191521229244	-0.4072265625	0.197265625	0.96435546875	-37.625	-10.1875	1.875
18	11	21	14	43	38	-0.513656558459	0.0965547380564	-0.190057809297	-0.35888671875	0.208984375	0.99853515625	-3.8125	-6.75	8.8125
18	11	21	14	43	38	-0.513965714136	0.0958230817236	-0.190364453437	-0.3564453125	0.10302734375	0.9228515625	11.625	-2.8125	1.75
18	11	21	14	43	38	-0.513574392503	0.0932551006232	-0.194688331798	-0.31982421875	0.2177734375	0.8603515625	28.125	2.375	5.4375
18	11	21	14	43	38	-0.513724639851	0.091856431386	-0.199642782102	-0.373046875	0.25	0.78955078125	26.1875	4.4375	0.125
18	11	21	14	43	38	-0.513954103517	0.0925251657679	-0.200613601503	-0.39208984375	0.32470703125	0.8349609375	-3.375	2.3125	-4.375
18	11	21	14	43	38	-0.513898459728	0.0948453926861	-0.194756530284	-0.35107421875	0.18798828125	0.89697265625	-33.9375	-6.75	-1.375
18	11	21	14	43	38	-0.513595331892	0.0964326351027	-0.189752571224	-0.3310546875	0.17041015625	0.95849609375	-26.1875	-4.625	1.375
18	11	21	14	43	38	-0.51238500689	0.0963735468588	-0.19030571191	-0.35546875	0.22607421875	0.94921875	1.3125	3.4375	7.375
18	11	21	14	43	38	-0.511995420551	0.0966132734214	-0.191395594093	-0.37890625	0.20458984375	0.92626953125	5.375	3.8125	2.8125
18	11	21	14	43	38	-0.511515765322	0.0950890779587	-0.193107729564	-0.34765625	0.21435546875	0.8779296875	12.625	-2.1875	5.25
18	11	21	14	43	38	-0.511204778273	0.0942335455652	-0.194387203773	-0.34912109375	0.2109375	0.8583984375	8.3125	-0.5625	3.4375
18	11	21	14	43	38	-0.510901598923	0.0950273312057	-0.196340991965	-0.373046875	0.1962890625	0.84326171875	8.5625	7.375	1.3125
18	11	21	14	43	38	-0.511628887918	0.0952094793215	-0.196461098677	-0.32470703125	0.154296875	0.87158203125	5.1875	2.0625	-3.5
18	11	21	14	43	38	-0.51266741439	0.0949655353323	-0.197987272891	-0.390625	0.22802734375	0.84375	8.5625	-0.625	-6.5
18	11	21	14	43	38	-0.513664862841	0.0951525096447	-0.198239481287	-0.39208984375	0.22802734375	0.826171875	1.0625	-3.125	-6.25
18	11	21	14	43	38	-0.51413561221	0.0955154597707	-0.195669369984	-0.3330078125	0.16796875	0.87841796875	-10.3125	-5.4375	-2.0
18	11	21	14	43	38	-0.51449039529	0.095330248807	-0.19438338185	-0.3056640625	0.1669921875	0.890625	-2.0625	-2.0625	-1.5
18	11	21	14	43	38	-0.514696098059	0.0958837388891	-0.19445295487	-0.37255859375	0.15625	0.84619140625	2.4375	0.25	-0.0625
18	11	21	14	43	38	-0.513842687539	0.0950294648412	-0.196589535166	-0.3740234375	0.2587890625	0.85888671875	9.25	1.1875	5.8125
18	11	21	14	43	38	-0.513526466189	0.0953325814342	-0.198111113531	-0.390625	0.2373046875	0.814453125	4.5	2.0625	1.5
18	11	21	14	43	39	-0.513902441497	0.0960667984462	-0.197992817128	-0.384765625	0.17919921875	0.82666015625	-0.125	-0.4375	-1.8125
18	11	21	14	43	39	-0.513219506309	0.0980176628769	-0.195547068405	-0.3505859375	0.18359375	0.86669921875	-16.8125	2.4375	2.625
18	11	21	14	43	39	-0.51329944088	0.0994860985296	-0.193418065178	-0.3779296875	0.20703125	0.8974609375	-14.1875	-0.75	-1.8125
18	11	21	14	43	39	-0.512435311441	0.0989959594041	-0.191827558821	-0.34619140625	0.2001953125	0.9248046875	-6.3125	-4.9375	6.75
18	11	21	14	43	39	-0.51267819744	0.0990567517196	-0.191949158446	-0.3896484375	0.16845703125	0.91064453125	3.9375	-1.4375	-0.125
18	11	21	14	43	39	-0.512668914409	0.0984446379692	-0.192617034985	-0.3603515625	0.16259765625	0.88623046875	8.125	-1.3125	2.375
18	11	21	14	43	39	-0.511933123574	0.0968571610768	-0.194080511799	-0.31591796875	0.228515625	0.86865234375	9.9375	-0.75	5.9375
18	11	21	14	43	39	-0.511404603037	0.0970441960651	-0.195492176098	-0.40185546875	0.2255859375	0.84619140625	4.9375	1.3125	3.6875
18	11	21	14	43	39	-0.51151281103	0.0967364044247	-0.194937587213	-0.35205078125	0.1884765625	0.85595703125	-0.125	-3.8125	0.5
18	11	21	14	43	39	-0.511390456621	0.0970415116395	-0.194327152868	-0.3623046875	0.2373046875	0.86376953125	-5.8125	-1.5625	0.375
18	11	21	14	43	39	-0.511877236187	0.0981398111111	-0.19249562453	-0.36767578125	0.12353515625	0.88671875	-6.0625	-1.5625	-2.0625
18	11	21	14	43	39	-0.512060532172	0.0976515913558	-0.193044989662	-0.37353515625	0.13671875	0.89599609375	9.875	-2.125	1.4375
18	11	21	14	43	39	-0.511569781743	0.0972849238963	-0.194020560268	-0.3662109375	0.2080078125	0.890625	6.0	0.875	4.0625
18	11	21	14	43	39	-0.510908676626	0.0970427423049	-0.193719285582	-0.34326171875	0.1630859375	0.8798828125	1.375	-1.25	5.9375
18	11	21	14	43	39	-0.510221744161	0.0966125623213	-0.194018531661	-0.33447265625	0.1806640625	0.86669921875	4.1875	-0.125	5.9375
18	11	21	14	43	39	-0.510545713533	0.0965550889193	-0.195673587279	-0.34033203125	0.19482421875	0.8544921875	9.9375	4.6875	-1.9375
18	11	21	14	43	39	-0.51108210014	0.096735745011	-0.197377539032	-0.3984375	0.216796875	0.84033203125	8.375	1.875	-2.9375
18	11	21	14	43	39	-0.510551765268	0.0968003705578	-0.196530386631	-0.3740234375	0.19140625	0.83837890625	-3.9375	-4.375	4.4375
18	11	21	14	43	39	-0.50955872642	0.0960648503275	-0.197256414396	-0.38720703125	0.171875	0.81689453125	6.875	-4.375	9.375
18	11	21	14	43	39	-0.506814092524	0.0946004146691	-0.197806415447	-0.31298828125	0.220703125	0.876953125	3.75	-1.375	19.5625
18	11	21	14	43	39	-0.5051710034	0.0949064770192	-0.199761350022	-0.35498046875	0.1943359375	0.8349609375	8.625	7.5	10.9375
18	11	21	14	43	39	-0.504607286626	0.095208922005	-0.200121830291	-0.32470703125	0.1826171875	0.828125	2.4375	3.5	4.0625
18	11	21	14	43	39	-0.504499970948	0.0957610034378	-0.199517348782	-0.36474609375	0.14794921875	0.828125	-0.3125	-1.0625	1.9375
18	11	21	14	43	39	-0.503814066605	0.0952089574687	-0.199572622386	-0.3212890625	0.21826171875	0.8857421875	2.0	0.0	5.1875
18	11	21	14	43	39	-0.503526730556	0.0951512936894	-0.199945887188	-0.34423828125	0.1650390625	0.86376953125	5.6875	1.0	3.5625
18	11	21	14	43	39	-0.502614705194	0.0954571219094	-0.199520032942	-0.3330078125	0.21337890625	0.8486328125	-3.8125	1.1875	5.625
18	11	21	14	43	39	-0.503397087714	0.0968587752428	-0.199759780321	-0.3759765625	0.203125	0.80517578125	-1.375	3.6875	-6.0625
18	11	21	14	43	39	-0.505044535884	0.0978962459889	-0.199942706895	-0.3662109375	0.1767578125	0.83935546875	2.9375	2.5625	-10.8125
18	11	21	14	43	39	-0.504621741178	0.0979581391618	-0.197625205362	-0.3037109375	0.18701171875	0.91552734375	-9.4375	-2.0	2.75
18	11	21	14	43	39	-0.504374977467	0.0966149067437	-0.198417600647	-0.36328125	0.16845703125	0.87109375	11.0	-5.0625	5.4375
18	11	21	14	43	39	-0.502921082464	0.0947249417456	-0.200619125978	-0.35302734375	0.20068359375	0.83251953125	15.5	-2.5	12.5625
18	11	21	14	43	39	-0.502782820057	0.0940505372309	-0.203908400317	-0.357421875	0.1865234375	0.77685546875	20.125	4.125	2.9375
18	11	21	14	43	39	-0.502663172079	0.0941730542154	-0.205374159063	-0.29736328125	0.2109375	0.78369140625	7.0625	6.125	-0.1875
18	11	21	14	43	39	-0.503216671281	0.0958217312203	-0.204216250104	-0.34326171875	0.2060546875	0.7666015625	-9.5625	2.1875	-5.125
18	11	21	14	43	39	-0.502307530414	0.0982642920981	-0.200984045888	-0.36279296875	0.2685546875	0.8857421875	-26.5625	2.625	1.8125
18	11	21	14	43	39	-0.5027275603	0.101070394544	-0.195732340158	-0.359375	0.14599609375	0.9521484375	-27.625	-1.0625	-4.4375
18	11	21	14	43	39	-0.503499979806	0.101798541372	-0.192977810442	-0.31689453125	0.14892578125	0.984375	-9.4375	-0.125	-4.8125
18	11	21	14	43	39	-0.504324171924	0.0997296014673	-0.19536992307	-0.31787109375	0.130859375	0.884765625	24.4375	-1.125	-1.0
18	11	21	14	43	39	-0.504378558493	0.0960052604683	-0.201226537676	-0.35693359375	0.24462890625	0.8203125	38.1875	-2.0625	4.125
18	11	21	14	43	39	-0.503515483393	0.0936843960011	-0.204762963247	-0.375	0.25048828125	0.77197265625	20.8125	-3.75	8.5625
18	11	21	14	43	39	-0.503274819999	0.0930136824737	-0.204642307962	-0.30810546875	0.21923828125	0.8037109375	1.1875	-2.5	2.5625
18	11	21	14	43	39	-0.502775981568	0.0945375085517	-0.200976123732	-0.27783203125	0.1904296875	0.828125	-21.75	0.1875	1.125
18	11	21	14	43	39	-0.504253700793	0.0981408800381	-0.19719725336	-0.35400390625	0.2177734375	0.8505859375	-27.1875	4.0	-14.0625
18	11	21	14	43	39	-0.504979885149	0.101069215592	-0.192556385986	-0.390625	0.19873046875	0.95654296875	-28.4375	-0.875	-7.625
18	11	21	14	43	39	-0.503998516173	0.102655062267	-0.186817565755	-0.37353515625	0.12841796875	1.0390625	-27.5	-6.5	6.5625
18	11	21	14	43	39	-0.501980834624	0.101128540179	-0.186266930975	-0.33447265625	0.14111328125	1.01318359375	4.8125	-3.4375	16.6875
18	11	21	14	43	39	-0.500402993205	0.0989942255126	-0.190176329653	-0.326171875	0.171875	0.91943359375	26.9375	4.5	13.8125
18	11	21	14	43	39	-0.500277688194	0.0978950118169	-0.19402010135	-0.3369140625	0.171875	0.859375	25.125	6.5625	3.0
18	11	21	14	43	39	-0.501756206426	0.0972263273125	-0.19622262543	-0.3427734375	0.197265625	0.82666015625	15.5	1.25	-8.25
18	11	21	14	43	39	-0.502420344883	0.0966756348755	-0.195365345477	-0.3291015625	0.1982421875	0.8525390625	-0.9375	-5.3125	-3.1875
18	11	21	14	43	40	-0.502298103809	0.0964314707191	-0.194754951307	-0.3505859375	0.23193359375	0.8876953125	-3.25	-2.6875	1.125
18	11	21	14	43	40	-0.502616014882	0.0978377015004	-0.192074389658	-0.3369140625	0.15576171875	0.91552734375	-12.5	0.0	-2.5
18	11	21	14	43	40	-0.503160268767	0.0993625567144	-0.189081818612	-0.333984375	0.1826171875	0.94189453125	-16.1875	0.25	-5.1875
18	11	21	14	43	40	-0.503898060927	0.100157063709	-0.186642474602	-0.33154296875	0.19482421875	0.95068359375	-11.875	-1.6875	-5.6875
18	11	21	14	43	40	-0.504971045573	0.100335073595	-0.18712125039	-0.40576171875	0.17333984375	0.900390625	5.75	-1.6875	-5.625
18	11	21	14	43	40	-0.504176051085	0.100456818797	-0.1867544748	-0.36865234375	0.162109375	0.927734375	-0.125	-0.25	6.4375
18	11	21	14	43	40	-0.503282079884	0.100155941437	-0.187250718055	-0.35302734375	0.1513671875	0.90625	6.1875	0.8125	7.4375
18	11	21	14	43	40	-0.502239750269	0.0993615643989	-0.188591667072	-0.31884765625	0.201171875	0.87353515625	8.125	2.375	7.9375
18	11	21	14	43	40	-0.502887674455	0.0997841441425	-0.189254208554	-0.3515625	0.17138671875	0.86669921875	5.125	2.875	-4.0
18	11	21	14	43	40	-0.503274715954	0.0999713782115	-0.18932308621	-0.3486328125	0.1943359375	0.86376953125	0.75	0.25	-2.5
18	11	21	14	43	40	-0.503210702065	0.100214914832	-0.186941707753	-0.33154296875	0.18408203125	0.87548828125	-11.375	-5.1875	0.6875
18	11	21	14	43	40	-0.502178398426	0.100154928515	-0.185600936997	-0.3310546875	0.22119140625	0.931640625	-8.25	-1.625	6.0
18	11	21	14	43	40	-0.502053289969	0.099971224042	-0.185233617196	-0.32080078125	0.1923828125	0.9072265625	-0.3125	0.1875	1.125
18	11	21	14	43	40	-0.502982487567	0.10143876888	-0.184017983256	-0.36328125	0.1953125	0.92431640625	-8.25	2.625	-7.8125
18	11	21	14	43	40	-0.503701975024	0.101863394683	-0.182182284678	-0.33544921875	0.18212890625	0.921875	-8.3125	-2.375	-4.9375
18	11	21	14	43	40	-0.503404214353	0.101742825573	-0.182734265006	-0.3828125	0.20263671875	0.88037109375	2.375	-1.625	2.4375
18	11	21	14	43	40	-0.501610023741	0.101676882778	-0.182847503483	-0.36328125	0.2109375	0.92333984375	-1.4375	1.0625	11.875
18	11	21	14	43	40	-0.500641052872	0.101800472533	-0.181446525684	-0.31103515625	0.12939453125	0.9345703125	-3.6875	0.1875	7.1875
18	11	21	14	43	40	-0.500476091829	0.101804161118	-0.181758268471	-0.32421875	0.18896484375	0.87451171875	1.6875	2.3125	0.875
18	11	21	14	43	40	-0.501557045046	0.102410893355	-0.182240123693	-0.3486328125	0.21435546875	0.8818359375	0.875	3.0	-8.0625
18	11	21	14	43	40	-0.503143899281	0.102777089567	-0.181873947096	-0.3798828125	0.14990234375	0.87939453125	1.875	-2.625	-9.3125
18	11	21	14	43	40	-0.503086410414	0.102777813313	-0.180593556765	-0.35498046875	0.16162109375	0.9208984375	-3.875	-3.8125	1.125
18	11	21	14	43	40	-0.50267524481	0.101621452478	-0.181697936353	-0.35546875	0.21826171875	0.8955078125	6.5625	-2.5	3.875
18	11	21	14	43	40	-0.501681668198	0.101312842969	-0.18108144885	-0.30517578125	0.203125	0.9248046875	-3.25	0.625	6.0625
18	11	21	14	43	40	-0.5028618654	0.101805266596	-0.181333001833	-0.3427734375	0.169921875	0.873046875	2.6875	1.75	-7.6875
18	11	21	14	43	40	-0.503508658375	0.102776797661	-0.179737333202	-0.34326171875	0.201171875	0.90087890625	-10.4375	0.0	-5.6875
18	11	21	14	43	40	-0.502917077985	0.103513029643	-0.178828524089	-0.39404296875	0.2197265625	0.896484375	-9.0	-1.6875	2.75
18	11	21	14	43	40	-0.501273009254	0.104124163374	-0.177609211851	-0.36767578125	0.20849609375	0.9658203125	-10.3125	0.5	9.6875
18	11	21	14	43	40	-0.500760538016	0.103508820533	-0.17729547385	-0.328125	0.1220703125	0.93408203125	4.4375	-1.5	5.6875
18	11	21	14	43	40	-0.500898534972	0.103023848792	-0.178216610469	-0.3203125	0.1767578125	0.90966796875	7.4375	2.0625	-0.0625
18	11	21	14	43	40	-0.502293048313	0.102228536564	-0.181692151255	-0.39697265625	0.18798828125	0.8212890625	20.875	0.625	-7.3125
18	11	21	14	43	40	-0.502241940114	0.10192539069	-0.182489172553	-0.376953125	0.23486328125	0.876953125	2.0625	-1.25	0.125
18	11	21	14	43	40	-0.501879322192	0.102292319591	-0.179866029734	-0.3369140625	0.12548828125	0.93505859375	-9.5625	-4.3125	3.625
18	11	21	14	43	40	-0.502061057739	0.101559640175	-0.179499339996	-0.3203125	0.11767578125	0.91845703125	5.4375	-2.9375	1.125
18	11	21	14	43	40	-0.502236168564	0.10131389474	-0.180350939131	-0.3486328125	0.20361328125	0.9169921875	5.0625	1.5	-0.8125
18	11	21	14	43	40	-0.503018284708	0.101128524358	-0.181201320953	-0.35693359375	0.19384765625	0.90087890625	6.25	0.4375	-4.6875
18	11	21	14	43	40	-0.503702036003	0.100581722444	-0.181205785156	-0.34814453125	0.13037109375	0.88232421875	6.25	-3.6875	-2.0
18	11	21	14	43	40	-0.502471113217	0.0991149141095	-0.182117551541	-0.34375	0.17724609375	0.8984375	8.9375	-3.5	10.6875
18	11	21	14	43	40	-0.501080494705	0.0985682093726	-0.184441565773	-0.375	0.208984375	0.86669921875	10.9375	2.5625	10.25
18	11	21	14	43	40	-0.500836005651	0.0981409087358	-0.184502467107	-0.30078125	0.1572265625	0.89013671875	4.0625	0.8125	2.625
18	11	21	14	43	40	-0.501852266368	0.0981977741197	-0.184372576517	-0.31787109375	0.134765625	0.87109375	4.75	0.1875	-5.375
18	11	21	14	43	40	-0.502355191783	0.0982616764392	-0.185354479097	-0.35498046875	0.20849609375	0.876953125	5.0	1.8125	-3.3125
18	11	21	14	43	40	-0.50187724233	0.0973481942741	-0.184564852342	-0.27099609375	0.18994140625	0.92626953125	-0.5	-1.25	3.625
18	11	21	14	43	40	-0.501125191479	0.096917160403	-0.187242977403	-0.4619140625	0.16015625	0.89501953125	17.0625	-1.0	8.3125
18	11	21	14	43	40	-0.500097964474	0.0953933510463	-0.188772639019	-0.3369140625	0.19384765625	0.841796875	11.375	-2.9375	9.3125
18	11	21	14	43	40	-0.499491547686	0.0955771949751	-0.190788193801	-0.36279296875	0.23779296875	0.85888671875	7.25	5.1875	3.1875
18	11	21	14	43	40	-0.500038400929	0.0963091171324	-0.191153456818	-0.3359375	0.177734375	0.828125	2.1875	3.4375	-3.9375
18	11	21	14	43	40	-0.500089952633	0.096429353815	-0.191027770532	-0.33935546875	0.1669921875	0.849609375	-0.875	-0.5625	-0.0625
18	11	21	14	43	40	-0.498455587802	0.0966150600575	-0.190544673089	-0.3505859375	0.25048828125	0.88623046875	-7.375	0.3125	9.4375
18	11	21	14	43	40	-0.497717820279	0.0971633071593	-0.189810229438	-0.3408203125	0.22216796875	0.8818359375	-6.5	1.0625	3.875
18	11	21	14	43	41	-0.49718211739	0.0982645726734	-0.187557162624	-0.30029296875	0.15087890625	0.89990234375	-10.8125	2.0625	3.125
18	11	21	14	43	41	-0.497723463846	0.0981409356057	-0.18761519655	-0.30224609375	0.17724609375	0.90087890625	3.625	2.375	-3.0625
18	11	21	14	43	41	-0.497360842006	0.0982637078942	-0.189569612869	-0.40234375	0.26220703125	0.83154296875	5.125	1.5625	1.75
18	11	21	14	43	41	-0.496694415175	0.0984477871316	-0.188472886957	-0.3896484375	0.13330078125	0.84912109375	-2.1875	-5.625	6.625
18	11	21	14	43	41	-0.496129739536	0.0963696467865	-0.190053882263	-0.29931640625	0.12109375	0.86767578125	19.0	-2.9375	8.0625
18	11	21	14	43	41	-0.496117006102	0.0947803801791	-0.193649804448	-0.28662109375	0.23291015625	0.83154296875	21.0625	5.3125	1.0625
18	11	21	14	43	41	-0.49655815708	0.0956985238816	-0.194875884409	-0.34912109375	0.2744140625	0.81591796875	0.0	5.875	-5.6875
18	11	21	14	43	41	-0.49802956438	0.097164591482	-0.192437158884	-0.33544921875	0.18505859375	0.85400390625	-13.125	-1.375	-10.8125
18	11	21	14	43	41	-0.497897347733	0.0980780874977	-0.188893391914	-0.32373046875	0.20263671875	0.94580078125	-18.6875	-3.375	-0.0625
18	11	21	14	43	41	-0.4966283307	0.0987519526942	-0.186884103306	-0.3564453125	0.2060546875	0.94921875	-12.375	-0.8125	8.0
18	11	21	14	43	41	-0.496333694367	0.0984488746942	-0.186094618067	-0.31201171875	0.16064453125	0.939453125	0.3125	-0.625	2.875
18	11	21	14	43	41	-0.497894920069	0.0982607037646	-0.187732872534	-0.35205078125	0.13818359375	0.88720703125	15.25	2.125	-7.9375
18	11	21	14	43	41	-0.498517802661	0.0978969827949	-0.189446530296	-0.345703125	0.2138671875	0.888671875	10.6875	3.125	-3.6875
18	11	21	14	43	41	-0.498888408006	0.0980199147612	-0.18999750601	-0.3916015625	0.25	0.86572265625	0.1875	-1.5625	-2.75
18	11	21	14	43	41	-0.499117226871	0.098749287488	-0.188587947057	-0.3681640625	0.2509765625	0.8896484375	-11.375	-2.3125	-3.3125
18	11	21	14	43	41	-0.499843088024	0.0980156287382	-0.187364869381	-0.28515625	0.171875	0.91552734375	-0.25	-3.4375	-3.375
18	11	21	14	43	41	-0.499373897418	0.0982024689496	-0.187005820299	-0.34228515625	0.24072265625	0.923828125	-4.3125	1.125	2.0
18	11	21	14	43	41	-0.499243049492	0.0990551918491	-0.18669737022	-0.41845703125	0.2431640625	0.8837890625	-6.3125	-1.25	-0.25
18	11	21	14	43	41	-0.498446956906	0.0989325966873	-0.18449922257	-0.33251953125	0.1611328125	0.9140625	-8.5	-5.5625	6.375
18	11	21	14	43	41	-0.497218191589	0.0989920101581	-0.183946928863	-0.33642578125	0.15771484375	0.900390625	-1.25	-0.0625	9.1875
18	11	21	14	43	41	-0.495573747265	0.100152280697	-0.184375405233	-0.37744140625	0.201171875	0.8837890625	-2.75	5.9375	9.625
18	11	21	14	43	41	-0.495346003082	0.101315224879	-0.184503569162	-0.37060546875	0.16845703125	0.8779296875	-0.875	4.25	1.125
18	11	21	14	43	41	-0.496729832993	0.101555282234	-0.184984411328	-0.3427734375	0.1337890625	0.90478515625	8.5625	2.375	-7.75
18	11	21	14	43	41	-0.49691931204	0.10082420824	-0.185658136481	-0.3603515625	0.18701171875	0.90673828125	7.125	-2.1875	0.5
18	11	21	14	43	41	-0.496131665206	0.100092991873	-0.18645371352	-0.345703125	0.23193359375	0.89599609375	3.4375	-0.625	5.3125
18	11	21	14	43	41	-0.497603573189	0.099056862417	-0.187982215801	-0.353515625	0.1416015625	0.87158203125	16.75	-2.375	-6.25
18	11	21	14	43	41	-0.498756614766	0.0976518090584	-0.188712121005	-0.28564453125	0.1875	0.89501953125	10.4375	-1.75	-5.75
18	11	21	14	43	41	-0.500767041278	0.0980172904684	-0.189199004017	-0.36962890625	0.201171875	0.87060546875	4.4375	-0.3125	-13.0
18	11	21	14	43	41	-0.502587732022	0.0986255950148	-0.187913494462	-0.3662109375	0.18896484375	0.86328125	-4.875	-4.0	-11.875
18	11	21	14	43	41	-0.503035441568	0.098873746098	-0.185601890052	-0.35595703125	0.16455078125	0.91015625	-8.8125	-6.3125	-2.0
18	11	21	14	43	41	-0.497667499296	0.0897803398901	-0.190790851459	-0.15283203125	0.24462890625	0.9697265625	44.6875	-11.5	43.875
18	11	21	14	43	41	-0.498388143525	0.0881303550391	-0.194570340627	-0.39697265625	-0.0224609375	0.80908203125	39.4375	-3.1875	4.3125
18	11	21	14	43	41	-0.496133341407	0.0771451031539	-0.204458936365	-0.12255859375	0.4765625	0.9326171875	64.8125	-8.3125	19.625
18	11	21	14	43	41	-0.496077959721	0.0748877530239	-0.210808719596	-0.3486328125	0.3291015625	0.78662109375	33.25	4.3125	0.75
18	11	21	14	43	41	-0.495111460566	0.07543858053	-0.210629887871	-0.40966796875	0.27294921875	0.86376953125	-3.9375	-2.1875	7.125
18	11	21	14	43	41	-0.493748265556	0.0745810111878	-0.209156403716	-0.30517578125	0.21630859375	0.8603515625	-3.5625	-6.6875	11.25
18	11	21	14	43	41	-0.493821153683	0.0740335013493	-0.210076926335	-0.2958984375	0.19482421875	0.8671875	10.75	1.625	1.5625
18	11	21	14	43	41	-0.493865442538	0.0731765528427	-0.212327962752	-0.29345703125	0.1845703125	0.86669921875	19.5625	3.9375	1.5625
18	11	21	14	43	41	-0.494035535695	0.0717099140756	-0.216106217653	-0.31640625	0.28564453125	0.81982421875	22.375	3.0625	-0.1875
18	11	21	14	43	41	-0.493985628373	0.0704298758515	-0.218918513587	-0.3388671875	0.24658203125	0.78759765625	18.875	-0.4375	2.4375
18	11	21	14	43	41	-0.493074580013	0.0704915385462	-0.219286664932	-0.322265625	0.2724609375	0.787109375	0.0	0.625	6.0625
18	11	21	14	43	41	-0.492700917153	0.0718941756975	-0.218550970435	-0.3115234375	0.291015625	0.80078125	-9.875	4.1875	0.0625
18	11	21	14	43	41	-0.493095220483	0.0737903356312	-0.216366203319	-0.3154296875	0.25	0.8251953125	-14.8125	2.1875	-4.25
18	11	21	14	43	41	-0.494737520704	0.0759867028468	-0.215204107822	-0.35986328125	0.2275390625	0.8232421875	-7.9375	2.625	-11.9375
18	11	21	14	43	41	-0.495094788111	0.076961850075	-0.213613382444	-0.34326171875	0.25244140625	0.845703125	-9.6875	-1.8125	-2.6875
18	11	21	14	43	41	-0.494232868485	0.0768996560004	-0.211596116947	-0.34912109375	0.21484375	0.8671875	-7.875	-6.8125	8.25
18	11	21	14	43	41	-0.492906429518	0.0759256560576	-0.211053793125	-0.2998046875	0.21435546875	0.87060546875	2.0	-3.6875	10.8125
18	11	21	14	43	41	-0.492842397131	0.0751927966893	-0.212212138059	-0.27783203125	0.22265625	0.86328125	10.9375	3.0625	1.375
18	11	21	14	43	41	-0.494962524932	0.0767161398076	-0.212876607517	-0.35107421875	0.3017578125	0.83447265625	-0.75	5.0625	-16.375
18	11	21	14	43	41	-0.497346291504	0.0795851716924	-0.21031480188	-0.4150390625	0.2734375	0.841796875	-19.625	-2.0625	-17.5625
18	11	21	14	43	42	-0.498497814249	0.080499340964	-0.206283375632	-0.390625	0.22021484375	0.935546875	-18.25	-11.0	-6.0625
18	11	21	14	43	42	-0.496514790517	0.0776967828308	-0.204221080402	-0.3134765625	0.28125	1.00830078125	-4.25	-14.0625	16.6875
18	11	21	14	43	42	-0.494404707303	0.0759214240075	-0.203718419081	-0.359375	0.25244140625	0.96044921875	2.0625	-8.875	17.3125
18	11	21	14	43	42	-0.493212975813	0.0678083920465	-0.206720993575	-0.1728515625	0.19384765625	0.90380859375	41.4375	-20.125	17.5
18	11	21	14	43	42	-0.492788180773	0.0668932184949	-0.213374718849	-0.2919921875	0.396484375	0.8603515625	28.8125	16.3125	-1.125
18	11	21	14	43	42	-0.491686607827	0.0683576217436	-0.212824131268	-0.380859375	0.36669921875	0.91748046875	-12.4375	3.5625	4.5
18	11	21	14	43	42	-0.490637624006	0.0708583507241	-0.208913121902	-0.45068359375	0.28759765625	0.958984375	-27.5625	-5.0	6.875
18	11	21	14	43	42	-0.489987859604	0.0702511243653	-0.206786107167	-0.33447265625	0.21484375	0.962890625	-4.625	-7.9375	7.25
18	11	21	14	43	42	-0.488509761173	0.0690895864128	-0.20678049361	-0.26416015625	0.17041015625	0.97900390625	9.9375	0.8125	12.5
18	11	21	14	43	42	-0.488743261834	0.0658533940458	-0.212512991722	-0.2421875	0.27392578125	0.9287109375	40.3125	6.0625	0.375
18	11	21	14	43	42	-0.489485534825	0.0623758374802	-0.220817788653	-0.32421875	0.34130859375	0.75634765625	47.9375	2.9375	-3.5
18	11	21	14	43	42	-0.490639664522	0.0618868789433	-0.220754281201	-0.3232421875	0.34228515625	0.80859375	-1.5	-5.5625	-7.1875
18	11	21	14	43	42	-0.491734862302	0.0618254208157	-0.221607209261	-0.357421875	0.3232421875	0.75634765625	1.75	-4.5625	-7.0625
18	11	21	14	43	42	-0.491551873401	0.0634732987753	-0.22038661719	-0.31884765625	0.35693359375	0.8076171875	-15.8125	3.0	-2.0
18	11	21	14	43	42	-0.492357695795	0.0688458511041	-0.215204318256	-0.39990234375	0.33740234375	0.912109375	-43.0	6.0	-10.5625
18	11	21	14	43	42	-0.492907068489	0.0720196063419	-0.207025851451	-0.298828125	0.2265625	1.03076171875	-44.1875	-4.5625	-5.375
18	11	21	14	43	42	-0.493387454249	0.0732391075086	-0.205252598793	-0.4365234375	0.20703125	0.95458984375	-6.75	-5.625	-0.625
18	11	21	14	43	42	-0.491619010795	0.0726290034569	-0.20519219296	-0.37841796875	0.21826171875	0.99267578125	4.6875	-2.9375	14.6875
18	11	21	14	43	42	-0.4897844881	0.0696378941959	-0.208852650253	-0.29296875	0.220703125	0.91455078125	28.75	-0.0625	16.0625
18	11	21	14	43	42	-0.490151977509	0.0670747133959	-0.214651289366	-0.37744140625	0.21875	0.7861328125	39.625	-1.875	2.0625
18	11	21	14	43	42	-0.491132365839	0.0648780545404	-0.219230453348	-0.31689453125	0.2587890625	0.7783203125	31.0625	-0.5625	-3.75
18	11	21	14	43	42	-0.491500884312	0.0634135624985	-0.221611785786	-0.29248046875	0.2578125	0.82568359375	18.3125	-0.25	-0.6875
18	11	21	14	43	42	-0.490892632617	0.0633527977939	-0.220880322944	-0.2900390625	0.3408203125	0.8662109375	-6.9375	-0.125	2.75
18	11	21	14	43	42	-0.491130458617	0.0656101954782	-0.216910357888	-0.3388671875	0.27294921875	0.92724609375	-23.75	-1.3125	-2.5625
18	11	21	14	43	42	-0.492295000778	0.0675639184057	-0.21337259146	-0.31787109375	0.2138671875	0.95166015625	-16.1875	-0.375	-7.5
18	11	21	14	43	42	-0.493749556652	0.0672573561718	-0.213063003989	-0.36669921875	0.18408203125	0.92138671875	7.875	-6.0	-5.4375
18	11	21	14	43	42	-0.493086655407	0.065366481983	-0.216545544422	-0.4150390625	0.251953125	0.84814453125	24.1875	-5.375	8.8125
18	11	21	14	43	42	-0.492549570525	0.062743613197	-0.220090923335	-0.3193359375	0.23828125	0.841796875	28.0	-2.6875	7.25
18	11	21	14	43	42	-0.492150992754	0.0603592921421	-0.223921378028	-0.259765625	0.2431640625	0.79541015625	28.1875	1.8125	4.875
18	11	21	14	43	42	-0.492105813862	0.061276725427	-0.224355819392	-0.27099609375	0.2666015625	0.80810546875	0.875	6.8125	-1.5
18	11	21	14	43	42	-0.493948816842	0.0647571598504	-0.2228964635	-0.36572265625	0.27978515625	0.83447265625	-14.5	6.9375	-14.9375
18	11	21	14	43	42	-0.495832275388	0.0678687211019	-0.218254088723	-0.3955078125	0.259765625	0.8896484375	-27.9375	-4.75	-12.6875
18	11	21	14	43	42	-0.49593407436	0.069757894043	-0.211836964325	-0.369140625	0.2177734375	0.9892578125	-31.875	-10.3125	0.9375
18	11	21	14	43	42	-0.49553158653	0.0687848377903	-0.211237199283	-0.33056640625	0.20068359375	0.9697265625	6.125	-4.9375	6.0625
18	11	21	14	43	42	-0.49502920853	0.0673791451383	-0.213916579447	-0.28466796875	0.24462890625	0.92236328125	20.3125	4.5625	4.625
18	11	21	14	43	42	-0.498076706593	0.0693315940069	-0.213182445305	-0.412109375	-0.11669921875	0.880859375	19.375	-1.375	-11.3125
18	11	21	14	43	42	-0.498872431115	0.0693929476605	-0.216296047941	-0.3798828125	0.3818359375	0.83935546875	10.0	4.3125	-7.5625
18	11	21	14	43	42	-0.499054814931	0.0715899838467	-0.213732415542	-0.37841796875	0.3173828125	0.8740234375	-21.6875	-0.75	-3.125
18	11	21	14	43	42	-0.497159104224	0.0733593473211	-0.209641728825	-0.318359375	0.32470703125	0.9453125	-30.0	0.375	9.5
18	11	21	14	43	42	-0.495882393564	0.0746417436712	-0.206287075722	-0.32177734375	0.25341796875	0.92138671875	-20.4375	-1.6875	7.5625
18	11	21	14	43	42	-0.495895532475	0.0749488878621	-0.205804275139	-0.36279296875	0.22607421875	0.92626953125	-0.1875	-1.4375	1.375
18	11	21	14	43	42	-0.495879403143	0.0740920117435	-0.207750583175	-0.32421875	0.2822265625	0.87841796875	11.3125	1.25	0.1875
18	11	21	14	43	42	-0.494975389405	0.0734833993643	-0.207328162492	-0.29296875	0.28173828125	0.89892578125	-2.1875	-0.9375	6.1875
18	11	21	14	43	42	-0.494602361526	0.0733603206509	-0.207813553924	-0.326171875	0.26220703125	0.8564453125	2.4375	0.25	2.4375
18	11	21	14	43	42	-0.49419045686	0.0726912231839	-0.208674468569	-0.26806640625	0.26806640625	0.89794921875	6.375	3.4375	2.4375
18	11	21	14	43	42	-0.494608368584	0.0740936030924	-0.208975697684	-0.33984375	0.31884765625	0.8583984375	-5.4375	5.75	-5.4375
18	11	21	14	43	42	-0.492906251415	0.0740335912539	-0.205072437439	-0.2421875	0.22705078125	0.947265625	-18.125	-4.0625	11.3125
18	11	21	14	43	42	-0.493924387551	0.0742137718105	-0.204698183102	-0.37451171875	0.1787109375	0.8818359375	4.125	-4.4375	-3.6875
18	11	21	14	43	42	-0.492241054467	0.0718983214089	-0.205380179576	-0.22509765625	0.26318359375	0.94287109375	9.3125	-0.6875	12.25
18	11	21	14	43	42	-0.491547046079	0.0693927230435	-0.209032608992	-0.2734375	0.25048828125	0.8330078125	25.625	0.625	6.875
18	11	21	14	43	43	-0.492037007393	0.0686605846338	-0.211779758826	-0.2919921875	0.279296875	0.7822265625	14.75	3.4375	-3.625
18	11	21	14	43	43	-0.493707067724	0.0687857417883	-0.214230659873	-0.30322265625	0.26171875	0.7744140625	13.25	4.625	-11.625
18	11	21	14	43	43	-0.494368271025	0.0702491209814	-0.213493853339	-0.31103515625	0.3115234375	0.81201171875	-10.3125	3.625	-7.0
18	11	21	14	43	43	-0.495231731674	0.0718372871802	-0.212582218563	-0.38623046875	0.2890625	0.8232421875	-9.75	-1.375	-6.75
18	11	21	14	43	43	-0.49576631343	0.0713468940538	-0.211355255867	-0.31103515625	0.220703125	0.87158203125	-1.125	-5.875	-1.5
18	11	21	14	43	43	-0.49655364863	0.0700643545511	-0.212878457033	-0.29638671875	0.23779296875	0.83642578125	14.25	-1.6875	-3.0625
18	11	21	14	43	43	-0.497719571359	0.0694549199517	-0.216054847653	-0.3369140625	0.24853515625	0.7880859375	19.5	2.25	-6.5625
18	11	21	14	43	43	-0.499178482623	0.069271008409	-0.218676672361	-0.34619140625	0.22802734375	0.7783203125	17.5625	1.6875	-8.375
18	11	21	14	43	43	-0.499298230602	0.0689655299572	-0.218980815475	-0.31982421875	0.28271484375	0.8125	1.5625	-1.5625	-0.6875
18	11	21	14	43	43	-0.499186053244	0.0692110263331	-0.218863086799	-0.3583984375	0.30517578125	0.81640625	-3.625	-2.5	0.625
18	11	21	14	43	43	-0.499192671195	0.0700053788801	-0.216912917646	-0.32080078125	0.2265625	0.8447265625	-8.9375	-2.25	0.8125
18	11	21	14	43	43	-0.49991373658	0.0695765669272	-0.215931485779	-0.2373046875	0.23388671875	0.87451171875	0.0	-0.25	-4.5
18	11	21	14	43	43	-0.50052992847	0.0698825470185	-0.216727444946	-0.34033203125	0.26220703125	0.85498046875	4.9375	1.75	-3.9375
18	11	21	14	43	43	-0.49919147087	0.0704934770576	-0.216057929683	-0.3662109375	0.30078125	0.884765625	-7.4375	0.0625	8.5
18	11	21	14	43	43	-0.498321261625	0.0703691873428	-0.215135633463	-0.3330078125	0.2314453125	0.86865234375	-2.5	-3.3125	7.4375
18	11	21	14	43	43	-0.497478703959	0.0695164082701	-0.215384903235	-0.25	0.24609375	0.87890625	5.0625	2.25	6.0625
18	11	21	14	43	43	-0.497604333166	0.0692727729846	-0.218682242823	-0.32275390625	0.275390625	0.8359375	17.75	7.75	-1.1875
18	11	21	14	43	43	-0.498085018312	0.0689055245281	-0.222157758443	-0.32861328125	0.2763671875	0.80615234375	19.0625	6.1875	-3.4375
18	11	21	14	43	43	-0.498280192017	0.0675644503384	-0.223200718055	-0.29443359375	0.30029296875	0.82861328125	8.25	-2.125	-0.5625
18	11	21	14	43	43	-0.497735406074	0.0671988573988	-0.221982056639	-0.29052734375	0.28564453125	0.81298828125	-6.5625	-4.1875	3.9375
18	11	21	14	43	43	-0.497856140451	0.0681141906024	-0.220516640364	-0.296875	0.2568359375	0.82080078125	-8.5	0.6875	-1.3125
18	11	21	14	43	43	-0.498331846726	0.0692720938193	-0.218924229542	-0.26416015625	0.27685546875	0.8466796875	-10.75	3.5	-5.375
18	11	21	14	43	43	-0.499293749463	0.0714061467879	-0.218002355834	-0.38037109375	0.27490234375	0.8447265625	-9.1875	2.625	-7.8125
18	11	21	14	43	43	-0.498929647364	0.0735425351771	-0.216233362766	-0.39404296875	0.32275390625	0.85302734375	-18.6875	1.0	0.0
18	11	21	14	43	43	-0.498145889229	0.0740932503705	-0.211599093109	-0.24072265625	0.24072265625	0.94384765625	-22.75	-3.375	4.8125
18	11	21	14	43	43	-0.496378842512	0.0729340608388	-0.211783423523	-0.2109375	0.3154296875	0.8876953125	-0.1875	4.25	9.6875
18	11	21	14	43	43	-0.495280293814	0.074581949358	-0.212088603944	-0.3564453125	0.3271484375	0.8623046875	-7.6875	7.5	4.1875
18	11	21	14	43	43	-0.497426712514	0.0775131196187	-0.212459188498	-0.46484375	0.2373046875	0.82373046875	-2.75	3.6875	-15.0625
18	11	21	14	43	43	-0.497831888668	0.0770214347799	-0.211351211286	-0.30517578125	0.24365234375	0.86083984375	-2.375	-4.75	-1.625
18	11	21	14	43	43	-0.496868382932	0.0759858907689	-0.212211198557	-0.32470703125	0.27099609375	0.8798828125	6.125	-1.25	7.75
18	11	21	14	43	43	-0.497170457159	0.075924386043	-0.215139437943	-0.376953125	0.263671875	0.86328125	16.125	5.0625	-1.6875
18	11	21	14	43	43	-0.498520173131	0.0748268526272	-0.215203492956	-0.2685546875	0.30078125	0.88134765625	3.4375	-2.25	-9.1875
18	11	21	14	43	43	-0.499786142395	0.0753737801756	-0.21287752652	-0.31005859375	0.2978515625	0.89111328125	-13.0625	-3.875	-9.5
18	11	21	14	43	43	-0.501510612549	0.0755592233583	-0.21392171072	-0.4091796875	0.275390625	0.84814453125	6.1875	-3.0	-10.0625
18	11	21	14	43	43	-0.499432753969	0.0753757119823	-0.213859509948	-0.41650390625	0.32861328125	0.8818359375	-5.5625	-4.5625	13.875
18	11	21	14	43	43	-0.497357802672	0.0754978036453	-0.210014504724	-0.322265625	0.3046875	0.9736328125	-22.75	-5.9375	13.5
18	11	21	14	43	43	-0.496997933568	0.0731184482887	-0.210932685547	-0.2763671875	0.1416015625	0.88916015625	19.25	-5.25	7.8125
18	11	21	14	43	43	-0.498323390657	0.0715290892651	-0.217333691871	-0.35888671875	0.1982421875	0.791015625	42.375	6.125	-5.75
18	11	21	14	43	43	-0.49711853445	0.0724468631544	-0.221063638033	-0.39697265625	0.38427734375	0.83837890625	8.625	11.6875	4.25
18	11	21	14	43	43	-0.493584109044	0.0697621660241	-0.220333700216	-0.2578125	0.31005859375	0.99951171875	0.8125	-4.125	25.1875
18	11	21	14	43	43	-0.494786899339	0.0684779697864	-0.223011142246	-0.32470703125	0.2548828125	0.841796875	20.6875	-0.125	-6.0625
18	11	21	14	43	43	-0.494727299151	0.0682950712743	-0.221119788406	-0.2734375	0.29248046875	1.0048828125	-6.25	0.125	0.5
18	11	21	14	43	43	-0.490809284171	0.0648146555322	-0.223555633912	-0.2578125	0.2900390625	0.91796875	19.4375	-0.5625	28.4375
18	11	21	14	43	43	-0.492960929414	0.0643894738803	-0.227957047339	-0.42919921875	0.2919921875	0.80126953125	26.125	0.4375	-12.125
18	11	21	14	43	43	-0.49325914294	0.0627407076148	-0.229601694598	-0.3388671875	0.333984375	0.85400390625	11.6875	-4.8125	-0.4375
18	11	21	14	43	43	-0.490874102433	0.0617025634166	-0.229904605728	-0.3017578125	0.41943359375	0.84130859375	-5.375	-0.75	14.0
18	11	21	14	43	43	-0.491108075806	0.0631049770577	-0.228191014718	-0.32470703125	0.18896484375	0.77587890625	-6.6875	-0.875	0.125
18	11	21	14	43	43	-0.491563516133	0.064573404528	-0.226617250484	-0.33349609375	0.1787109375	0.82763671875	-4.5625	0.6875	-1.3125
18	11	21	14	43	43	-0.49080593779	0.0642649406233	-0.229168900323	-0.32568359375	0.39208984375	0.83203125	7.375	5.875	2.4375
18	11	21	14	43	43	-0.489350266797	0.0657919166385	-0.229112110446	-0.41748046875	0.33154296875	0.82861328125	-8.0	2.4375	8.625
18	11	21	14	43	44	-0.487778391154	0.0656108321434	-0.225457129245	-0.26708984375	0.2041015625	0.88525390625	-13.5	-6.125	12.75
18	11	21	14	43	44	-0.486550738531	0.0659760848409	-0.225087697404	-0.26416015625	0.28369140625	0.86474609375	-2.8125	5.625	6.8125
18	11	21	14	43	44	-0.486129768649	0.0678079313206	-0.225639893872	-0.32421875	0.3662109375	0.8515625	-6.5625	10.6875	-1.8125
18	11	21	14	43	44	-0.487039517948	0.0686615861768	-0.226186522997	-0.35009765625	0.3583984375	0.83154296875	-2.875	2.5625	-7.875
18	11	21	14	43	44	-0.487823934205	0.0689044441033	-0.224473468035	-0.376953125	0.28662109375	0.85595703125	-7.75	-8.1875	-3.5
18	11	21	14	43	44	-0.486906053873	0.0674393569228	-0.224411326158	-0.298828125	0.279296875	0.87548828125	4.125	-4.4375	8.125
18	11	21	14	43	44	-0.486675222692	0.0658543472893	-0.226431537019	-0.26953125	0.23291015625	0.84765625	18.9375	1.125	3.5625
18	11	21	14	43	44	-0.487769577089	0.065121388733	-0.227711247763	-0.2802734375	0.25927734375	0.8564453125	12.625	1.625	-6.25
18	11	21	14	43	44	-0.489038819571	0.0642653035078	-0.230024623857	-0.31982421875	0.3330078125	0.81640625	13.4375	0.3125	-8.25
18	11	21	14	43	44	-0.490686676195	0.0644483992615	-0.231794526889	-0.3935546875	0.298828125	0.78125	10.0	-1.9375	-9.75
18	11	21	14	43	44	-0.490095573816	0.0623758003038	-0.232169808567	-0.26708984375	0.337890625	0.87548828125	5.75	-4.4375	5.0
18	11	21	14	43	44	-0.489061223372	0.0611555404741	-0.233330969294	-0.29443359375	0.31201171875	0.8505859375	8.625	0.5	7.625
18	11	21	14	43	44	-0.489591385459	0.0619465540066	-0.232345350841	-0.3095703125	0.26611328125	0.86669921875	-3.1875	1.1875	-3.1875
18	11	21	14	43	44	-0.490946420409	0.0621922429633	-0.231985000494	-0.28759765625	0.3056640625	0.8935546875	0.5625	1.4375	-9.4375
18	11	21	14	43	44	-0.490756105422	0.0627406139005	-0.230516827531	-0.36181640625	0.251953125	0.87939453125	-4.9375	-3.4375	3.3125
18	11	21	14	43	44	-0.490454942201	0.0617035772231	-0.231190059863	-0.37451171875	0.228515625	0.8876953125	12.0	-5.3125	6.1875
18	11	21	14	43	44	-0.489048506831	0.0583464835306	-0.233935221101	-0.25390625	0.2802734375	0.86865234375	24.6875	-2.4375	12.5
18	11	21	14	43	44	-0.488738867171	0.0566370715203	-0.237839081589	-0.283203125	0.2529296875	0.78515625	27.875	3.8125	4.0
18	11	21	14	43	44	-0.489965737198	0.0570650179722	-0.24052752495	-0.27587890625	0.267578125	0.77978515625	16.4375	9.4375	-9.3125
18	11	21	14	43	44	-0.490650313447	0.0585923996653	-0.240595041126	-0.30224609375	0.416015625	0.81298828125	-9.0	7.3125	-9.5
18	11	21	14	43	44	-0.489803791612	0.0615230183109	-0.234678576791	-0.3466796875	0.39892578125	0.8837890625	-43.6875	-2.875	2.1875
18	11	21	14	43	44	-0.48972903698	0.0634133187216	-0.228446633277	-0.359375	0.2646484375	0.92236328125	-33.5	-9.9375	2.0625
18	11	21	14	43	44	-0.488802321858	0.062923610168	-0.226366314368	-0.2763671875	0.2509765625	0.9384765625	-4.75	-3.125	8.1875
18	11	21	14	43	44	-0.487542873623	0.0615226861056	-0.229306281447	-0.251953125	0.34326171875	0.89892578125	16.625	8.0625	6.8125
18	11	21	14	43	44	-0.487208563434	0.0615190068823	-0.23307647548	-0.3662109375	0.33154296875	0.80712890625	17.125	7.125	1.375
18	11	21	14	43	44	-0.485758355219	0.0600560650251	-0.233754805941	-0.2900390625	0.359375	0.82080078125	2.6875	-2.4375	9.5
18	11	21	14	43	44	-0.484885591838	0.060419979348	-0.234051132121	-0.34619140625	0.35302734375	0.77392578125	-4.1875	-0.0625	5.125
18	11	21	14	43	44	-0.484961093768	0.0634123554524	-0.232349217716	-0.390625	0.26806640625	0.791015625	-15.1875	3.75	-1.625
18	11	21	14	43	44	-0.486864536111	0.0653058861275	-0.231744345445	-0.34228515625	0.2529296875	0.81103515625	-3.25	3.3125	-13.125
18	11	21	14	43	44	-0.487211986962	0.0657305912511	-0.231674395905	-0.357421875	0.2958984375	0.869140625	0.25	-0.1875	-1.875
18	11	21	14	43	44	-0.487283309513	0.0660981743741	-0.232899938515	-0.4013671875	0.287109375	0.84375	7.0	0.0625	0.8125
18	11	21	14	43	44	-0.487290823345	0.0645123246839	-0.232842496375	-0.22802734375	0.29052734375	0.8916015625	6.3125	-0.9375	0.8125
18	11	21	14	43	44	-0.488076993538	0.063107616771	-0.234914136317	-0.2783203125	0.265625	0.7978515625	17.5	0.0625	-3.375
18	11	21	14	43	44	-0.489363450378	0.0633523648656	-0.238639447615	-0.33544921875	0.33935546875	0.7568359375	17.1875	7.875	-10.6875
18	11	21	14	43	44	-0.491807491518	0.0646954506092	-0.239434200698	-0.31787109375	0.3955078125	0.8134765625	-1.8125	6.0	-20.3125
18	11	21	14	43	44	-0.491856447213	0.0655483092576	-0.235522276932	-0.35986328125	0.31396484375	0.86181640625	-22.125	-9.25	0.875
18	11	21	14	43	44	-0.492217221043	0.0657306815949	-0.23234605834	-0.35009765625	0.23681640625	0.8955078125	-10.875	-9.1875	1.0
18	11	21	14	43	44	-0.492335195937	0.0652418897306	-0.23203897545	-0.30419921875	0.23583984375	0.8994140625	5.625	-0.875	1.375
18	11	21	14	43	44	-0.492268033725	0.0652410771202	-0.232219175344	-0.30029296875	0.31005859375	0.900390625	2.1875	3.375	-0.1875
18	11	21	14	43	44	-0.490330769125	0.0635953026423	-0.233813439945	-0.29736328125	0.24658203125	0.84033203125	14.6875	0.5	15.1875
18	11	21	14	43	44	-0.490589736574	0.0634751587506	-0.236689101572	-0.4169921875	0.35791015625	0.85302734375	13.125	1.9375	-1.5
18	11	21	14	43	44	-0.490038615991	0.0640852592839	-0.236383056387	-0.42578125	0.37353515625	0.85400390625	-7.0625	-3.375	3.875
18	11	21	14	43	44	-0.488190398063	0.0634116544052	-0.233994497584	-0.353515625	0.31298828125	0.89990234375	-11.1875	-8.6875	14.75
18	11	21	14	43	44	-0.488137169633	0.0640840245204	-0.23277759002	-0.3095703125	0.212890625	0.85546875	-1.625	0.5	1.8125
18	11	21	14	43	44	-0.488323262718	0.0639013193433	-0.234610001486	-0.3095703125	0.29833984375	0.845703125	11.125	4.9375	-1.375
18	11	21	14	43	44	-0.488247043861	0.064875825953	-0.235029920739	-0.3701171875	0.36181640625	0.8642578125	-2.875	3.8125	-1.5
18	11	21	14	43	44	-0.488626731159	0.0653658792245	-0.233144405824	-0.30322265625	0.3203125	0.9091796875	-9.8125	-0.875	-3.125
18	11	21	14	43	44	-0.488794734184	0.0656690141068	-0.230146702785	-0.31640625	0.25244140625	0.908203125	-11.0625	-5.6875	0.875
18	11	21	14	43	44	-0.489122220405	0.066953715471	-0.229607910302	-0.38818359375	0.24365234375	0.90869140625	-0.75	1.5625	-0.9375
18	11	21	14	43	44	-0.489973703876	0.0673195061504	-0.231925769149	-0.373046875	0.31787109375	0.85400390625	11.5625	4.875	-6.375
18	11	21	14	43	45	-0.490326525462	0.0668294181455	-0.232285630559	-0.35888671875	0.33056640625	0.87890625	2.9375	-3.1875	-1.375
18	11	21	14	43	45	-0.489730823848	0.0665262460113	-0.23265876128	-0.39453125	0.26318359375	0.8310546875	4.75	-4.25	6.6875
18	11	21	14	43	45	-0.490642423325	0.0665867500743	-0.233816534862	-0.349609375	0.2431640625	0.84912109375	10.9375	1.375	-4.1875
18	11	21	14	43	45	-0.491065921107	0.0667083086963	-0.233570628894	-0.30029296875	0.3525390625	0.8681640625	-2.875	1.625	-4.4375
18	11	21	14	43	45	-0.490814234857	0.0680499716322	-0.232224342655	-0.40185546875	0.251953125	0.88916015625	-6.5	-0.9375	2.9375
18	11	21	14	43	45	-0.490530689034	0.067686765477	-0.232356642174	-0.38671875	0.337890625	0.8740234375	-0.125	-4.0	3.0
18	11	21	14	43	45	-0.489657553513	0.0676231545921	-0.231249217283	-0.3544921875	0.33837890625	0.9267578125	-6.5625	-2.625	6.1875
18	11	21	14	43	45	-0.489247122229	0.0675644416552	-0.230036477505	-0.3525390625	0.2197265625	0.86376953125	-0.75	-4.625	5.9375
18	11	21	14	43	45	-0.489171955411	0.0669521690688	-0.231128408627	-0.2763671875	0.27978515625	0.88427734375	9.75	4.125	0.4375
18	11	21	14	43	45	-0.488925840243	0.0677453105317	-0.233629773617	-0.376953125	0.2900390625	0.83447265625	11.5625	8.1875	0.8125
18	11	21	14	43	45	-0.489412867852	0.0695150587958	-0.233629187946	-0.4365234375	0.28662109375	0.86474609375	-2.5	1.6875	-2.75
18	11	21	14	43	45	-0.489242433895	0.0689675586704	-0.232536635871	-0.3125	0.33935546875	0.8818359375	-5.625	-3.5625	0.9375
18	11	21	14	43	45	-0.489298433872	0.0708588601379	-0.228322993778	-0.31396484375	0.20166015625	0.86669921875	-20.1875	-1.9375	0.375
18	11	21	14	43	45	-0.489408121751	0.0717115030624	-0.226547318611	-0.2998046875	0.140625	0.83203125	-2.0625	0.1875	1.625
18	11	21	14	43	45	-0.490022752759	0.0713459456938	-0.228685422168	-0.31103515625	0.20068359375	0.791015625	17.75	3.6875	-2.25
18	11	21	14	43	45	-0.490326086217	0.0709184605656	-0.231736140076	-0.37646484375	0.33154296875	0.8056640625	14.625	2.4375	-2.125
18	11	21	14	43	45	-0.490091998371	0.0710419783442	-0.232351212677	-0.41064453125	0.353515625	0.837890625	-0.625	-2.25	1.8125
18	11	21	14	43	45	-0.489980413343	0.0712876336304	-0.229792757379	-0.36767578125	0.28173828125	0.890625	-11.625	-7.4375	2.625
18	11	21	14	43	45	-0.490638947186	0.0713468005051	-0.227772677061	-0.33984375	0.20068359375	0.9189453125	-2.375	-5.1875	-1.0625
18	11	21	14	43	45	-0.490634391947	0.0704916933324	-0.229418420118	-0.3310546875	0.27392578125	0.9150390625	14.125	2.125	1.5
18	11	21	14	43	45	-0.489916685705	0.0697003681419	-0.231317333851	-0.3671875	0.345703125	0.90771484375	9.875	1.4375	4.8125
18	11	21	14	43	45	-0.488931572542	0.0689057228062	-0.231923602005	-0.35546875	0.28076171875	0.8203125	5.0	-3.0625	8.5625
18	11	21	14	43	45	-0.4899761624	0.0682963783914	-0.232720367119	-0.2890625	0.2080078125	0.798828125	12.3125	-0.5	-4.375
18	11	21	14	43	45	-0.490880945411	0.0688441758577	-0.233569734936	-0.33740234375	0.2421875	0.814453125	7.3125	2.8125	-5.5
18	11	21	14	43	45	-0.491121753369	0.069759185299	-0.235643232231	-0.45849609375	0.33544921875	0.775390625	5.625	0.875	-1.375
18	11	21	14	43	45	-0.491926303958	0.0713476239859	-0.232535883136	-0.42236328125	0.291015625	0.86767578125	-17.9375	-7.3125	-4.375
18	11	21	14	43	45	-0.49154579922	0.0696366720772	-0.228867239518	-0.2490234375	0.2587890625	0.90185546875	-11.0625	-12.5	5.625
18	11	21	14	43	45	-0.491865167397	0.0711645098877	-0.226493564488	-0.31201171875	0.142578125	0.87060546875	-6.0	1.6875	-0.125
18	11	21	14	43	45	-0.49259767474	0.0714696911312	-0.228629771971	-0.314453125	0.25830078125	0.88037109375	14.0	8.625	-5.5
18	11	21	14	43	45	-0.491383423171	0.0703720142736	-0.229975498511	-0.2998046875	0.3720703125	0.89794921875	5.3125	3.0	6.75
18	11	21	14	43	45	-0.490962438441	0.0715936027214	-0.229123942554	-0.45458984375	0.34033203125	0.90478515625	-9.3125	-2.4375	2.9375
18	11	21	14	43	45	-0.491488190467	0.072505646377	-0.227404072728	-0.3896484375	0.259765625	0.89697265625	-7.5	-3.75	-2.125
18	11	21	14	43	45	-0.491122401879	0.0719564200094	-0.22520711606	-0.26953125	0.2236328125	0.908203125	-4.75	-3.5625	4.5
18	11	21	14	43	45	-0.492042414151	0.070797469662	-0.227162225933	-0.2958984375	0.220703125	0.85302734375	19.1875	1.25	-3.875
18	11	21	14	43	45	-0.492780014834	0.0699437573693	-0.231375902432	-0.3203125	0.2880859375	0.76806640625	23.8125	6.1875	-4.6875
18	11	21	14	43	45	-0.492239632451	0.0705553645522	-0.232722841728	-0.40869140625	0.3583984375	0.79638671875	0.375	1.4375	2.1875
18	11	21	14	43	45	-0.491550680518	0.0705528416537	-0.231432850823	-0.32568359375	0.36181640625	0.78125	-12.375	-4.1875	3.4375
18	11	21	14	43	45	-0.491866879609	0.0726905886108	-0.228020183921	-0.3125	0.1982421875	0.78564453125	-18.4375	-0.625	-2.1875
18	11	21	14	43	45	-0.492408946368	0.0734829414263	-0.226185864556	-0.30126953125	0.27099609375	0.8515625	-9.5	0.125	-4.3125
18	11	21	14	43	45	-0.493187804368	0.0759219933961	-0.226484338821	-0.43115234375	0.13671875	0.83447265625	5.0	5.25	-2.875
18	11	21	14	43	45	-0.492784683789	0.0751322697231	-0.227471949032	-0.3779296875	0.32568359375	0.88037109375	5.3125	-2.125	3.5
18	11	21	14	43	45	-0.491985551072	0.0745210715617	-0.226065560249	-0.3125	0.30029296875	0.90478515625	-5.9375	-3.75	5.8125
18	11	21	14	43	45	-0.49193010815	0.0753763875391	-0.22564089452	-0.341796875	0.24072265625	0.892578125	-0.5	3.5625	0.4375
18	11	21	14	43	45	-0.492516912361	0.0748235110972	-0.226728665356	-0.3408203125	0.25537109375	0.8671875	10.5	-0.0625	-2.1875
18	11	21	14	43	45	-0.49248157085	0.0737898400245	-0.228998742574	-0.39990234375	0.35595703125	0.83447265625	10.5	-2.6875	1.0625
18	11	21	14	43	45	-0.493269829213	0.0737280318843	-0.228691171747	-0.37939453125	0.27392578125	0.833984375	0.5	-5.25	-3.5625
18	11	21	14	43	45	-0.493818617923	0.0725072942891	-0.227226141951	-0.23583984375	0.27978515625	0.8818359375	-1.75	-4.0625	-2.8125
18	11	21	14	43	45	-0.493564623756	0.0722006862747	-0.229052557556	-0.33935546875	0.244140625	0.84375	13.125	3.6875	3.0
18	11	21	14	43	45	-0.494349122858	0.0737861838933	-0.230024919019	-0.43896484375	0.30029296875	0.84130859375	1.1875	3.125	-5.8125
18	11	21	14	43	45	-0.493071598264	0.0736037068334	-0.22880621635	-0.35791015625	0.40087890625	0.90185546875	-12.6875	-3.375	7.0
18	11	21	14	43	46	-0.493697602785	0.0751318765024	-0.225273563095	-0.40185546875	0.18212890625	0.8583984375	-14.75	-7.5625	-1.125
18	11	21	14	43	46	-0.492599512444	0.0751929871554	-0.223564863596	-0.3125	0.2099609375	0.9462890625	-3.1875	-0.1875	8.75
18	11	21	14	43	46	-0.492050080139	0.0743385013159	-0.226189233068	-0.34619140625	0.28857421875	0.89111328125	15.875	4.375	4.375
18	11	21	14	43	46	-0.49259881883	0.0743384167185	-0.226127942481	-0.3681640625	0.29443359375	0.88525390625	1.1875	-2.0	-2.875
18	11	21	14	43	46	-0.494420448232	0.0728722398703	-0.227649459561	-0.32080078125	0.25	0.837890625	16.375	-4.1875	-9.25
18	11	21	14	43	46	-0.493025487291	0.071286676053	-0.229545538215	-0.29296875	0.32958984375	0.8525390625	10.5625	2.0	9.25
18	11	21	14	43	46	-0.492731934733	0.0717155980815	-0.231076812201	-0.4130859375	0.271484375	0.8388671875	8.1875	1.8125	3.125
18	11	21	14	43	46	-0.493153301574	0.0713485407847	-0.230768890254	-0.29931640625	0.37939453125	0.86279296875	-4.375	-0.875	-4.6875
18	11	21	14	43	46	-0.494809778554	0.0731808220656	-0.227232861176	-0.33251953125	0.2490234375	0.88623046875	-17.9375	-2.25	-11.25
18	11	21	14	43	46	-0.496067115577	0.0759236579451	-0.225756921816	-0.4140625	0.2431640625	0.927734375	-9.125	4.4375	-9.25
18	11	21	14	43	46	-0.496603491101	0.0756775628567	-0.226544446229	-0.39501953125	0.30517578125	0.908203125	5.9375	-1.5625	-2.25
18	11	21	14	43	46	-0.495102479547	0.073972411885	-0.226189569675	-0.390625	0.26904296875	0.91259765625	3.4375	-9.6875	14.0
18	11	21	14	43	46	-0.493992200965	0.0719566104444	-0.229540976999	-0.32470703125	0.34521484375	0.84375	18.5625	1.6875	7.875
18	11	21	14	43	46	-0.493929377069	0.0701864306969	-0.230455619401	-0.23095703125	0.20068359375	0.7861328125	14.3125	-0.9375	3.1875
18	11	21	14	43	46	-0.492540297408	0.0700664512298	-0.233575181931	-0.3251953125	0.2568359375	0.80126953125	16.75	9.4375	8.875
18	11	21	14	43	46	-0.492669576932	0.071654371075	-0.234738254817	-0.36279296875	0.41064453125	0.79541015625	-5.375	8.0	-5.75
18	11	21	14	43	46	-0.493554842453	0.0736639909535	-0.229780386031	-0.3525390625	0.365234375	0.8818359375	-33.5625	-6.0625	-8.375
18	11	21	14	43	46	-0.494665932484	0.0762902425176	-0.223255765703	-0.3330078125	0.19189453125	0.9228515625	-32.125	-6.0	-7.0
18	11	21	14	43	46	-0.496084353637	0.0769028402538	-0.221858590732	-0.32177734375	0.134765625	0.91357421875	3.25	-0.0625	-6.25
18	11	21	14	43	46	-0.496148399332	0.0758657227666	-0.227047858964	-0.3974609375	0.34130859375	0.87744140625	27.125	7.0625	-0.625
18	11	21	14	43	46	-0.495898520417	0.0747052047988	-0.229791745153	-0.380859375	0.36572265625	0.80859375	11.5625	-0.75	1.625
18	11	21	14	43	46	-0.494866008367	0.0743397629738	-0.229000649161	-0.30126953125	0.2802734375	0.802734375	-4.3125	-2.0	7.125
18	11	21	14	43	46	-0.495757426388	0.0763501834804	-0.22721961079	-0.34716796875	0.18310546875	0.779296875	-8.25	1.3125	-5.5625
18	11	21	14	43	46	-0.495516894716	0.0782427218902	-0.227526417478	-0.3701171875	0.2998046875	0.818359375	-5.25	7.6875	-1.3125
18	11	21	14	43	46	-0.495841535532	0.0772692496287	-0.226131571781	-0.3037109375	0.33740234375	0.88427734375	-6.5	-6.0625	-1.9375
18	11	21	14	43	46	-0.495958519482	0.077817759333	-0.224359281026	-0.38134765625	0.2470703125	0.87646484375	-7.4375	-4.6875	0.75
18	11	21	14	43	46	-0.49577552137	0.0778177754213	-0.222711421578	-0.337890625	0.22705078125	0.90576171875	-4.3125	-3.375	3.1875
18	11	21	14	43	46	-0.495772869372	0.0769628940388	-0.223259529258	-0.2890625	0.208984375	0.8896484375	10.75	1.25	1.875
18	11	21	14	43	46	-0.496241315656	0.0764105432544	-0.225264628716	-0.31298828125	0.2568359375	0.85546875	14.25	4.1875	-2.5625
18	11	21	14	43	46	-0.497221990125	0.0761060294202	-0.227463650079	-0.34228515625	0.30517578125	0.83837890625	12.1875	3.6875	-6.8125
18	11	21	14	43	46	-0.496750600938	0.0762306795149	-0.226555870584	-0.3544921875	0.3251953125	0.916015625	-6.4375	-1.0	2.5625
18	11	21	14	43	46	-0.496634020396	0.0768418620718	-0.223628739183	-0.35302734375	0.25830078125	0.87744140625	-14.8125	-6.125	1.5625
18	11	21	14	43	46	-0.496456464575	0.0772699636282	-0.220396397047	-0.29443359375	0.18798828125	0.84814453125	-12.125	-5.0	3.0
18	11	21	14	43	46	-0.497048460735	0.0778164031726	-0.220144130387	-0.322265625	0.1484375	0.81689453125	5.3125	1.125	-1.6875
18	11	21	14	43	46	-0.497843534274	0.0776335632704	-0.223013396376	-0.37158203125	0.2353515625	0.8251953125	18.4375	4.0	-3.8125
18	11	21	14	43	46	-0.49748117047	0.0762914321049	-0.226066771613	-0.3896484375	0.3720703125	0.873046875	13.875	0.3125	2.125
18	11	21	14	43	46	-0.496728925472	0.0757391075699	-0.225325370788	-0.3583984375	0.36376953125	0.88427734375	-7.0	-4.5625	4.6875
18	11	21	14	43	46	-0.497230795989	0.0766566686831	-0.22221889385	-0.35595703125	0.20166015625	0.89306640625	-12.0625	-5.6875	-1.25
18	11	21	14	43	46	-0.497343713712	0.075922883772	-0.222275838181	-0.29541015625	0.22265625	0.85888671875	6.0	-0.875	1.0
18	11	21	14	43	46	-0.496995903546	0.0764749928948	-0.225701934338	-0.37841796875	0.330078125	0.83837890625	12.8125	10.25	-0.125
18	11	21	14	43	46	-0.496975459375	0.0765939090649	-0.226058835997	-0.33837890625	0.3662109375	0.83251953125	-3.5625	1.25	-2.0625
18	11	21	14	43	46	-0.497000980037	0.0773302519596	-0.223323908382	-0.33349609375	0.1962890625	0.87646484375	-10.125	-3.75	1.75
18	11	21	14	43	46	-0.498084462638	0.0771448058785	-0.223805382244	-0.400390625	0.21533203125	0.8876953125	9.25	-3.5625	-3.875
18	11	21	14	43	46	-0.497710376775	0.0746412986874	-0.225754835523	-0.330078125	0.302734375	0.8681640625	16.0	-5.1875	5.1875
18	11	21	14	43	46	-0.497960353079	0.0734215350845	-0.226917096795	-0.36474609375	0.26025390625	0.84423828125	11.3125	-4.9375	1.3125
18	11	21	14	43	46	-0.496999363763	0.0729965908216	-0.227046252388	-0.33447265625	0.2578125	0.85498046875	3.0625	-0.5	7.4375
18	11	21	14	43	46	-0.495403847494	0.0720187926626	-0.226859196887	-0.2392578125	0.39013671875	0.86767578125	-5.9375	2.75	7.8125
18	11	21	14	43	46	-0.496617515175	0.0731773873289	-0.226123619728	-0.42041015625	0.2841796875	0.85009765625	-4.875	-3.625	-7.5
18	11	21	14	43	46	-0.496807641559	0.0731173899985	-0.225455457975	-0.37841796875	0.29833984375	0.90283203125	-2.8125	-4.0625	-0.1875
18	11	21	14	43	46	-0.494921998385	0.071348355668	-0.225153194234	-0.34521484375	0.41845703125	0.970703125	-4.0	-5.75	12.4375
18	11	21	14	43	47	-0.495454930048	0.0703084601399	-0.226671545972	-0.38232421875	0.27392578125	0.90966796875	13.8125	-3.0	-0.875
18	11	21	14	43	47	-0.495468926924	0.0688456454262	-0.227227249931	-0.26220703125	0.2744140625	0.943359375	10.375	0.9375	1.25
18	11	21	14	43	47	-0.495452043709	0.0679888613812	-0.228073945226	-0.35791015625	0.291015625	0.921875	8.5625	-2.0	1.875
18	11	21	14	43	47	-0.496314261133	0.0675016690621	-0.229420229661	-0.36767578125	0.33349609375	0.87744140625	8.3125	-1.3125	-5.25
18	11	21	14	43	47	-0.496431907046	0.0668907511829	-0.230699853532	-0.37451171875	0.34912109375	0.84521484375	5.0625	-2.25	-0.1875
18	11	21	14	43	47	-0.495945218079	0.0666468346225	-0.22893065629	-0.359375	0.2158203125	0.8828125	-2.6875	-7.1875	6.875
18	11	21	14	43	47	-0.495938351649	0.0665238497781	-0.230575325194	-0.35693359375	0.31689453125	0.841796875	7.75	2.125	0.0625
18	11	21	14	43	47	-0.493946230689	0.0659774960305	-0.229120740147	-0.27734375	0.37353515625	0.94384765625	-10.4375	0.5625	11.5
18	11	21	14	43	47	-0.494305843115	0.0680517366431	-0.228446323099	-0.47412109375	0.26904296875	0.80712890625	-7.8125	-2.75	-1.25
18	11	21	14	43	47	-0.49380504395	0.0673176323664	-0.226914739019	-0.30322265625	0.3095703125	0.9248046875	-5.5	-4.5625	4.25
18	11	21	14	43	47	-0.4929658406	0.0678079793124	-0.229607217078	-0.4052734375	0.31640625	0.8203125	10.125	5.3125	5.0625
18	11	21	14	43	47	-0.492057147095	0.0682361560968	-0.227596266623	-0.31884765625	0.2177734375	0.90869140625	-5.9375	-1.0625	7.8125
18	11	21	14	43	47	-0.493094127553	0.0666491876826	-0.231624237413	-0.3525390625	0.2373046875	0.8037109375	29.5625	0.5	-3.6875
18	11	21	14	43	47	-0.492906457978	0.0666485700981	-0.233147928365	-0.31005859375	0.32568359375	0.85595703125	6.875	6.0	-0.0625
18	11	21	14	43	47	-0.494117275888	0.066220015358	-0.234913215772	-0.35498046875	0.3623046875	0.8408203125	8.5	0.0625	-8.4375
18	11	21	14	43	47	-0.493016047746	0.06591450007	-0.232104484969	-0.271484375	0.294921875	0.8779296875	-13.4375	-4.625	7.8125
18	11	21	14	43	47	-0.494955422476	0.0660347431713	-0.233074569474	-0.3681640625	0.20361328125	0.8056640625	12.5625	-2.0625	-9.75
18	11	21	14	43	47	-0.494620929671	0.0651234614954	-0.234066049517	-0.27001953125	0.34375	0.8857421875	6.3125	3.3125	0.9375
18	11	21	14	43	47	-0.496211522494	0.0650018784079	-0.237424701415	-0.36572265625	0.34521484375	0.7861328125	16.25	3.9375	-11.4375
18	11	21	14	43	47	-0.496205321817	0.0645127952228	-0.236750362033	-0.29248046875	0.38525390625	0.85986328125	-5.875	-1.8125	-1.3125
18	11	21	14	43	47	-0.495766003183	0.0661590973101	-0.23296058527	-0.3125	0.3232421875	0.8701171875	-25.0	-1.4375	1.0625
18	11	21	14	43	47	-0.496130874237	0.0681729839492	-0.229175966633	-0.3310546875	0.2822265625	0.8896484375	-22.6875	-0.875	-3.4375
18	11	21	14	43	47	-0.49711146437	0.0689669680464	-0.227224798263	-0.3427734375	0.28515625	0.91796875	-8.5625	-2.625	-6.375
18	11	21	14	43	47	-0.497724461316	0.0683570075628	-0.229179074463	-0.41943359375	0.2763671875	0.90380859375	15.0625	-1.8125	-1.0
18	11	21	14	43	47	-0.49588444847	0.0657924228247	-0.231738246257	-0.34814453125	0.3076171875	0.86279296875	18.1875	-3.9375	15.3125
18	11	21	14	43	47	-0.494004017385	0.0626812609161	-0.234551203214	-0.28173828125	0.33056640625	0.82958984375	19.6875	-2.5	14.1875
18	11	21	14	43	47	-0.494669962289	0.0623143777294	-0.238454724573	-0.333984375	0.326171875	0.76806640625	19.6875	6.5	-5.125
18	11	21	14	43	47	-0.4961212092	0.0645708253578	-0.239180590338	-0.359375	0.3486328125	0.84033203125	-2.5625	9.5625	-13.6875
18	11	21	14	43	47	-0.498623119094	0.0661575839777	-0.239485571521	-0.42626953125	0.3466796875	0.8427734375	-1.3125	0.125	-17.25
18	11	21	14	43	47	-0.497650652291	0.061946947765	-0.240280919557	-0.20361328125	0.58203125	0.88916015625	-0.5	-8.0	3.1875
18	11	21	14	43	47	-0.499972516143	0.0643275185565	-0.234972434955	-0.3369140625	0.26904296875	0.84033203125	-28.6875	-7.375	-14.875
18	11	21	14	43	47	-0.497728302931	0.0631086530019	-0.232842854161	-0.22509765625	0.25341796875	0.93212890625	-4.5	-1.75	16.375
18	11	21	14	43	47	-0.498621170838	0.0637771265025	-0.235883821945	-0.31103515625	0.2666015625	0.796875	16.5	11.0	-7.4375
18	11	21	14	43	47	-0.498432806996	0.0654852947112	-0.2377732602	-0.3466796875	0.4208984375	0.875	-0.875	13.9375	-4.4375
18	11	21	14	43	47	-0.496489306628	0.0636556050169	-0.240768323865	-0.3994140625	0.2685546875	0.810546875	20.625	-2.625	17.0625
18	11	21	14	43	47	-0.498380841321	0.0675005156136	-0.244002768014	-0.5166015625	0.41064453125	0.84423828125	3.25	15.125	-17.9375
18	11	21	14	43	47	-0.497726623141	0.0698221038471	-0.240410198473	-0.3896484375	0.189453125	0.8369140625	-18.125	-1.6875	6.1875
18	11	21	14	43	47	-0.494177082203	0.0645719838175	-0.241443069926	-0.21875	0.296875	0.91796875	19.125	-9.3125	28.8125
18	11	21	14	43	47	-0.493079062379	0.0596894817436	-0.246570047285	-0.2353515625	0.36669921875	0.77783203125	35.0625	-2.8125	9.6875
18	11	21	14	43	47	-0.493127312918	0.0564533124318	-0.250164462333	-0.4375	0.3046875	0.7880859375	28.875	-12.6875	6.6875
18	11	21	14	43	47	-0.488437151832	0.0439428650905	-0.259812189848	-0.017578125	1.0068359375	0.732421875	37.8125	-10.0625	22.0625
18	11	21	14	43	47	-0.492470808791	0.0547461042862	-0.249927867394	-0.68994140625	-0.12548828125	0.72412109375	-50.3125	-7.0625	-17.0625
18	11	21	14	43	47	-0.486741469079	0.051756334267	-0.243523318072	-0.20703125	0.412109375	1.05615234375	-31.0	-14.3125	40.75
18	11	21	14	43	47	-0.483448945998	0.0500477383813	-0.23729952052	-0.16943359375	0.3349609375	0.89306640625	-30.0625	-12.75	23.625
18	11	21	14	43	47	-0.480746902427	0.0466282383463	-0.228685875764	-0.16650390625	0.294921875	0.98681640625	-33.3125	-27.8125	24.3125
18	11	21	14	43	47	-0.478016747508	0.0405264453965	-0.221796841221	-0.130859375	0.28759765625	0.98681640625	-16.8125	-34.4375	26.875
18	11	21	14	43	47	-0.47459835508	0.0332023540591	-0.216242537558	-0.14501953125	0.38134765625	0.99609375	-13.25	-38.4375	30.9375
18	11	21	14	43	47	-0.470076950979	0.0270376641501	-0.209038374072	-0.16748046875	0.3876953125	0.9794921875	-26.5	-38.9375	37.75
18	11	21	14	43	47	-0.464823395463	0.0211782718259	-0.200491708784	-0.17041015625	0.35498046875	0.98876953125	-33.6875	-41.6875	43.25
18	11	21	14	43	47	-0.459770225649	0.0152585366271	-0.191036878572	-0.14599609375	0.28955078125	0.95947265625	-34.6875	-44.9375	43.0
18	11	21	14	43	48	-0.454640995604	0.00891093910031	-0.182430116239	-0.14599609375	0.2666015625	0.95947265625	-28.1875	-46.5	43.5625
18	11	21	14	43	48	-0.449375965266	0.00225817067973	-0.175221838419	-0.12353515625	0.2451171875	0.9189453125	-20.125	-44.3125	44.0
18	11	21	14	43	48	-0.444020375716	-0.00384512490311	-0.168697225908	-0.0927734375	0.24462890625	0.91455078125	-18.0	-39.1875	42.625
18	11	21	14	43	48	-0.438513586168	-0.00878858126767	-0.162527721638	-0.0380859375	0.22705078125	0.896484375	-18.8125	-29.4375	41.3125
18	11	21	14	43	48	-0.433632309784	-0.0115350466642	-0.157401509772	-0.02001953125	0.22119140625	0.873046875	-18.8125	-16.625	34.125
18	11	21	14	43	48	-0.429790235944	-0.0124506117768	-0.153313415605	-0.03759765625	0.203125	0.86669921875	-17.0625	-6.8125	26.25
18	11	21	14	43	48	-0.427155756192	-0.011595884223	-0.150197216172	-0.0791015625	0.22265625	0.85009765625	-17.9375	0.1875	17.1875
18	11	21	14	43	48	-0.425762392618	-0.00933796531975	-0.148003698695	-0.13427734375	0.2626953125	0.84521484375	-19.0625	4.9375	8.4375
18	11	21	14	43	48	-0.425637094928	-0.00555391104652	-0.145256135063	-0.19287109375	0.2607421875	0.84814453125	-25.625	6.6875	0.4375
18	11	21	14	43	48	-0.425951967542	-0.000610333812212	-0.142024678102	-0.236328125	0.25244140625	0.86083984375	-30.6875	8.375	-2.5625
18	11	21	14	43	48	-0.425818301817	0.00518769609495	-0.138603033313	-0.22705078125	0.23486328125	0.88916015625	-32.625	14.125	-0.6875
18	11	21	14	43	48	-0.42520488112	0.0119010982946	-0.136954177298	-0.220703125	0.2197265625	0.89501953125	-25.6875	24.5625	0.25
18	11	21	14	43	48	-0.424589087677	0.0191635724494	-0.137318592392	-0.255859375	0.21484375	0.87548828125	-16.3125	30.6875	-0.3125
18	11	21	14	43	48	-0.424237605307	0.0263050507678	-0.138605035484	-0.2958984375	0.24951171875	0.86767578125	-13.75	29.875	-2.5
18	11	21	14	43	48	-0.424171384712	0.0333233922378	-0.139335722489	-0.30419921875	0.27001953125	0.8564453125	-18.0	28.0	-4.625
18	11	21	14	43	48	-0.424680871388	0.041076491297	-0.139342688902	-0.3359375	0.2314453125	0.8505859375	-21.0	28.5	-8.0625
18	11	21	14	43	48	-0.424791543692	0.0479721484687	-0.138911717449	-0.3525390625	0.19482421875	0.845703125	-19.5625	22.4375	-4.625
18	11	21	14	43	48	-0.42534135091	0.0530379730149	-0.138911883293	-0.38525390625	0.22119140625	0.88330078125	-14.0625	13.25	-5.8125
18	11	21	14	43	48	-0.425464568219	0.056333925759	-0.138790191957	-0.40283203125	0.19580078125	0.9052734375	-9.0625	3.25	-1.4375
18	11	21	14	43	48	-0.42559510362	0.057433671663	-0.138609849465	-0.33447265625	0.1796875	0.94140625	-2.375	-2.5625	-0.0625
18	11	21	14	43	48	-0.425341019765	0.0573712955344	-0.139155908318	-0.27734375	0.14794921875	0.974609375	6.3125	-2.5	3.4375
18	11	21	14	43	48	-0.424975002058	0.0570051201957	-0.14080386755	-0.2548828125	0.14111328125	0.98681640625	14.0625	0.875	3.75
18	11	21	14	43	48	-0.424417689044	0.0567599152733	-0.143059399355	-0.23974609375	0.15380859375	1.0029296875	16.3125	4.125	4.75
18	11	21	14	43	48	-0.423817820008	0.0565782141629	-0.145138072578	-0.23388671875	0.19873046875	0.9853515625	11.875	4.6875	4.0625
18	11	21	14	43	48	-0.423261708839	0.0577369252432	-0.144891607323	-0.220703125	0.20458984375	0.962890625	-3.8125	6.0	2.0625
18	11	21	14	43	48	-0.422783321823	0.0602406725335	-0.14172121745	-0.20263671875	0.1728515625	0.96875	-20.8125	7.5	0.8125
18	11	21	14	43	48	-0.422786596943	0.063781145345	-0.137755067027	-0.1953125	0.140625	0.98681640625	-25.3125	11.125	-2.9375
18	11	21	14	43	48	-0.423022490519	0.0670146724268	-0.13518897944	-0.2236328125	0.17236328125	0.99609375	-19.5625	11.625	-4.6875
18	11	21	14	43	48	-0.422766798554	0.0688437922287	-0.132377823887	-0.34521484375	0.2734375	1.0517578125	-24.4375	-3.3125	-0.375
18	11	21	14	43	48	-0.421247749306	0.0675632075459	-0.123896396855	-0.427734375	0.2578125	1.0380859375	-47.875	-39.3125	11.4375
