18	12	13	19	54	14	-0.211068621906	0.107792708585	0.457295001538	0.3466796875	0.83447265625	0.48974609375	0.0625	1.75	1.4375
18	12	13	19	54	14	-0.211188426351	0.108096734991	0.454543413594	0.36181640625	0.669921875	0.5703125	-14.5	1.9375	0.3125
18	12	13	19	54	14	-0.210816451041	0.107605501791	0.454531010684	0.353515625	0.69189453125	0.5380859375	0.25	1.375	-3.1875
18	12	13	19	54	14	-0.2106347889	0.107728311332	0.454228947839	0.37255859375	0.78759765625	0.53173828125	-6.0625	0.125	1.0625
18	12	13	19	54	14	-0.210391582439	0.108766405543	0.452582995005	0.38134765625	0.615234375	0.51904296875	-9.5625	-1.8125	-2.0625
18	12	13	19	54	14	-0.209966969429	0.108706736207	0.454969125035	0.388671875	0.81787109375	0.5107421875	8.625	-2.6875	-0.6875
18	12	13	19	54	14	-0.209969024385	0.109684400238	0.453447640161	0.42529296875	0.62939453125	0.533203125	-7.875	0.3125	-2.3125
18	12	13	19	54	14	-0.20960502687	0.10919726065	0.454062840678	0.345703125	0.7431640625	0.56591796875	3.625	-0.75	-1.4375
18	12	13	19	54	14	-0.209841856122	0.109864846137	0.452460058009	0.39013671875	0.6240234375	0.55224609375	-6.8125	0.375	-0.5625
18	12	13	19	54	14	-0.209718689493	0.110169451262	0.452335625097	0.3642578125	0.740234375	0.55078125	-2.5	-1.6875	1.3125
18	12	13	19	54	14	-0.210031940268	0.111089256404	0.451437439762	0.39501953125	0.65234375	0.52392578125	-5.125	-0.9375	1.3125
18	12	13	19	54	15	-0.209726434331	0.110539747548	0.452413367656	0.3603515625	0.70166015625	0.53125	5.625	0.6875	-3.1875
18	12	13	19	54	15	-0.20996954576	0.110966463428	0.451739711677	0.35546875	0.7001953125	0.5166015625	-5.8125	0.0625	3.0625
18	12	13	19	54	15	-0.210393716353	0.111575199737	0.451183739856	0.3818359375	0.68408203125	0.5498046875	-2.625	-0.875	2.5625
18	12	13	19	54	15	-0.210455459152	0.11175868495	0.451917697088	0.38916015625	0.64697265625	0.541015625	6.3125	-1.125	-1.75
18	12	13	19	54	15	-0.210575849548	0.111818827934	0.453134813636	0.3515625	0.74951171875	0.5361328125	5.6875	-2.3125	2.6875
18	12	13	19	54	15	-0.210645894376	0.111884649201	0.453825622918	0.38916015625	0.7041015625	0.56396484375	5.5	-1.0	-0.5625
18	12	13	19	54	15	-0.210576632081	0.112124426995	0.45478448859	0.373046875	0.6640625	0.53369140625	6.9375	-2.5625	-0.8125
18	12	13	19	54	15	-0.210206715945	0.110840707363	0.456790668448	0.35546875	0.814453125	0.6025390625	12.5625	0.1875	-2.25
18	12	13	19	54	15	-0.210820485551	0.112063234358	0.454112452954	0.4033203125	0.640625	0.5498046875	-14.0625	0.625	3.1875
18	12	13	19	54	15	-0.211006215883	0.111026990654	0.454606391638	0.3388671875	0.744140625	0.6044921875	5.875	2.0625	0.625
18	12	13	19	54	15	-0.211616970851	0.112064827944	0.454179948111	0.4453125	0.654296875	0.4951171875	-3.1875	1.0625	0.8125
18	12	13	19	54	15	-0.211315079343	0.110540614873	0.454553262816	0.33056640625	0.685546875	0.5498046875	4.4375	4.625	-4.625
18	12	13	19	54	15	-0.21130921621	0.110537547821	0.454601687559	0.35498046875	0.66650390625	0.4970703125	0.0625	0.4375	0.4375
18	12	13	19	54	15	-0.21185942224	0.111331485499	0.455641194763	0.4375	0.7880859375	0.52294921875	2.625	-1.25	3.6875
18	12	13	19	54	15	-0.212294776322	0.111213652231	0.454254665149	0.376953125	0.52880859375	0.5	-3.4375	5.3125	-3.1875
18	12	13	19	54	15	-0.212415490575	0.110480470673	0.454617980978	0.296875	0.76416015625	0.50927734375	-0.75	1.375	3.8125
18	12	13	19	54	15	-0.21283693243	0.111515077588	0.453751005358	0.39404296875	0.62060546875	0.525390625	-3.3125	-1.3125	1.5
18	12	13	19	54	15	-0.212834397068	0.111635822265	0.455698769289	0.37841796875	0.77197265625	0.50244140625	7.375	-2.5625	1.625
18	12	13	19	54	15	-0.213145829133	0.112676747016	0.454674479156	0.3857421875	0.70947265625	0.54248046875	-7.0	-2.375	4.0
18	12	13	19	54	15	-0.213261622621	0.114443486667	0.456064923935	0.435546875	0.6435546875	0.48974609375	7.25	-7.125	0.75
18	12	13	19	54	15	-0.212778716467	0.112859393789	0.459494600563	0.34765625	0.7861328125	0.56396484375	21.0	-0.625	-3.5625
18	12	13	19	54	15	-0.213446678826	0.113895196651	0.459181974494	0.384765625	0.66357421875	0.52294921875	-0.6875	-2.125	4.625
18	12	13	19	54	15	-0.213442980442	0.113588043066	0.46076095492	0.369140625	0.72021484375	0.591796875	13.0625	-3.1875	-0.125
18	12	13	19	54	15	-0.213691720399	0.11389567274	0.460648790017	0.353515625	0.64111328125	0.52392578125	1.625	-1.5	1.1875
18	12	13	19	54	15	-0.213568632847	0.11383409553	0.461745272218	0.35595703125	0.82568359375	0.56005859375	4.25	-3.375	3.625
18	12	13	19	54	15	-0.214424043835	0.115299464504	0.459732962756	0.40576171875	0.5380859375	0.5498046875	-5.1875	-1.5	2.375
18	12	13	19	54	15	-0.215466839211	0.114935993834	0.462124487159	0.3798828125	0.74365234375	0.490234375	13.6875	1.3125	5.3125
18	12	13	19	54	15	-0.216689039438	0.115486102145	0.463653505231	0.466796875	0.76904296875	0.5068359375	7.6875	1.5	4.75
18	12	13	19	54	15	-0.217173696692	0.11560623427	0.462974280328	0.39111328125	0.65185546875	0.53125	-1.125	1.9375	1.0625
18	12	13	19	54	15	-0.217292123928	0.115115995991	0.463515839638	0.32275390625	0.73779296875	0.51416015625	2.4375	-0.25	2.75
18	12	13	19	54	15	-0.217842279268	0.115970952818	0.46449418471	0.4755859375	0.8359375	0.52490234375	1.625	-1.375	4.125
18	12	13	19	54	15	-0.217785372658	0.116766652997	0.462610801394	0.39599609375	0.609375	0.54541015625	-7.8125	-1.0625	-1.625
18	12	13	19	54	15	-0.217542324579	0.116217897306	0.464200162295	0.333984375	0.7529296875	0.52294921875	8.625	-2.4375	1.1875
18	12	13	19	54	15	-0.218026661694	0.116582005553	0.465473494423	0.45361328125	0.72314453125	0.50146484375	6.8125	0.5	0.0625
18	12	13	19	54	15	-0.218198892477	0.116332052884	0.465755454123	0.38232421875	0.71337890625	0.5400390625	3.3125	0.3125	0.5
18	12	13	19	54	15	-0.218152075885	0.116339635321	0.465785811717	0.37841796875	0.70263671875	0.5546875	2.5	-1.5625	-0.1875
18	12	13	19	54	15	-0.218215617788	0.116890323934	0.467378177735	0.42529296875	0.7470703125	0.52783203125	9.0	-3.9375	0.9375
18	12	13	19	54	15	-0.218638164409	0.117131947934	0.46803948763	0.39990234375	0.708984375	0.53564453125	5.8125	-1.5625	2.1875
18	12	13	19	54	15	-0.218515151752	0.116887294862	0.469929651771	0.37109375	0.78076171875	0.54931640625	11.75	-3.9375	1.4375
18	12	13	19	54	15	-0.219426816964	0.117190400159	0.470226480637	0.380859375	0.591796875	0.54345703125	9.25	-0.8125	2.1875
18	12	13	19	54	15	-0.219799707485	0.115973186399	0.474025139775	0.3466796875	0.74609375	0.5224609375	25.5625	-1.375	1.625
18	12	13	19	54	15	-0.221075827013	0.116336423602	0.475660938683	0.44873046875	0.70361328125	0.5205078125	13.5625	0.125	4.0
18	12	13	19	54	15	-0.221689311421	0.115788717997	0.476461113698	0.36376953125	0.626953125	0.53271484375	11.5	1.125	0.25
18	12	13	19	54	15	-0.221564503541	0.115054845503	0.478652572112	0.37109375	0.7646484375	0.53857421875	15.625	-2.25	-0.5625
18	12	13	19	54	15	-0.221867354581	0.116091254034	0.479135827638	0.47412109375	0.7880859375	0.47607421875	-0.8125	-1.5625	1.875
18	12	13	19	54	15	-0.221563297165	0.115969769866	0.477795451848	0.4033203125	0.70751953125	0.49462890625	-8.1875	2.4375	-3.125
18	12	13	19	54	15	-0.221869131281	0.115909072986	0.477125446829	0.4189453125	0.73876953125	0.501953125	-4.375	3.0625	0.375
18	12	13	19	54	15	-0.222540746937	0.116519551811	0.477309007418	0.47509765625	0.759765625	0.48388671875	-0.5	1.625	1.875
18	12	13	19	54	15	-0.222790978408	0.116644810887	0.47744411866	0.43115234375	0.763671875	0.4931640625	-0.75	1.1875	0.8125
18	12	13	19	54	15	-0.222721004319	0.116762203689	0.476753566659	0.39208984375	0.69677734375	0.46923828125	-5.25	1.375	-0.8125
18	12	13	19	54	16	-0.22205317265	0.11627578172	0.476944335098	0.35498046875	0.74755859375	0.4951171875	-0.1875	-1.0	-2.125
18	12	13	19	54	16	-0.221928996199	0.116762972973	0.476573597998	0.37060546875	0.642578125	0.45703125	-2.375	-1.6875	-0.375
18	12	13	19	54	16	-0.221742813415	0.116212033235	0.47821495819	0.38525390625	0.7646484375	0.50634765625	9.6875	-1.1875	-1.125
18	12	13	19	54	16	-0.222423412897	0.117864876593	0.479150326905	0.46240234375	0.72119140625	0.45703125	3.6875	-4.375	4.6875
18	12	13	19	54	16	-0.221808987254	0.117618579647	0.480484410475	0.38720703125	0.74267578125	0.537109375	9.75	-4.25	-2.9375
18	12	13	19	54	16	-0.221502059508	0.117617654635	0.482128621673	0.34814453125	0.72314453125	0.49755859375	10.5625	-5.5	0.6875
18	12	13	19	54	16	-0.221198023697	0.11822863463	0.483596010416	0.38720703125	0.80126953125	0.51953125	7.9375	-7.5	3.0625
18	12	13	19	54	16	-0.221263484437	0.119024495076	0.484399175859	0.42041015625	0.67822265625	0.49853515625	7.0625	-4.8125	-0.25
18	12	13	19	54	16	-0.22138564291	0.118475195172	0.485742196382	0.384765625	0.71630859375	0.53515625	12.5625	-1.0	-0.625
18	12	13	19	54	16	-0.222176034543	0.119022875648	0.486528893225	0.45654296875	0.7099609375	0.48486328125	7.0625	-0.25	2.0625
18	12	13	19	54	16	-0.222606000616	0.118841207349	0.486778956654	0.39404296875	0.72705078125	0.5107421875	3.9375	0.5	1.875
18	12	13	19	54	16	-0.223274178203	0.119449854222	0.486344628738	0.41064453125	0.6640625	0.44873046875	-1.5625	0.8125	2.5625
18	12	13	19	54	16	-0.223397938861	0.119450755834	0.487324902696	0.408203125	0.775390625	0.45947265625	3.9375	-0.75	1.375
18	12	13	19	54	16	-0.223952880009	0.120552449719	0.486238387069	0.421875	0.6630859375	0.451171875	-6.3125	-0.5625	3.3125
18	12	13	19	54	16	-0.224372019915	0.120975338268	0.486831129174	0.40478515625	0.71923828125	0.45849609375	3.1875	-1.5	3.0625
18	12	13	19	54	16	-0.224502251765	0.120796616706	0.488435839756	0.4443359375	0.74609375	0.46533203125	9.625	0.125	-1.5625
18	12	13	19	54	16	-0.224491871754	0.120546886002	0.489817093754	0.40087890625	0.76318359375	0.47802734375	8.25	-1.5625	0.375
18	12	13	19	54	16	-0.224678230305	0.120609666689	0.490007289565	0.36279296875	0.70263671875	0.517578125	4.9375	-3.0625	2.375
18	12	13	19	54	16	-0.224861373143	0.120975907049	0.491594326628	0.3720703125	0.69287109375	0.4970703125	13.1875	-5.875	2.75
18	12	13	19	54	16	-0.225050772546	0.120613053038	0.493927543108	0.39892578125	0.77490234375	0.494140625	15.8125	-2.875	1.625
18	12	13	19	54	16	-0.225777904428	0.121586803358	0.495746996421	0.4453125	0.81591796875	0.453125	8.9375	-4.5	7.1875
18	12	13	19	54	16	-0.226637291586	0.122627072124	0.494658931056	0.45263671875	0.6630859375	0.482421875	-3.0625	-0.1875	2.75
18	12	13	19	54	16	-0.226868725885	0.121826735772	0.496157081711	0.3837890625	0.71826171875	0.49951171875	13.5	0.0	-0.25
18	12	13	19	54	16	-0.227606529072	0.1217685775	0.496718137191	0.40478515625	0.75341796875	0.4921875	6.125	-0.25	4.4375
18	12	13	19	54	16	-0.227785870616	0.122376921378	0.495489200873	0.39697265625	0.65283203125	0.4453125	-6.5	-0.375	1.0
18	12	13	19	54	16	-0.226813803356	0.120304092146	0.497940529542	0.37646484375	0.81591796875	0.51025390625	16.75	0.5	-7.0
18	12	13	19	54	16	-0.228337331555	0.122194957972	0.497813225385	0.48828125	0.78759765625	0.37939453125	-6.125	-0.0625	10.8125
18	12	13	19	54	16	-0.228585227724	0.122563187522	0.494220183948	0.37451171875	0.5771484375	0.47216796875	-17.5625	3.625	-0.6875
18	12	13	19	54	16	-0.228463161774	0.121586593175	0.496356513904	0.33740234375	0.646484375	0.44873046875	16.9375	-1.4375	-2.25
18	12	13	19	54	16	-0.228646013451	0.120976080795	0.499163667379	0.3955078125	0.75390625	0.447265625	18.125	-1.75	0.4375
18	12	13	19	54	16	-0.228345229481	0.122077107447	0.498196675493	0.3564453125	0.6435546875	0.4267578125	-6.0	-5.5625	2.0625
18	12	13	19	54	16	-0.227126003581	0.121223392398	0.501374091215	0.43896484375	0.85302734375	0.51025390625	19.0625	-5.5625	-6.8125
18	12	13	19	54	16	-0.227736679636	0.12335991143	0.501679916894	0.513671875	0.8134765625	0.42431640625	-2.5	-5.1875	6.375
18	12	13	19	54	16	-0.227060099065	0.124394753197	0.498433540044	0.45849609375	0.69873046875	0.52294921875	-17.875	-1.875	-4.0625
18	12	13	19	54	16	-0.226994471892	0.122866327486	0.498667608324	0.453125	0.70703125	0.517578125	7.25	6.0	-8.3125
18	12	13	19	54	16	-0.227122138165	0.121953784481	0.498191586052	0.44580078125	0.859375	0.48388671875	-4.6875	6.0625	-0.4375
18	12	13	19	54	16	-0.226690699694	0.122561907643	0.493055323675	0.44970703125	0.71875	0.484375	-32.8125	5.1875	-3.3125
18	12	13	19	54	16	-0.226086648425	0.122077023987	0.490627559406	0.40478515625	0.71923828125	0.451171875	-16.75	5.75	-4.875
18	12	13	19	54	16	-0.226144014314	0.122258154027	0.488605353464	0.4404296875	0.77197265625	0.427734375	-16.75	5.0625	0.0625
18	12	13	19	54	16	-0.225770515671	0.123291819858	0.485110586254	0.3955078125	0.5927734375	0.396484375	-23.8125	1.8125	-2.125
18	12	13	19	54	16	-0.224495269009	0.120914934178	0.487932349228	0.365234375	0.7548828125	0.48876953125	18.1875	1.75	-10.875
18	12	13	19	54	16	-0.224978309391	0.121705574858	0.487859909648	0.36865234375	0.708984375	0.42919921875	-2.125	-2.4375	6.0625
18	12	13	19	54	16	-0.22498856	0.122626700228	0.487454867108	0.40576171875	0.671875	0.5166015625	0.6875	-5.1875	1.3125
18	12	13	19	54	16	-0.224985515977	0.12323541963	0.490133937411	0.4287109375	0.67919921875	0.4453125	17.0625	-6.25	-0.6875
18	12	13	19	54	16	-0.224250902504	0.122684897668	0.492997969385	0.3916015625	0.80908203125	0.49072265625	16.75	-5.375	-2.0
18	12	13	19	54	16	-0.224123856539	0.124330145907	0.493292213656	0.431640625	0.693359375	0.4697265625	1.6875	-8.4375	1.9375
18	12	13	19	54	16	-0.224067645048	0.123844525144	0.495256026129	0.42138671875	0.77783203125	0.509765625	14.5	-2.125	-1.1875
18	12	13	19	54	16	-0.224310843356	0.124759554781	0.496352592699	0.42626953125	0.7783203125	0.4609375	5.3125	-5.1875	4.625
18	12	13	19	54	16	-0.223698041897	0.124636125935	0.495858906512	0.369140625	0.67236328125	0.5380859375	2.4375	-4.125	-3.1875
18	12	13	19	54	16	-0.223525465592	0.124519920756	0.498140722201	0.38232421875	0.79150390625	0.50634765625	15.8125	-6.5	2.0
18	12	13	19	54	17	-0.223948575879	0.125921480523	0.498131460275	0.4365234375	0.73388671875	0.4736328125	0.4375	-5.5625	4.9375
18	12	13	19	54	17	-0.223390337517	0.125672323756	0.498905087122	0.412109375	0.71240234375	0.51318359375	8.4375	-3.8125	-4.25
18	12	13	19	54	17	-0.2237634468	0.1261644966	0.50099573686	0.4560546875	0.77099609375	0.42822265625	11.625	-2.8125	2.125
18	12	13	19	54	17	-0.223826626964	0.125738437837	0.501061570971	0.427734375	0.72705078125	0.498046875	4.1875	0.8125	-2.25
18	12	13	19	54	17	-0.224440854225	0.126106827531	0.501375353986	0.41748046875	0.69677734375	0.4453125	3.875	-0.5625	3.125
18	12	13	19	54	17	-0.224376175715	0.125982705842	0.502160717521	0.3984375	0.7353515625	0.49462890625	8.0	-2.8125	-0.1875
18	12	13	19	54	17	-0.224369783076	0.126101189292	0.502573665357	0.44677734375	0.77099609375	0.484375	3.875	-1.5625	-0.375
18	12	13	19	54	17	-0.225046310681	0.127324818031	0.501730586872	0.4541015625	0.7802734375	0.4453125	-7.0	-1.75	6.375
18	12	13	19	54	17	-0.224739601242	0.127690180825	0.501483042857	0.45361328125	0.79736328125	0.4658203125	-3.375	-1.625	-0.6875
18	12	13	19	54	17	-0.224675175554	0.127688255164	0.501231334324	0.41845703125	0.68896484375	0.43896484375	-0.3125	0.6875	-1.8125
18	12	13	19	54	17	-0.22418008325	0.126219551364	0.501765440893	0.37548828125	0.7587890625	0.5068359375	6.625	1.625	-4.5
18	12	13	19	54	17	-0.224193160714	0.125677570898	0.501916787516	0.4306640625	0.791015625	0.4892578125	2.3125	1.375	-0.875
18	12	13	19	54	17	-0.224308132065	0.126222916221	0.498238716204	0.3994140625	0.62451171875	0.478515625	-19.0625	2.75	-0.4375
18	12	13	19	54	17	-0.223341210972	0.124946558858	0.499542079966	0.44970703125	0.89404296875	0.458984375	3.375	2.5	-6.1875
18	12	13	19	54	17	-0.223948470751	0.125921421411	0.495994895971	0.5009765625	0.75927734375	0.41357421875	-26.1875	6.9375	2.0
18	12	13	19	54	17	-0.223277046365	0.125188961754	0.489585890896	0.3681640625	0.55859375	0.52099609375	-32.875	9.6875	-8.8125
18	12	13	19	54	17	-0.222726031397	0.123295857337	0.489704288819	0.36865234375	0.7333984375	0.4541015625	0.4375	6.8125	-6.625
18	12	13	19	54	17	-0.222604203432	0.122258354668	0.487934741495	0.38671875	0.79736328125	0.47265625	-12.875	7.3125	-0.8125
18	12	13	19	54	17	-0.222657546871	0.12402415988	0.483096075516	0.39501953125	0.6767578125	0.46630859375	-31.875	-0.4375	4.5
18	12	13	19	54	17	-0.222109742714	0.123353610889	0.480963114202	0.353515625	0.556640625	0.50830078125	-6.875	3.0	-7.0625
18	12	13	19	54	17	-0.221623061559	0.122255850262	0.485056036962	0.39404296875	0.87109375	0.4248046875	18.5625	-1.4375	-0.6875
18	12	13	19	54	17	-0.221869063089	0.123477610627	0.481764103152	0.4228515625	0.64501953125	0.4365234375	-21.5	2.0625	1.1875
18	12	13	19	54	17	-0.221259435738	0.122562468127	0.482803348052	0.37255859375	0.71728515625	0.50048828125	7.8125	-0.3125	-4.4375
18	12	13	19	54	17	-0.221931323232	0.122745844615	0.48329268904	0.3818359375	0.59716796875	0.46044921875	7.1875	-0.25	1.375
18	12	13	19	54	17	-0.221141679918	0.121893440463	0.485742613522	0.39013671875	0.794921875	0.50439453125	14.1875	-3.0	-3.8125
18	12	13	19	54	17	-0.221314189309	0.122742094512	0.485414160942	0.45654296875	0.6953125	0.41943359375	-4.75	0.4375	-0.5625
18	12	13	19	54	17	-0.220282363097	0.122073905845	0.485487923545	0.35205078125	0.7470703125	0.53466796875	1.75	-3.0	-4.125
18	12	13	19	54	17	-0.220656671142	0.124825143149	0.48593299003	0.48388671875	0.6826171875	0.43017578125	0.25	-9.3125	4.4375
18	12	13	19	54	17	-0.220716740792	0.124763555912	0.487395789608	0.4111328125	0.626953125	0.474609375	13.0625	-1.6875	-3.1875
18	12	13	19	54	17	-0.220105595482	0.123237159534	0.491910980031	0.37158203125	0.78369140625	0.45947265625	27.375	-2.75	-4.125
18	12	13	19	54	17	-0.220654047807	0.124640543741	0.492763520871	0.3935546875	0.7373046875	0.44775390625	4.125	-6.8125	7.8125
18	12	13	19	54	17	-0.219615419829	0.125189334649	0.494226251905	0.423828125	0.751953125	0.4912109375	8.375	-8.0	-4.0
18	12	13	19	54	17	-0.219434174147	0.125495594449	0.496061622612	0.412109375	0.74609375	0.44384765625	10.5625	-4.75	0.125
18	12	13	19	54	17	-0.219011446965	0.126169637926	0.496865434308	0.42724609375	0.78759765625	0.4833984375	3.75	-6.1875	0.375
18	12	13	19	54	17	-0.219060320713	0.127139216507	0.4973871701	0.44287109375	0.734375	0.470703125	3.6875	-5.0	1.5
18	12	13	19	54	17	-0.21887626914	0.126284160862	0.498910938079	0.416015625	0.80126953125	0.537109375	12.75	-1.25	-2.125
18	12	13	19	54	17	-0.219362990696	0.127809154846	0.498724261819	0.423828125	0.7119140625	0.42822265625	-1.9375	-4.625	5.6875
18	12	13	19	54	17	-0.217662198046	0.125189334883	0.498254773597	0.322265625	0.64453125	0.5673828125	5.75	2.5	-15.0625
18	12	13	19	54	17	-0.216503256403	0.124518365679	0.501552652343	0.349609375	0.90966796875	0.46435546875	15.625	-7.6875	0.25
18	12	13	19	54	17	-0.217356246276	0.128057681743	0.498680295444	0.5478515625	0.7802734375	0.45263671875	-21.375	-5.5	8.75
18	12	13	19	54	17	-0.216555614833	0.127259993497	0.495917240844	0.3916015625	0.537109375	0.509765625	-8.75	4.0625	-11.6875
18	12	13	19	54	17	-0.220656671142	0.124825143149	0.48593299003	0.48388671875	0.6826171875	0.43017578125	0.25	-9.3125	4.4375
18	12	13	19	54	17	-0.220716740792	0.124763555912	0.487395789608	0.4111328125	0.626953125	0.474609375	13.0625	-1.6875	-3.1875
18	12	13	19	54	17	-0.216803176414	0.125614002551	0.499160015967	0.4228515625	0.830078125	0.455078125	19.9375	3.5625	-2.0
18	12	13	19	54	17	-0.217049121701	0.125126743388	0.49702783971	0.38330078125	0.7119140625	0.4677734375	-11.4375	5.5625	0.125
18	12	13	19	54	17	-0.21662842118	0.125924044208	0.49563899126	0.3896484375	0.7705078125	0.47509765625	-10.3125	-4.0625	2.1875
18	12	13	19	54	17	-0.217353377652	0.12659109948	0.494584223284	0.4658203125	0.70556640625	0.455078125	-5.5625	2.5625	1.625
18	12	13	19	54	17	-0.216680995593	0.127384010649	0.494887186555	0.3857421875	0.76904296875	0.3984375	-4.1875	-5.0	1.0
18	12	13	19	54	17	-0.215828516514	0.126225501174	0.49348799661	0.3583984375	0.63720703125	0.51708984375	-2.8125	2.375	-8.125
18	12	13	19	54	17	-0.21576864263	0.125676841634	0.497336039647	0.38232421875	0.88427734375	0.43310546875	19.125	-4.125	3.625
18	12	13	19	54	17	-0.216554330895	0.127442345803	0.495059802111	0.4814453125	0.71337890625	0.5078125	-11.4375	-1.8125	4.5
18	12	13	19	54	17	-0.216381705198	0.127326442043	0.496121438603	0.38330078125	0.71435546875	0.45556640625	7.4375	-2.625	-0.5625
18	12	13	19	54	18	-0.216320428881	0.127692533075	0.498806587137	0.43896484375	0.875	0.45947265625	12.9375	-5.6875	3.25
18	12	13	19	54	18	-0.216011816856	0.127934661806	0.497272752734	0.43115234375	0.62548828125	0.4677734375	-6.125	0.8125	-5.5
18	12	13	19	54	18	-0.215394514355	0.127137085124	0.499820254477	0.36376953125	0.884765625	0.48828125	13.6875	-4.6875	1.125
18	12	13	19	54	18	-0.21631024367	0.128846197626	0.497562388937	0.46923828125	0.68701171875	0.4638671875	-12.375	-0.5625	5.25
18	12	13	19	54	18	-0.216319249793	0.128607409513	0.49807141036	0.44970703125	0.74609375	0.4765625	4.6875	0.75	-2.5
18	12	13	19	54	18	-0.216376142807	0.128177686853	0.498183942903	0.39697265625	0.7373046875	0.4541015625	1.3125	1.3125	-0.625
18	12	13	19	54	18	-0.215710493177	0.127997992131	0.498075162513	0.359375	0.78271484375	0.47509765625	-1.75	-2.8125	0.0625
18	12	13	19	54	18	-0.215771697002	0.129463018201	0.498380737205	0.46728515625	0.76708984375	0.42822265625	-1.1875	-5.1875	2.75
18	12	13	19	54	18	-0.215459562457	0.129275737474	0.498608828813	0.4296875	0.73681640625	0.46142578125	1.875	0.0	-3.4375
18	12	13	19	54	18	-0.21570983939	0.129889795761	0.499721690742	0.451171875	0.75537109375	0.4033203125	4.0625	-1.5625	1.625
18	12	13	19	54	18	-0.21564685625	0.12933928344	0.500510676832	0.44677734375	0.771484375	0.4873046875	6.5	1.0	-3.1875
18	12	13	19	54	18	-0.215648668786	0.129584524153	0.500636960482	0.39697265625	0.7451171875	0.47119140625	1.8125	-2.4375	1.8125
18	12	13	19	54	18	-0.215709717634	0.130744260094	0.499904523889	0.4033203125	0.76953125	0.48828125	-4.3125	-6.3125	5.3125
18	12	13	19	54	18	-0.215275538866	0.131228355135	0.499705369066	0.38916015625	0.724609375	0.48486328125	0.4375	-4.9375	0.125
18	12	13	19	54	18	-0.215457404457	0.131654850259	0.500129737145	0.4248046875	0.7900390625	0.4619140625	1.6875	-2.625	3.4375
18	12	13	19	54	18	-0.2155772958	0.131897660312	0.500735032486	0.4638671875	0.83056640625	0.4775390625	2.8125	-1.3125	1.25
18	12	13	19	54	18	-0.216198123131	0.132087165007	0.500148904837	0.46826171875	0.7685546875	0.4814453125	-2.1875	2.1875	2.0
18	12	13	19	54	18	-0.216621047369	0.131168957677	0.499223315422	0.4599609375	0.74755859375	0.4580078125	-4.4375	8.375	-2.8125
18	12	13	19	54	18	-0.215768446084	0.129094841151	0.496358982619	0.36181640625	0.6962890625	0.49658203125	-14.3125	9.8125	-9.375
18	12	13	19	54	18	-0.214724170621	0.12805324331	0.493535998762	0.38916015625	0.82958984375	0.48974609375	-20.6875	5.3125	-4.75
18	12	13	19	54	18	-0.214607111368	0.128971793607	0.487077573584	0.41015625	0.7236328125	0.494140625	-41.1875	5.5625	1.9375
18	12	13	19	54	18	-0.215100060467	0.13019535442	0.481960861931	0.43701171875	0.6962890625	0.505859375	-30.75	3.75	3.9375
18	12	13	19	54	18	-0.215217266177	0.130680705299	0.479142240355	0.4658203125	0.630859375	0.45556640625	-16.75	5.5	-3.375
18	12	13	19	54	18	-0.214549450011	0.128729670007	0.479516494819	0.37353515625	0.701171875	0.44140625	1.0	7.5	-8.125
18	12	13	19	54	18	-0.213634080014	0.127203835071	0.478723454157	0.3505859375	0.75927734375	0.47900390625	-6.75	4.9375	-5.5
18	12	13	19	54	18	-0.213082131344	0.128423031895	0.477802040721	0.416015625	0.74609375	0.4794921875	-9.25	-4.875	0.9375
18	12	13	19	54	18	-0.212894184033	0.12982394766	0.47657046701	0.4248046875	0.5791015625	0.466796875	-5.5625	-4.125	-2.25
18	12	13	19	54	18	-0.212293547169	0.128670154523	0.478911780071	0.34619140625	0.72314453125	0.48486328125	14.75	-1.625	-3.625
18	12	13	19	54	18	-0.212531885872	0.129399080428	0.479936306322	0.40673828125	0.68408203125	0.4423828125	5.25	-3.4375	2.3125
18	12	13	19	54	18	-0.211858061919	0.128543093749	0.481334680581	0.3515625	0.736328125	0.53125	10.875	-2.9375	-3.0625
18	12	13	19	54	18	-0.212770359517	0.130433235309	0.481937681797	0.4306640625	0.736328125	0.43115234375	0.4375	-5.6875	9.3125
18	12	13	19	54	18	-0.212530137998	0.130801862645	0.484143898507	0.45947265625	0.74560546875	0.49658203125	13.9375	-4.9375	-2.5
18	12	13	19	54	18	-0.212226079486	0.13025322221	0.485367208534	0.3486328125	0.65625	0.49609375	11.125	-2.875	-2.25
18	12	13	19	54	18	-0.211862900312	0.130865473428	0.489219575339	0.41455078125	0.9208984375	0.48193359375	17.9375	-10.375	5.25
18	12	13	19	54	18	-0.211803173014	0.131476667052	0.487818720094	0.4072265625	0.56591796875	0.521484375	-1.0625	-2.6875	-3.25
18	12	13	19	54	18	-0.211674709609	0.130740261817	0.491344121209	0.39306640625	0.818359375	0.4541015625	19.5	-2.875	0.1875
18	12	13	19	54	18	-0.21125267929	0.130438305589	0.492088731706	0.40966796875	0.81103515625	0.49365234375	3.75	-1.6875	-0.75
18	12	13	19	54	18	-0.211124285531	0.131594090663	0.49042602898	0.404296875	0.685546875	0.5087890625	-7.875	-4.9375	1.625
18	12	13	19	54	18	-0.213634080014	0.127203835071	0.478723454157	0.3505859375	0.75927734375	0.47900390625	-6.75	4.9375	-5.5
18	12	13	19	54	18	-0.213082131344	0.128423031895	0.477802040721	0.416015625	0.74609375	0.4794921875	-9.25	-4.875	0.9375
18	12	13	19	54	18	-0.212226079486	0.13025322221	0.485367208534	0.3486328125	0.65625	0.49609375	11.125	-2.875	-2.25
18	12	13	19	54	18	-0.211862900312	0.130865473428	0.489219575339	0.41455078125	0.9208984375	0.48193359375	17.9375	-10.375	5.25
18	12	13	19	54	18	-0.211803173014	0.131476667052	0.487818720094	0.4072265625	0.56591796875	0.521484375	-1.0625	-2.6875	-3.25
18	12	13	19	54	18	-0.211674709609	0.130740261817	0.491344121209	0.39306640625	0.818359375	0.4541015625	19.5	-2.875	0.1875
18	12	13	19	54	18	-0.21125267929	0.130438305589	0.492088731706	0.40966796875	0.81103515625	0.49365234375	3.75	-1.6875	-0.75
18	12	13	19	54	18	-0.211124285531	0.131594090663	0.49042602898	0.404296875	0.685546875	0.5087890625	-7.875	-4.9375	1.625
18	12	13	19	54	18	-0.211190380761	0.13263488364	0.49153645557	0.46142578125	0.77392578125	0.46923828125	5.375	-5.0	1.875
18	12	13	19	54	18	-0.210576745834	0.131717280437	0.492688548513	0.39453125	0.7685546875	0.5224609375	5.1875	0.125	-2.25
18	12	13	19	54	18	-0.211426394023	0.132934955595	0.491822714502	0.42724609375	0.671875	0.4462890625	-4.0625	-1.3125	5.3125
18	12	13	19	54	18	-0.211243855415	0.13299634815	0.493533029437	0.4443359375	0.86669921875	0.47998046875	7.375	-3.25	1.5
18	12	13	19	54	18	-0.21142779838	0.133179981543	0.491642874119	0.43017578125	0.6083984375	0.462890625	-7.8125	3.25	-3.0625
18	12	13	19	54	18	-0.21106022173	0.133118086638	0.492860407887	0.330078125	0.8310546875	0.47509765625	5.0	-5.9375	4.9375
18	12	13	19	54	18	-0.210703032681	0.134039356827	0.492393211078	0.47509765625	0.74072265625	0.49072265625	-2.9375	-3.625	-2.125
18	12	13	19	54	18	-0.211124552164	0.135073325799	0.493722608399	0.4404296875	0.7607421875	0.42041015625	5.5625	-4.125	4.5
18	12	13	19	54	18	-0.21069932443	0.13501358796	0.494215651769	0.46337890625	0.77685546875	0.48876953125	3.0625	-1.125	-3.625
18	12	13	19	54	18	-0.210517402361	0.134587089651	0.49440155382	0.41943359375	0.65966796875	0.4541015625	3.75	1.3125	-4.875
18	12	13	19	54	18	-0.210400204714	0.133430475052	0.495450670631	0.40625	0.8310546875	0.49951171875	6.75	2.0625	-1.0
18	12	13	19	54	19	-0.210520905095	0.134650367248	0.493433168103	0.4326171875	0.67529296875	0.439453125	-13.0	-1.0625	1.875
18	12	13	19	54	19	-0.209968364555	0.134526242872	0.494341216433	0.44580078125	0.818359375	0.4912109375	4.3125	-2.625	-2.625
18	12	13	19	54	19	-0.209962923055	0.135072078117	0.492375261711	0.41064453125	0.58837890625	0.41943359375	-10.375	1.6875	-2.3125
18	12	13	19	54	19	-0.209302518194	0.134102546653	0.494598514123	0.38671875	0.87109375	0.4736328125	10.6875	-2.125	-0.875
18	12	13	19	54	19	-0.209850870212	0.135017488339	0.492887078815	0.447265625	0.66748046875	0.470703125	-8.0	0.4375	1.875
18	12	13	19	54	19	-0.210516963159	0.136051699299	0.49317978032	0.4384765625	0.744140625	0.4462890625	0.875	-2.5625	5.375
18	12	13	19	54	19	-0.210147330223	0.134889805342	0.493782138107	0.4228515625	0.64697265625	0.46044921875	7.3125	3.75	-8.6875
18	12	13	19	54	19	-0.209172079515	0.133486821681	0.495799475315	0.35107421875	0.80419921875	0.4560546875	10.5625	-1.25	-3.6875
18	12	13	19	54	19	-0.208872491572	0.133856625955	0.494042649556	0.41943359375	0.7490234375	0.5078125	-9.875	-1.125	-0.625
18	12	13	19	54	19	-0.209120636307	0.135629321038	0.493014413151	0.44677734375	0.712890625	0.42919921875	-8.3125	-4.375	4.5
18	12	13	19	54	19	-0.209046113375	0.135010219792	0.493409862928	0.4365234375	0.72900390625	0.4716796875	3.8125	2.375	-3.8125
18	12	13	19	54	19	-0.208929870866	0.134586726632	0.492813256609	0.384765625	0.64697265625	0.41455078125	-2.9375	3.1875	-2.9375
18	12	13	19	54	19	-0.207954595287	0.132939568106	0.494281277557	0.36279296875	0.86328125	0.509765625	7.75	0.0	-3.625
18	12	13	19	54	19	-0.208140753603	0.13452851054	0.492823590788	0.4306640625	0.6943359375	0.4462890625	-9.6875	-4.0625	3.5
18	12	13	19	54	19	-0.207466520603	0.135198100364	0.492633800467	0.4677734375	0.775390625	0.48046875	-2.9375	-3.5	-3.375
18	12	13	19	54	19	-0.205695080034	0.13415958039	0.492325375535	0.4296875	0.7626953125	0.46142578125	-4.625	1.625	-12.1875
18	12	13	19	54	19	-0.203555999739	0.132998058	0.491891394872	0.3564453125	0.81689453125	0.455078125	-8.1875	-0.625	-9.3125
18	12	13	19	54	19	-0.202344551202	0.132454804256	0.489350306783	0.40380859375	0.7041015625	0.50830078125	-14.4375	2.0625	-8.625
18	12	13	19	54	19	-0.202464324127	0.132514334543	0.488673312921	0.42578125	0.7255859375	0.45947265625	-4.375	2.125	-0.75
18	12	13	19	54	19	-0.202343684235	0.132271120283	0.486784579721	0.40771484375	0.650390625	0.49560546875	-8.1875	3.5625	-3.875
18	12	13	19	54	19	-0.201121268343	0.131354467215	0.487024764828	0.3994140625	0.77001953125	0.4697265625	-0.75	0.8125	-7.9375
18	12	13	19	54	19	-0.200324254175	0.131169050037	0.485001987712	0.380859375	0.7373046875	0.47998046875	-14.125	1.25	-3.375
18	12	13	19	54	19	-0.200575274651	0.133431999509	0.481783518814	0.42529296875	0.66064453125	0.4052734375	-23.5	-2.4375	5.0
18	12	13	19	54	19	-0.20032242311	0.133182061922	0.481701573183	0.4375	0.67822265625	0.47021484375	0.5625	2.4375	-5.6875
18	12	13	19	54	19	-0.200257362988	0.132202818723	0.482241214558	0.3740234375	0.6767578125	0.4541015625	4.375	3.5625	-3.25
18	12	13	19	54	19	-0.200513840108	0.132760305094	0.482637118336	0.3935546875	0.79248046875	0.47705078125	0.1875	-2.8125	5.0
18	12	13	19	54	19	-0.200633824387	0.133369305228	0.482754157917	0.455078125	0.73193359375	0.4931640625	1.125	-1.375	-0.625
18	12	13	19	54	19	-0.200074513361	0.133789912535	0.482730117808	0.39990234375	0.7763671875	0.47705078125	-3.0625	-3.875	-0.125
18	12	13	19	54	19	-0.199346757684	0.13422030623	0.48084928262	0.38720703125	0.7001953125	0.533203125	-9.5625	-3.0	-2.125
18	12	13	19	54	19	-0.19941524521	0.134896752958	0.481965955366	0.41845703125	0.72314453125	0.4736328125	6.6875	-4.0	1.0
18	12	13	19	54	19	-0.199228230129	0.134161657421	0.482383793722	0.41845703125	0.74462890625	0.54248046875	5.6875	1.0625	-3.625
18	12	13	19	54	19	-0.19916625267	0.134344137948	0.481832178539	0.38916015625	0.69287109375	0.458984375	-3.625	-0.25	-0.125
18	12	13	19	54	19	-0.198864377468	0.133247678334	0.481596052249	0.36474609375	0.76806640625	0.564453125	1.8125	1.4375	-1.9375
18	12	13	19	54	19	-0.199168965164	0.134345967614	0.480312775627	0.4814453125	0.69677734375	0.43310546875	-10.125	1.75	-0.1875
18	12	13	19	54	19	-0.198367749881	0.133547272843	0.479744773559	0.39501953125	0.7978515625	0.49755859375	-6.0625	2.0625	-3.75
18	12	13	19	54	19	-0.197769144985	0.133311053286	0.478247299679	0.35888671875	0.6494140625	0.466796875	-8.625	1.1875	-3.875
18	12	13	19	54	19	-0.197819447077	0.132998634737	0.47968621863	0.3828125	0.7578125	0.44482421875	6.1875	-0.0625	0.6875
18	12	13	19	54	19	-0.197697593834	0.132510489723	0.479869861909	0.3759765625	0.705078125	0.474609375	1.75	1.375	-1.6875
18	12	13	19	54	19	-0.197949739264	0.133065196298	0.479767175644	0.37255859375	0.708984375	0.48779296875	0.0	-3.0	3.6875
18	12	13	19	54	19	-0.198123089771	0.134218322368	0.480842175358	0.43896484375	0.716796875	0.48046875	6.5625	-5.5625	1.75
18	12	13	19	54	19	-0.197947756484	0.135017094463	0.482875331961	0.4052734375	0.72021484375	0.44873046875	11.0	-6.625	0.5625
18	12	13	19	54	19	-0.197578045344	0.134770566611	0.484820022913	0.36572265625	0.7119140625	0.49658203125	14.25	-4.8125	-1.1875
18	12	13	19	54	19	-0.198071129641	0.135689405606	0.486968096234	0.40185546875	0.70068359375	0.43115234375	12.875	-5.4375	3.875
18	12	13	19	54	19	-0.198255941459	0.135507447672	0.489657993344	0.40283203125	0.78173828125	0.4775390625	16.6875	-3.5	1.6875
18	12	13	19	54	19	-0.198247174844	0.135562492404	0.490857075153	0.4091796875	0.69970703125	0.46923828125	9.3125	-2.3125	-1.5
18	12	13	19	54	19	-0.198436684526	0.136726598997	0.491971601747	0.412109375	0.77734375	0.49609375	7.125	-8.0	5.3125
18	12	13	19	54	19	-0.198986635943	0.138436101325	0.493132831835	0.50537109375	0.7265625	0.47119140625	8.5	-6.0	1.875
18	12	13	19	54	19	-0.198553916504	0.137944005933	0.49513352926	0.40771484375	0.7470703125	0.47216796875	13.3125	-2.6875	-3.375
18	12	13	19	54	19	-0.198376194644	0.138313986788	0.495269059489	0.408203125	0.759765625	0.458984375	0.125	-2.5625	0.875
18	12	13	19	54	20	-0.198311842433	0.137823373411	0.49648154089	0.45556640625	0.806640625	0.4951171875	8.5625	0.3125	-2.6875
18	12	13	19	54	20	-0.19854980305	0.137941148138	0.495062235642	0.3974609375	0.70947265625	0.46337890625	-7.5625	1.3125	1.5625
18	12	13	19	54	20	-0.198003075287	0.137515699329	0.494763541393	0.3984375	0.7763671875	0.49560546875	-1.3125	-0.25	-2.625
18	12	13	19	54	20	-0.198013166092	0.137522707523	0.494788755961	0.44091796875	0.779296875	0.46484375	0.5	-0.8125	-0.3125
18	12	13	19	54	20	-0.198132181798	0.137947853008	0.492888899574	0.400390625	0.68310546875	0.44677734375	-11.125	1.1875	1.0
18	12	13	19	54	20	-0.197763493872	0.137824064556	0.494225620333	0.416015625	0.7734375	0.4345703125	5.75	-1.5625	-2.0625
18	12	13	19	54	20	-0.197948356069	0.137581126913	0.494413100265	0.4365234375	0.69775390625	0.4267578125	1.8125	3.1875	-2.6875
18	12	13	19	54	20	-0.197755649283	0.136842026448	0.494144980431	0.38134765625	0.7529296875	0.44091796875	-2.8125	3.125	-1.3125
18	12	13	19	54	20	-0.197577470093	0.137028551238	0.493302784458	0.4052734375	0.72607421875	0.478515625	-4.25	-0.9375	-0.625
18	12	13	19	54	20	-0.197942296313	0.137760025525	0.492444787743	0.4033203125	0.7158203125	0.474609375	-3.875	-1.875	3.6875
18	12	13	19	54	20	-0.198307074544	0.138979750303	0.492380169388	0.46142578125	0.67919921875	0.40625	-1.4375	-1.8125	0.9375
18	12	13	19	54	20	-0.197395713433	0.137884018752	0.494160697574	0.35888671875	0.759765625	0.4404296875	9.3125	-0.75	-4.8125
18	12	13	19	54	20	-0.197458957301	0.137458291141	0.494959717079	0.42138671875	0.72900390625	0.43115234375	4.875	1.9375	-2.1875
18	12	13	19	54	20	-0.198244309272	0.1380630011	0.494329021181	0.42138671875	0.75634765625	0.453125	-4.125	0.5625	5.5625
18	12	13	19	54	20	-0.198194819732	0.138376241556	0.493869506146	0.42724609375	0.78125	0.494140625	-2.5625	-1.6875	1.1875
18	12	13	19	54	20	-0.198192890968	0.139595670355	0.493437428576	0.3984375	0.69677734375	0.44873046875	-2.4375	-5.375	3.0625
18	12	13	19	54	20	-0.197334660726	0.139043723209	0.493550283524	0.37158203125	0.681640625	0.4853515625	3.25	-2.0	-5.8125
18	12	13	19	54	20	-0.196972420827	0.138497187127	0.495879748002	0.3623046875	0.78515625	0.455078125	13.625	-3.8125	-0.0625
18	12	13	19	54	20	-0.19733401891	0.140569206789	0.49641743761	0.482421875	0.79345703125	0.43798828125	0.25	-7.3125	5.9375
18	12	13	19	54	20	-0.197334123673	0.140203056628	0.496417701155	0.4375	0.7392578125	0.4951171875	2.75	0.875	-2.625
18	12	13	19	54	20	-0.198008965367	0.140815870254	0.496975646123	0.431640625	0.7802734375	0.41943359375	1.375	-0.625	5.5
18	12	13	19	54	20	-0.197702072004	0.140265316908	0.495933724926	0.40576171875	0.75927734375	0.5185546875	-3.8125	1.25	-2.3125
18	12	13	19	54	20	-0.197457263814	0.140814190918	0.494955472108	0.3876953125	0.77978515625	0.46484375	-7.6875	-2.75	3.1875
18	12	13	19	54	20	-0.197517888783	0.142095687604	0.493123307626	0.44873046875	0.775390625	0.478515625	-12.5625	-2.9375	3.875
18	12	13	19	54	20	-0.197697894333	0.142947968055	0.49189482261	0.4453125	0.69873046875	0.42919921875	-8.625	0.0625	0.625
18	12	13	19	54	20	-0.197574597223	0.142275683079	0.491525558059	0.39111328125	0.7578125	0.47998046875	-1.3125	2.0	-0.625
18	12	13	19	54	20	-0.198072138443	0.143625190064	0.490449809674	0.4501953125	0.70751953125	0.43603515625	-7.5625	-1.875	4.375
18	12	13	19	54	20	-0.197880381154	0.143679955964	0.491404981082	0.45654296875	0.7724609375	0.47509765625	5.5	-1.5625	-1.75
18	12	13	19	54	20	-0.197638153145	0.143803424586	0.491348713038	0.4111328125	0.70947265625	0.45361328125	-0.3125	-1.25	-1.3125
18	12	13	19	54	20	-0.197390667202	0.144045137475	0.491401441447	0.431640625	0.73974609375	0.47412109375	0.6875	-1.875	-1.3125
18	12	13	19	54	20	-0.197151837597	0.143987982938	0.491475726418	0.41015625	0.7333984375	0.49169921875	2.0	-1.9375	-1.0
18	12	13	19	54	20	-0.19721641758	0.143990569195	0.4914235153	0.42626953125	0.72607421875	0.47314453125	0.8125	-0.75	0.25
18	12	13	19	54	20	-0.197208404963	0.143557464708	0.491403549475	0.4208984375	0.66796875	0.44921875	1.875	2.5625	-3.5
18	12	13	19	54	20	-0.1966617393	0.142582812851	0.492508868532	0.3740234375	0.81884765625	0.46435546875	4.625	0.1875	-1.1875
18	12	13	19	54	20	-0.196417123786	0.143314918163	0.491775253681	0.4619140625	0.7119140625	0.46142578125	-4.6875	-1.875	-2.1875
18	12	13	19	54	20	-0.196051190549	0.143070980899	0.492508423579	0.419921875	0.7353515625	0.4619140625	5.0625	-0.9375	-3.1875
18	12	13	19	54	20	-0.196230886007	0.143129526496	0.492133634175	0.41455078125	0.705078125	0.4453125	-1.8125	1.125	0.25
18	12	13	19	54	20	-0.196113900436	0.143499464652	0.493794414731	0.44677734375	0.8212890625	0.447265625	7.0	-3.9375	1.0625
18	12	13	19	54	20	-0.196121230997	0.142589229881	0.49234791448	0.39404296875	0.60009765625	0.49462890625	-2.0625	5.0625	-5.4375
18	12	13	19	54	20	-0.195863242143	0.142029842464	0.4945714712	0.408203125	0.90625	0.4560546875	8.9375	-1.6875	1.875
18	12	13	19	54	20	-0.195195528964	0.14264288655	0.491528953954	0.4189453125	0.701171875	0.51513671875	-16.5	-1.5	-2.3125
18	12	13	19	54	20	-0.194411155564	0.142283329237	0.490941577457	0.3994140625	0.7626953125	0.4931640625	-4.0625	-1.0625	-3.5
18	12	13	19	54	20	-0.194036535147	0.142460293499	0.490371035977	0.4443359375	0.83349609375	0.4521484375	-8.1875	0.3125	-0.1875
18	12	13	19	54	20	-0.192385563901	0.141603587643	0.489203773687	0.38818359375	0.759765625	0.46533203125	-10.0	1.0625	-8.875
18	12	13	19	54	20	-0.190802215365	0.139836172553	0.488419490516	0.3759765625	0.7998046875	0.46484375	-8.125	4.75	-9.8125
18	12	13	19	54	20	-0.189521271694	0.139531602928	0.48689571153	0.39501953125	0.79443359375	0.44140625	-15.1875	1.25	-4.9375
18	12	13	19	54	20	-0.188363260231	0.139288710255	0.485923497958	0.39306640625	0.7802734375	0.509765625	-7.125	-2.0625	-4.8125
18	12	13	19	54	20	-0.188061873412	0.139657762534	0.484102148013	0.3828125	0.58984375	0.43896484375	-9.1875	0.8125	-3.4375
18	12	13	19	54	20	-0.187022006323	0.138679503383	0.485439300355	0.36962890625	0.880859375	0.4892578125	3.625	-1.6875	-2.4375
18	12	13	19	54	20	-0.187872281084	0.140629543736	0.482986796693	0.48486328125	0.595703125	0.44775390625	-12.5	0.125	1.8125
18	12	13	19	54	20	-0.18775116266	0.139287436017	0.482561993494	0.3173828125	0.59375	0.4736328125	2.5625	3.9375	-4.125
18	12	13	19	54	21	-0.187871264103	0.138919752144	0.484021807777	0.37548828125	0.78857421875	0.4150390625	4.625	0.9375	2.125
18	12	13	19	54	21	-0.18805956647	0.139961241777	0.483607901701	0.42724609375	0.77490234375	0.48486328125	-3.875	-3.625	4.0625
18	12	13	19	54	21	-0.187937613089	0.141487296895	0.482143295157	0.40185546875	0.58740234375	0.45751953125	-6.5625	-5.125	0.0625
18	12	13	19	54	21	-0.18726705588	0.141060679967	0.485075388877	0.388671875	0.8447265625	0.4755859375	14.5	-4.625	-1.375
18	12	13	19	54	21	-0.187388385414	0.142891273699	0.485134490969	0.44287109375	0.7138671875	0.47265625	0.4375	-7.8125	3.375
18	12	13	19	54	21	-0.187325142141	0.14240128922	0.486166424619	0.35986328125	0.69384765625	0.53759765625	11.9375	-3.25	-0.8125
18	12	13	19	54	21	-0.187443112324	0.142825425867	0.487925835205	0.42333984375	0.806640625	0.47412109375	9.375	-4.125	2.875
18	12	13	19	54	21	-0.187572645106	0.143075262001	0.487640046128	0.41796875	0.73486328125	0.54638671875	2.4375	-2.4375	0.75
18	12	13	19	54	21	-0.187014789412	0.14251942992	0.487556833492	0.36328125	0.7099609375	0.5	2.0	-1.1875	-3.25
18	12	13	19	54	21	-0.186776945893	0.142341123471	0.487756396938	0.41015625	0.8515625	0.4873046875	-1.75	-0.75	1.375
18	12	13	19	54	21	-0.186838551431	0.142646747695	0.485316341858	0.40185546875	0.6357421875	0.52734375	-9.3125	0.8125	-0.9375
18	12	13	19	54	21	-0.187020337887	0.142523658279	0.486350539257	0.42724609375	0.70849609375	0.4052734375	4.375	2.25	-1.6875
18	12	13	19	54	21	-0.186771935496	0.140078951622	0.486766727314	0.35546875	0.8310546875	0.48974609375	1.75	8.5	-3.5625
18	12	13	19	54	21	-0.18787546582	0.141242309261	0.48299498409	0.39990234375	0.61376953125	0.44140625	-21.125	3.6875	6.5
18	12	13	19	54	21	-0.187806750665	0.141602749933	0.483402491151	0.421875	0.767578125	0.47119140625	0.9375	-1.875	0.6875
18	12	13	19	54	21	-0.187508521484	0.141852149716	0.483603520741	0.4091796875	0.74560546875	0.4375	-1.5	-1.1875	-0.8125
18	12	13	19	54	21	-0.187330816691	0.142771841069	0.483678524425	0.43701171875	0.72412109375	0.4521484375	-1.25	-3.4375	0.0625
18	12	13	19	54	21	-0.186651110167	0.142399293662	0.484328502019	0.39990234375	0.7431640625	0.47216796875	2.9375	-1.375	-4.3125
18	12	13	19	54	21	-0.186656738757	0.142281510151	0.48495349556	0.4140625	0.82275390625	0.48193359375	1.9375	-0.3125	1.625
18	12	13	19	54	21	-0.186840592783	0.143014540638	0.4839177457	0.45947265625	0.744140625	0.509765625	-5.375	-1.0625	0.6875
18	12	13	19	54	21	-0.18634794791	0.142278764028	0.482441591969	0.3740234375	0.6953125	0.5263671875	-5.5	2.25	-3.8125
18	12	13	19	54	21	-0.185918573493	0.142033000827	0.481520560174	0.41845703125	0.8076171875	0.46826171875	-9.625	2.25	-1.4375
18	12	13	19	54	21	-0.185616252637	0.142950760827	0.47908647384	0.4423828125	0.75341796875	0.4765625	-17.8125	-0.0625	0.3125
18	12	13	19	54	21	-0.18537492335	0.142708781953	0.477934030238	0.39599609375	0.75927734375	0.49755859375	-8.0	1.625	-0.3125
18	12	13	19	54	21	-0.186164430952	0.142949867964	0.474871892723	0.33251953125	0.49462890625	0.4482421875	-12.5625	4.0625	2.125
18	12	13	19	54	21	-0.185794455238	0.140871748584	0.476754431624	0.3232421875	0.81298828125	0.4990234375	10.1875	3.5625	-1.75
18	12	13	19	54	21	-0.185797105244	0.141606203734	0.474991154077	0.3896484375	0.63330078125	0.4267578125	-11.8125	0.5	0.375
18	12	13	19	54	21	-0.185065774582	0.14136290697	0.47413949108	0.3115234375	0.7138671875	0.52490234375	-4.1875	-3.75	0.125
18	12	13	19	54	21	-0.184939166966	0.142336018932	0.475897915786	0.47119140625	0.7607421875	0.46630859375	8.25	-4.5	-0.75
18	12	13	19	54	21	-0.185251324502	0.143379031715	0.475732725921	0.4384765625	0.6962890625	0.4951171875	0.0	-3.5	1.9375
18	12	13	19	54	21	-0.185125702727	0.142949025976	0.476700210451	0.37451171875	0.7197265625	0.46875	5.625	-0.125	-0.8125
18	12	13	19	54	21	-0.185309076201	0.142888190839	0.478593039029	0.44580078125	0.85888671875	0.47119140625	7.25	-0.1875	2.0
18	12	13	19	54	21	-0.185434005966	0.142890391036	0.476464071947	0.4169921875	0.677734375	0.5322265625	-9.375	2.4375	-1.3125
18	12	13	19	54	21	-0.185009554413	0.142953604894	0.476044049774	0.36865234375	0.7626953125	0.4931640625	-4.3125	-2.0	1.125
18	12	13	19	54	21	-0.184762950421	0.143562094281	0.475976705445	0.42626953125	0.80322265625	0.51220703125	-2.5625	-3.625	1.5
18	12	13	19	54	21	-0.184579815218	0.1436841551	0.474267580768	0.38916015625	0.59716796875	0.49609375	-6.3125	0.875	-3.0
18	12	13	19	54	21	-0.184514798735	0.143681057302	0.475417058336	0.39306640625	0.82763671875	0.44287109375	1.1875	-0.9375	2.5625
18	12	13	19	54	21	-0.184514824513	0.143131744454	0.474928828825	0.43212890625	0.734375	0.51171875	-2.125	4.0	-2.5625
18	12	13	19	54	21	-0.184759136988	0.143681205308	0.473464362607	0.400390625	0.72705078125	0.45751953125	-11.1875	0.6875	3.25
18	12	13	19	54	21	-0.184636240898	0.144474043704	0.472729813473	0.4326171875	0.77783203125	0.50390625	-6.875	-2.25	2.0
18	12	13	19	54	21	-0.184329808236	0.144350992211	0.472787647216	0.4013671875	0.685546875	0.4931640625	1.375	-0.5	-2.6875
18	12	13	19	54	21	-0.184271489717	0.144841419377	0.473404993124	0.4248046875	0.775390625	0.47412109375	0.6875	-2.4375	1.375
18	12	13	19	54	21	-0.184145770967	0.144777516982	0.472846300193	0.4130859375	0.68505859375	0.5166015625	-1.0	0.5625	-2.4375
18	12	13	19	54	21	-0.184210055099	0.14490214407	0.475051974431	0.4423828125	0.85888671875	0.45458984375	7.5625	-1.5625	2.1875
18	12	13	19	54	21	-0.184452201519	0.144900571279	0.472788468884	0.40380859375	0.69091796875	0.552734375	-10.0	2.3125	0.625
18	12	13	19	54	21	-0.184030273752	0.145209957299	0.471825544313	0.3798828125	0.7119140625	0.4912109375	-6.625	-2.0	0.125
18	12	13	19	54	21	-0.183848979684	0.145333472984	0.471402944921	0.384765625	0.71435546875	0.53125	-0.875	-2.1875	0.375
18	12	13	19	54	21	-0.183480551628	0.145759001094	0.471763534109	0.423828125	0.6630859375	0.45751953125	1.4375	-1.9375	-3.4375
18	12	13	19	54	21	-0.182992560039	0.145087830291	0.473473411681	0.40478515625	0.81982421875	0.5078125	8.1875	-0.9375	-2.1875
18	12	13	19	54	21	-0.183109287383	0.145877065615	0.473886835747	0.45751953125	0.7333984375	0.47216796875	0.875	-1.8125	0.4375
18	12	13	19	54	22	-0.183296786844	0.145758483844	0.474142337731	0.3984375	0.7138671875	0.49462890625	2.625	0.0	0.6875
18	12	13	19	54	22	-0.183482216862	0.145516169328	0.474453516857	0.390625	0.6796875	0.45947265625	2.5625	1.5	-0.5625
18	12	13	19	54	22	-0.182990364783	0.145391277156	0.475909230892	0.3505859375	0.76025390625	0.5	8.1875	-5.125	0.75
18	12	13	19	54	22	-0.182930899923	0.146674325164	0.476828892292	0.44189453125	0.74072265625	0.4970703125	5.125	-7.0625	1.6875
18	12	13	19	54	22	-0.18280579591	0.14679396967	0.478163808066	0.3994140625	0.68017578125	0.50048828125	10.875	-4.0	-1.5625
18	12	13	19	54	22	-0.182685991395	0.147833435068	0.481099560366	0.4375	0.80224609375	0.4521484375	14.25	-8.375	2.4375
18	12	13	19	54	22	-0.182562328755	0.14709970321	0.482560271193	0.42138671875	0.697265625	0.52587890625	13.75	-0.1875	-5.0625
18	12	13	19	54	22	-0.182440056184	0.146794357685	0.48408567601	0.37548828125	0.78466796875	0.462890625	7.5625	-2.0	1.1875
18	12	13	19	54	22	-0.182567635128	0.147897485762	0.483550921257	0.447265625	0.7568359375	0.52880859375	-1.625	-4.8125	2.8125
18	12	13	19	54	22	-0.182318683864	0.148565007206	0.483904427745	0.4111328125	0.62841796875	0.4638671875	4.8125	-4.0625	-2.5625
18	12	13	19	54	22	-0.181645426799	0.147708982813	0.486340981428	0.35888671875	0.8427734375	0.50341796875	13.6875	-4.3125	-0.625
18	12	13	19	54	22	-0.182017092321	0.149300405036	0.485989298814	0.4609375	0.65869140625	0.4541015625	-0.8125	-4.4375	1.5625
18	12	13	19	54	22	-0.181460850186	0.148135043189	0.487557777089	0.36962890625	0.73046875	0.478515625	11.0625	0.0	-4.5
18	12	13	19	54	22	-0.18097687366	0.14661263087	0.488057700433	0.38232421875	0.78857421875	0.50439453125	3.875	3.4375	-4.5
18	12	13	19	54	22	-0.18159141545	0.148752362841	0.486726032538	0.5009765625	0.83544921875	0.4755859375	-11.5625	-4.3125	8.0
18	12	13	19	54	22	-0.181346555568	0.149301135954	0.48379427783	0.42529296875	0.5302734375	0.50634765625	-10.75	0.5	-5.9375
18	12	13	19	54	22	-0.180428910762	0.14710205512	0.488732844543	0.37109375	0.8798828125	0.43701171875	25.6875	0.5625	-6.1875
18	12	13	19	54	22	-0.181099518237	0.148749418923	0.486411210257	0.48779296875	0.74951171875	0.44970703125	-16.1875	0.1875	5.25
18	12	13	19	54	22	-0.180734775105	0.148506486941	0.484278860414	0.3447265625	0.59912109375	0.47314453125	-9.375	1.1875	-2.6875
18	12	13	19	54	22	-0.180856334129	0.148139832241	0.487207309827	0.4130859375	0.89208984375	0.423828125	11.75	-1.3125	3.0625
18	12	13	19	54	22	-0.180918300536	0.149056170685	0.484463074006	0.41064453125	0.6396484375	0.4833984375	-14.0625	-0.5625	0.875
18	12	13	19	54	22	-0.180185446067	0.148567539203	0.484889289823	0.3408203125	0.68017578125	0.49365234375	5.375	-3.25	-3.1875
18	12	13	19	54	22	-0.179937478866	0.148930613444	0.488175018986	0.4326171875	0.87890625	0.4501953125	15.0	-6.5625	1.8125
18	12	13	19	54	22	-0.180126201146	0.150461228676	0.487274640375	0.455078125	0.66259765625	0.49853515625	-1.875	-5.375	1.4375
18	12	13	19	54	22	-0.17993584689	0.150088957769	0.48951339622	0.4013671875	0.71484375	0.4560546875	15.1875	-2.25	-3.0625
18	12	13	19	54	22	-0.179754211421	0.149296706667	0.491897857331	0.404296875	0.91162109375	0.4658203125	10.6875	-1.0625	1.625
18	12	13	19	54	22	-0.180308965571	0.150277817615	0.488738621302	0.43212890625	0.62353515625	0.48193359375	-15.1875	1.5625	2.0
18	12	13	19	54	22	-0.179815529196	0.149602125614	0.490006472635	0.3642578125	0.8232421875	0.474609375	6.125	-2.25	0.25
18	12	13	19	54	22	-0.180120221873	0.150334160106	0.489150612705	0.44287109375	0.703125	0.45947265625	-4.5	-0.25	1.125
18	12	13	19	54	22	-0.180309753917	0.150339513845	0.489656345945	0.40283203125	0.720703125	0.4423828125	3.3125	-0.3125	0.625
18	12	13	19	54	22	-0.180915061146	0.150640476015	0.49000880934	0.4130859375	0.71142578125	0.412109375	1.5625	0.6875	3.3125
18	12	13	19	54	22	-0.181464527504	0.150335395642	0.491046795752	0.39892578125	0.7431640625	0.421875	5.625	1.9375	2.4375
18	12	13	19	54	22	-0.181773046296	0.149910880357	0.490201254132	0.3154296875	0.53515625	0.435546875	0.875	1.6875	-0.625
18	12	13	19	54	22	-0.18170606451	0.149967013941	0.494824005706	0.39892578125	0.93798828125	0.39306640625	20.4375	-6.75	5.375
18	12	13	19	54	22	-0.182444183721	0.151924915785	0.493496562525	0.48583984375	0.6552734375	0.447265625	-5.9375	-3.4375	3.5625
18	12	13	19	54	22	-0.182678961716	0.153504038996	0.497011288089	0.4970703125	0.87255859375	0.421875	16.9375	-9.375	4.875
18	12	13	19	54	22	-0.183420551548	0.15583117075	0.498501046421	0.5517578125	0.818359375	0.41796875	6.0625	-7.3125	5.625
18	12	13	19	54	22	-0.183477769503	0.155888963177	0.500321781974	0.45166015625	0.73486328125	0.44384765625	12.9375	-2.5625	-1.4375
18	12	13	19	54	22	-0.183115151203	0.154488149231	0.503688742575	0.39208984375	0.86328125	0.46240234375	20.125	-1.4375	-1.75
18	12	13	19	54	22	-0.182749003625	0.154671334398	0.503261701701	0.36328125	0.74267578125	0.46923828125	-1.0	-4.5625	1.6875
18	12	13	19	54	22	-0.182198052877	0.15473100973	0.504661139426	0.408203125	0.76953125	0.46484375	9.6875	-5.75	-1.375
18	12	13	19	54	22	-0.181826205204	0.153688615207	0.505255900193	0.4228515625	0.763671875	0.4775390625	6.5	1.5625	-5.0
18	12	13	19	54	22	-0.182133429526	0.154727963756	0.504712241538	0.4326171875	0.78125	0.43212890625	-4.4375	-3.5	5.25
18	12	13	19	54	22	-0.182870501669	0.155586418142	0.503443223554	0.46923828125	0.654296875	0.4326171875	-4.5	1.0625	1.3125
18	12	13	19	54	22	-0.183049593701	0.154545372208	0.505934672287	0.4462890625	0.81103515625	0.37451171875	12.6875	4.0	-2.1875
18	12	13	19	54	22	-0.183351961094	0.154298854077	0.504217893009	0.4169921875	0.68603515625	0.3984375	-10.1875	5.3125	-0.5625
18	12	13	19	54	22	-0.182804505001	0.154544576515	0.504528226491	0.3935546875	0.7705078125	0.4111328125	-0.3125	-3.9375	0.0625
18	12	13	19	54	22	-0.182625034269	0.15540218491	0.504904506509	0.46240234375	0.73095703125	0.40966796875	1.5625	-3.625	-1.125
18	12	13	19	54	22	-0.182319331523	0.155706934956	0.505025158694	0.39794921875	0.697265625	0.41357421875	1.1875	-3.125	-0.75
18	12	13	19	54	22	-0.182443780301	0.156746613521	0.506740804302	0.43310546875	0.7646484375	0.3798828125	8.1875	-6.0	3.625
18	12	13	19	54	23	-0.182314663917	0.156252273059	0.508186103706	0.419921875	0.72998046875	0.43701171875	11.125	-0.9375	-3.125
18	12	13	19	54	23	-0.181952787278	0.156622224809	0.510151424377	0.419921875	0.79248046875	0.42724609375	11.625	-6.625	0.625
18	12	13	19	54	23	-0.181522292212	0.15692461778	0.510630631017	0.4111328125	0.75244140625	0.470703125	5.6875	-5.75	-0.6875
18	12	13	19	54	23	-0.18121477666	0.156800525847	0.512272017685	0.4287109375	0.83251953125	0.46533203125	10.9375	-4.6875	0.0
18	12	13	19	54	23	-0.181587384926	0.157965765441	0.510947226626	0.44970703125	0.7138671875	0.44580078125	-5.625	-3.0625	3.25
18	12	13	19	54	23	-0.180913701005	0.157353414707	0.511490153314	0.3994140625	0.73681640625	0.46484375	6.4375	-2.125	-4.625
18	12	13	19	54	23	-0.181221708862	0.156562372257	0.512291614172	0.38525390625	0.72412109375	0.41796875	7.5625	1.75	0.1875
18	12	13	19	54	23	-0.181587489787	0.156561986993	0.51265658041	0.41552734375	0.8330078125	0.4345703125	2.0	-0.5625	4.375
18	12	13	19	54	23	-0.181958126149	0.157298252629	0.510593668311	0.443359375	0.63818359375	0.40625	-10.0	1.1875	0.5
18	12	13	19	54	23	-0.181278988379	0.155887722667	0.511914772907	0.37646484375	0.74658203125	0.4189453125	9.125	1.25	-5.9375
18	12	13	19	54	23	-0.18158084972	0.15594590623	0.512698869798	0.44873046875	0.81396484375	0.380859375	2.25	0.875	2.0
18	12	13	19	54	23	-0.182202055559	0.15735909522	0.511081343785	0.4775390625	0.71240234375	0.37939453125	-10.75	-0.1875	3.875
18	12	13	19	54	23	-0.182074357599	0.156743865342	0.511553868937	0.44677734375	0.72265625	0.416015625	4.25	2.125	-4.75
18	12	13	19	54	23	-0.182497190077	0.156740061578	0.512518028454	0.4384765625	0.76220703125	0.36962890625	4.625	1.125	1.125
18	12	13	19	54	23	-0.18195050558	0.156437150554	0.512098202555	0.40185546875	0.80029296875	0.42333984375	-4.0625	-0.4375	-0.625
18	12	13	19	54	23	-0.181529270173	0.156930650173	0.510772337863	0.4091796875	0.6865234375	0.4150390625	-7.1875	-2.3125	-1.4375
18	12	13	19	54	23	-0.181035254353	0.156742593789	0.511244534882	0.4306640625	0.84326171875	0.474609375	3.1875	-2.875	-0.8125
18	12	13	19	54	23	-0.181463863616	0.1586359171	0.509905521914	0.49462890625	0.689453125	0.37890625	-9.1875	-3.0625	2.9375
18	12	13	19	54	23	-0.18061496835	0.156687605189	0.510470760498	0.3896484375	0.8134765625	0.47802734375	5.375	3.25	-6.6875
18	12	13	19	54	23	-0.181033636716	0.156374975477	0.509591986831	0.4287109375	0.71435546875	0.40234375	-4.5	4.375	-0.3125
18	12	13	19	54	23	-0.180849792119	0.156191231196	0.508430228942	0.39453125	0.82421875	0.4462890625	-8.3125	0.6875	2.75
18	12	13	19	54	23	-0.1803720293	0.155834108563	0.50614039491	0.41943359375	0.673828125	0.42724609375	-12.8125	3.625	-5.0625
18	12	13	19	54	23	-0.180000911064	0.155524693588	0.506004595699	0.38818359375	0.787109375	0.41015625	-3.125	0.125	-0.125
18	12	13	19	54	23	-0.179574416144	0.156318857833	0.5046028886	0.4658203125	0.76171875	0.3955078125	-12.0	-0.6875	-1.125
18	12	13	19	54	23	-0.179390071423	0.156317785952	0.504477352947	0.42138671875	0.712890625	0.39453125	-1.75	0.5625	-2.1875
