18	12	13	19	54	43	-0.0900897752658	0.197147678935	0.436410496715	0.51025390625	0.705078125	0.470703125	-11.5625	2.3125	8.125
18	12	13	19	54	43	-0.0880155136789	0.193914900803	0.433729708878	0.306640625	0.73095703125	0.6689453125	-13.6875	6.9375	-10.9375
18	12	13	19	54	43	-0.0883817679531	0.194769490013	0.431044230169	0.44287109375	0.578125	0.46337890625	-15.25	2.75	0.875
18	12	13	19	54	43	-0.0877122701681	0.192698425136	0.429710773823	0.3095703125	0.75927734375	0.54443359375	-11.5625	7.0	-1.3125
18	12	13	19	54	43	-0.0884444509664	0.195139344196	0.427084764259	0.4853515625	0.638671875	0.44921875	-17.8125	-2.375	6.375
18	12	13	19	54	43	-0.0887497218305	0.194468097491	0.427451376877	0.3818359375	0.58544921875	0.49755859375	4.8125	4.0	-2.375
18	12	13	19	54	43	-0.0888078490474	0.194522759391	0.431587835473	0.39501953125	0.73046875	0.4296875	19.125	-1.5625	-1.8125
18	12	13	19	54	43	-0.0891153297415	0.193734285342	0.432575576629	0.35888671875	0.763671875	0.53173828125	4.0625	2.0625	2.875
18	12	13	19	54	43	-0.0900308490585	0.195870504833	0.430927318206	0.46044921875	0.69140625	0.53125	-8.875	-5.375	8.5625
18	12	13	19	54	43	-0.0902142698496	0.195504943388	0.431172937901	0.3779296875	0.59912109375	0.5654296875	6.875	0.1875	-1.5625
18	12	13	19	54	43	-0.089910545186	0.195508130503	0.434292959266	0.37255859375	0.7646484375	0.52783203125	16.625	-5.375	-0.8125
18	12	13	19	54	43	-0.0900888628842	0.196108073474	0.43542950394	0.48095703125	0.7939453125	0.5244140625	3.625	-1.125	0.3125
18	12	13	19	54	44	-0.0890514497624	0.195315037176	0.433416274683	0.2919921875	0.5810546875	0.6064453125	-5.5625	-2.75	-3.3125
18	12	13	19	54	44	-0.0899062886562	0.195620947144	0.435798303466	0.4453125	0.81689453125	0.53564453125	12.1875	-1.0	4.75
18	12	13	19	54	44	-0.0903343271977	0.195744721164	0.432811293351	0.37939453125	0.55615234375	0.53369140625	-12.375	2.4375	2.0
18	12	13	19	54	44	-0.0902772035585	0.195997363507	0.43423395951	0.38037109375	0.79248046875	0.51904296875	4.8125	-3.9375	3.4375
18	12	13	19	54	44	-0.0898470296792	0.195136517585	0.435135512624	0.42431640625	0.630859375	0.552734375	8.8125	2.625	-8.4375
18	12	13	19	54	44	-0.0896651157824	0.195566392762	0.435324442314	0.37158203125	0.77685546875	0.4912109375	-3.75	-3.25	3.8125
18	12	13	19	54	44	-0.0892986892935	0.19574907489	0.435933861199	0.4736328125	0.875	0.59228515625	0.125	-1.8125	-0.1875
18	12	13	19	54	44	-0.0899062109507	0.196963572802	0.433966843082	0.455078125	0.59228515625	0.5234375	-7.5625	-0.875	2.375
18	12	13	19	54	44	-0.0896047339082	0.19459120688	0.434534128537	0.337890625	0.658203125	0.55029296875	5.75	7.75	-6.125
18	12	13	19	54	44	-0.0898476725364	0.194283384296	0.438068441436	0.41162109375	0.86962890625	0.50732421875	15.375	-0.9375	1.9375
18	12	13	19	54	44	-0.0899094012313	0.195444604713	0.435080931417	0.46826171875	0.67236328125	0.52783203125	-17.4375	-0.5	1.8125
18	12	13	19	54	44	-0.0883211016528	0.193366447848	0.43550176938	0.29443359375	0.7109375	0.6181640625	4.5625	0.0625	-8.4375
18	12	13	19	54	44	-0.08990854522	0.195625857047	0.434893675962	0.47216796875	0.732421875	0.4375	-7.375	-2.3125	12.1875
18	12	13	19	54	44	-0.0888080559933	0.194279066822	0.433053716338	0.36328125	0.640625	0.5966796875	-7.4375	2.9375	-7.3125
18	12	13	19	54	44	-0.0892995453307	0.19459121703	0.434351035252	0.4033203125	0.65771484375	0.48046875	8.0	-0.6875	0.875
18	12	13	19	54	44	-0.0889955101024	0.193861275779	0.43765281717	0.41796875	0.8740234375	0.52490234375	13.8125	0.375	-2.0
18	12	13	19	54	44	-0.0895413905749	0.194342050164	0.435072278131	0.36767578125	0.64306640625	0.53271484375	-12.8125	0.0	6.125
18	12	13	19	54	44	-0.0901536099801	0.195871993518	0.434837046377	0.45166015625	0.72509765625	0.486328125	-3.6875	-3.375	5.8125
18	12	13	19	54	44	-0.0892367504204	0.193061451149	0.4342204121	0.265625	0.53369140625	0.62255859375	5.875	5.0	-9.5625
18	12	13	19	54	44	-0.0894820058497	0.193735256867	0.43801014596	0.3818359375	0.84033203125	0.4541015625	15.4375	-5.75	4.875
18	12	13	19	54	44	-0.0891726644157	0.195069018119	0.437318371347	0.48681640625	0.75830078125	0.57470703125	-4.25	-5.3125	-0.25
18	12	13	19	54	44	-0.0881356151849	0.193727453322	0.437626288695	0.34521484375	0.595703125	0.57861328125	7.4375	0.4375	-9.375
18	12	13	19	54	44	-0.0894818259919	0.19483355291	0.438863798692	0.43212890625	0.8505859375	0.5	3.0625	-2.3125	11.5625
18	12	13	19	54	44	-0.0888077742759	0.193790160361	0.436104156152	0.40771484375	0.55078125	0.5556640625	-10.875	6.25	-8.5
18	12	13	19	54	44	-0.0894207457679	0.193490623948	0.438985667961	0.349609375	0.81201171875	0.47998046875	12.625	-0.75	5.3125
18	12	13	19	54	44	-0.0892999881641	0.193066208177	0.438442799031	0.44189453125	0.76611328125	0.55029296875	-4.6875	3.0625	-1.375
18	12	13	19	54	44	-0.0899692904763	0.195075883557	0.437699987792	0.43115234375	0.728515625	0.47216796875	-6.875	-5.625	8.375
18	12	13	19	54	44	-0.089176924308	0.193735494698	0.436484726712	0.3271484375	0.65625	0.603515625	-2.875	1.125	-3.75
18	12	13	19	54	44	-0.0891755727705	0.19367152115	0.4377598959	0.38037109375	0.61669921875	0.51806640625	11.0	-1.75	-2.75
18	12	13	19	54	44	-0.089480077477	0.193547971132	0.43958766575	0.3681640625	0.8232421875	0.53515625	7.9375	-2.3125	4.6875
18	12	13	19	54	44	-0.0899097760685	0.194163610098	0.440271021576	0.4638671875	0.72705078125	0.55224609375	5.875	-1.5625	0.5625
18	12	13	19	54	44	-0.0901528215045	0.19397810883	0.4400824936	0.3876953125	0.60888671875	0.53515625	3.625	0.75	-1.25
18	12	13	19	54	44	-0.0898510597733	0.192764705682	0.442418805188	0.3388671875	0.853515625	0.544921875	10.5	-0.0625	0.5625
18	12	13	19	54	44	-0.090461470432	0.19447384939	0.439855165947	0.46044921875	0.5986328125	0.47265625	-13.5	-1.5	3.75
18	12	13	19	54	44	-0.0894801881521	0.192937840893	0.44178554014	0.29248046875	0.861328125	0.5712890625	7.75	-2.0625	-0.625
18	12	13	19	54	44	-0.0905184164571	0.1945260912	0.440140459253	0.51318359375	0.57421875	0.49755859375	-5.0625	0.625	1.3125
18	12	13	19	54	44	-0.0904591460553	0.194346775331	0.443567216183	0.40234375	0.9072265625	0.5625	16.875	-4.375	2.25
18	12	13	19	54	44	-0.091189770258	0.194892193061	0.4404453696	0.4326171875	0.5400390625	0.5263671875	-12.0625	3.0625	1.25
18	12	13	19	54	44	-0.0916210645779	0.193802051988	0.444005079107	0.384765625	0.91357421875	0.5556640625	17.625	0.8125	3.25
18	12	13	19	54	44	-0.0921672912115	0.19385650125	0.439351100755	0.4658203125	0.66748046875	0.54638671875	-25.8125	7.75	2.5625
18	12	13	19	54	44	-0.09149361033	0.192936158941	0.435678045721	0.31591796875	0.6435546875	0.54150390625	-21.0	3.375	-0.0625
18	12	13	19	54	44	-0.0914352372083	0.192819702497	0.435690736444	0.38037109375	0.74169921875	0.54541015625	0.9375	-0.3125	-0.625
18	12	13	19	54	44	-0.0913107318443	0.192997683216	0.434580488457	0.4306640625	0.70556640625	0.4599609375	-11.0	3.0	-0.625
18	12	13	19	54	44	-0.0907614822046	0.192692669348	0.434214649901	0.40087890625	0.72265625	0.5126953125	-4.75	1.1875	-2.375
18	12	13	19	54	44	-0.0904575331007	0.193061523075	0.435441323307	0.419921875	0.7255859375	0.52392578125	6.1875	-3.0625	-2.0
18	12	13	19	54	44	-0.0905177671243	0.194036400329	0.434888125934	0.4580078125	0.5634765625	0.4521484375	-2.1875	-0.1875	-3.375
18	12	13	19	54	44	-0.0902754866832	0.191843038976	0.438315260224	0.25927734375	0.82568359375	0.56005859375	18.5625	0.75	0.75
18	12	13	19	54	44	-0.0918009621565	0.195016006709	0.436848062602	0.537109375	0.654296875	0.44140625	-9.5	-4.1875	8.9375
18	12	13	19	54	44	-0.0907627547809	0.193061596081	0.436723275358	0.32861328125	0.63037109375	0.58642578125	3.5625	3.625	-8.5
18	12	13	19	54	44	-0.0905833200052	0.193618794512	0.439121566117	0.3662109375	0.77685546875	0.47265625	9.625	-6.0625	2.375
18	12	13	19	54	45	-0.0906412553872	0.194710844906	0.43965586704	0.51123046875	0.8037109375	0.5390625	0.625	-2.75	0.0
18	12	13	19	54	45	-0.0901537623036	0.193674940954	0.438622163787	0.36572265625	0.60986328125	0.58154296875	-0.4375	2.125	-5.3125
18	12	13	19	54	45	-0.0906393797177	0.194401632593	0.439707805715	0.4033203125	0.69580078125	0.474609375	5.625	-2.625	3.3125
18	12	13	19	54	45	-0.0894831098571	0.192333751132	0.442593471742	0.40771484375	0.79541015625	0.5986328125	17.25	2.8125	-11.6875
18	12	13	19	54	45	-0.0902764035487	0.193676151765	0.441127497259	0.42041015625	0.76708984375	0.45556640625	-13.4375	-0.8125	9.5625
18	12	13	19	54	45	-0.0895415141698	0.193243649531	0.436415696192	0.3232421875	0.57421875	0.6025390625	-21.625	0.125	-0.6875
18	12	13	19	54	45	-0.0895420337408	0.192634395696	0.439958404365	0.37939453125	0.72412109375	0.5087890625	20.9375	-1.125	-3.1875
18	12	13	19	54	45	-0.089906402368	0.19354596192	0.439155848634	0.41552734375	0.73779296875	0.4609375	-8.8125	-0.9375	5.375
18	12	13	19	54	45	-0.0885031925045	0.193181106398	0.439952421774	0.3798828125	0.7646484375	0.54931640625	2.5625	-4.0625	-6.125
18	12	13	19	54	45	-0.0891760041727	0.193855571015	0.441546347834	0.45361328125	0.67041015625	0.5224609375	12.625	-1.625	0.0
18	12	13	19	54	45	-0.0894814996169	0.193551047261	0.44185305302	0.3603515625	0.75537109375	0.51220703125	0.3125	0.5625	3.8125
18	12	13	19	54	45	-0.089295988097	0.193240668705	0.441108753231	0.4150390625	0.646484375	0.5390625	-1.5	1.75	-3.4375
18	12	13	19	54	45	-0.0894184168084	0.192325891715	0.441476729539	0.32421875	0.67919921875	0.53759765625	4.8125	1.3125	0.6875
18	12	13	19	54	45	-0.0892971151875	0.192876885846	0.441968838738	0.38623046875	0.7265625	0.4794921875	0.25	-3.5	1.5625
18	12	13	19	54	45	-0.089601243462	0.193179792614	0.442757098143	0.4296875	0.8173828125	0.517578125	1.375	-0.5	3.25
18	12	13	19	54	45	-0.0899709366277	0.193309332632	0.440027464145	0.37255859375	0.51953125	0.50341796875	-10.4375	2.4375	0.4375
18	12	13	19	54	45	-0.090274269172	0.194159871694	0.442520927314	0.36669921875	0.78173828125	0.4833984375	11.8125	-6.9375	5.6875
18	12	13	19	54	45	-0.0900332131975	0.194471740507	0.44619850066	0.4765625	0.75244140625	0.4951171875	20.875	-3.1875	-6.25
18	12	13	19	54	45	-0.0902104653652	0.19531359213	0.447329161476	0.380859375	0.7255859375	0.51123046875	7.1875	-6.3125	3.75
18	12	13	19	54	45	-0.0908233980762	0.196784029165	0.447341857863	0.43896484375	0.73828125	0.5400390625	2.125	-6.25	6.25
18	12	13	19	54	45	-0.090888748961	0.196854409267	0.450048855668	0.4736328125	0.79541015625	0.58740234375	18.875	-3.375	-3.125
18	12	13	19	54	45	-0.0911313884842	0.197705671333	0.447294584603	0.36474609375	0.5859375	0.48828125	-13.0625	-1.8125	4.4375
18	12	13	19	54	45	-0.0898474378861	0.195686743113	0.451068319279	0.38134765625	0.8740234375	0.60205078125	21.625	-0.875	-9.3125
18	12	13	19	54	45	-0.0911290992568	0.197639667377	0.451250790895	0.5263671875	0.76220703125	0.4599609375	-0.375	-1.8125	6.75
18	12	13	19	54	45	-0.0899694041051	0.195503393045	0.44771070496	0.353515625	0.658203125	0.59521484375	-17.25	7.625	-7.8125
18	12	13	19	54	45	-0.090823274911	0.196051316542	0.448256808432	0.42431640625	0.77294921875	0.45068359375	-0.25	0.6875	6.3125
18	12	13	19	54	45	-0.0910710022106	0.195021348568	0.444673090552	0.4384765625	0.658203125	0.54736328125	-18.375	9.9375	-1.875
18	12	13	19	54	45	-0.0905203948924	0.195445923429	0.442347472546	0.37109375	0.56640625	0.44482421875	-13.625	-0.0625	-2.25
18	12	13	19	54	45	-0.0896653284135	0.194407127976	0.444664341384	0.38134765625	0.8876953125	0.52197265625	7.5	-0.4375	-2.8125
18	12	13	19	54	45	-0.0903328420891	0.19568046739	0.440921926521	0.44189453125	0.56787109375	0.48388671875	-19.0625	1.25	4.0
18	12	13	19	54	45	-0.0904581998748	0.196664183533	0.44099898387	0.40673828125	0.72412109375	0.44873046875	-3.25	-3.1875	3.8125
18	12	13	19	54	45	-0.0892948643756	0.196106903102	0.442995301188	0.3935546875	0.73095703125	0.56689453125	12.75	-4.0	-8.0625
18	12	13	19	54	45	-0.0901540661131	0.196727525445	0.444849582825	0.439453125	0.7109375	0.48193359375	11.375	-1.4375	2.8125
18	12	13	19	54	45	-0.0899679529401	0.196720971727	0.44684897115	0.392578125	0.82080078125	0.5244140625	9.5625	-3.9375	1.0625
18	12	13	19	54	45	-0.0893611632887	0.19697300132	0.446317504076	0.39404296875	0.7294921875	0.56201171875	-1.9375	-4.125	-0.8125
18	12	13	19	54	45	-0.0890530077065	0.195623639273	0.446790963956	0.3623046875	0.70947265625	0.60498046875	7.75	1.25	-3.6875
18	12	13	19	54	45	-0.0890550030295	0.196909828494	0.446068514147	0.439453125	0.7080078125	0.4697265625	-6.0625	-3.6875	2.375
18	12	13	19	54	45	-0.0880770712111	0.194709533724	0.446183915837	0.33349609375	0.77294921875	0.60693359375	2.125	3.5625	-5.875
18	12	13	19	54	45	-0.0885668243125	0.195139998158	0.445275660482	0.40673828125	0.6025390625	0.45703125	-3.5	1.375	1.0
18	12	13	19	54	45	-0.088135941718	0.194338530769	0.444708082657	0.3603515625	0.79443359375	0.53564453125	-6.0	1.4375	0.8125
18	12	13	19	54	45	-0.0875903565745	0.194163710288	0.443384216137	0.42333984375	0.55126953125	0.48291015625	-4.8125	2.6875	-7.8125
18	12	13	19	54	45	-0.0883206831095	0.194830421897	0.445021493125	0.35302734375	0.85546875	0.4423828125	2.5625	-3.375	10.6875
18	12	13	19	54	45	-0.088686035597	0.196171313426	0.442819812977	0.49462890625	0.62548828125	0.484375	-11.375	0.375	0.0625
18	12	13	19	54	45	-0.0886893787305	0.196544941165	0.445339096502	0.38818359375	0.6787109375	0.4765625	15.375	-4.3125	-1.25
18	12	13	19	54	45	-0.0883810432408	0.195988625584	0.448314062572	0.357421875	0.85693359375	0.57177734375	16.6875	-4.8125	0.8125
18	12	13	19	54	45	-0.0898481075315	0.199289450469	0.447470432278	0.53515625	0.693359375	0.4501953125	-4.8125	-6.75	9.9375
18	12	13	19	54	45	-0.0888097580999	0.197945048466	0.44722274749	0.353515625	0.67431640625	0.59033203125	2.75	-0.0625	-7.0625
18	12	13	19	54	45	-0.0886896424174	0.196545525522	0.449124837513	0.33447265625	0.6640625	0.5478515625	16.0	1.125	-4.0625
18	12	13	19	54	45	-0.0895405559478	0.198429684653	0.449961130502	0.51806640625	0.85986328125	0.4453125	-1.3125	-3.3125	7.125
18	12	13	19	54	45	-0.088384634709	0.1969121765	0.44772188922	0.3779296875	0.6796875	0.6083984375	-8.9375	3.6875	-7.4375
18	12	13	19	54	46	-0.0884435540406	0.197395758294	0.445757953871	0.341796875	0.53515625	0.50048828125	-6.0625	-2.75	1.375
18	12	13	19	54	46	-0.0886889630486	0.197398559187	0.448999320155	0.455078125	0.96533203125	0.51123046875	12.0625	-1.5625	3.25
18	12	13	19	54	46	-0.088811876399	0.198926395316	0.444486655627	0.49853515625	0.5390625	0.4580078125	-24.25	2.0625	-1.25
18	12	13	19	54	46	-0.0870398045183	0.196419418611	0.445392323682	0.29541015625	0.7666015625	0.63037109375	7.5	0.0625	-9.0625
18	12	13	19	54	46	-0.0880170561814	0.197702666416	0.445334564424	0.49169921875	0.6826171875	0.48291015625	0.75	-0.375	3.125
18	12	13	19	54	46	-0.0878358275813	0.197767950913	0.446137639883	0.48974609375	0.87646484375	0.5068359375	-0.9375	1.375	-1.0
18	12	13	19	54	46	-0.087589689388	0.196725831984	0.441183466827	0.37548828125	0.53076171875	0.52587890625	-24.375	8.8125	-3.4375
18	12	13	19	54	46	-0.0874038490335	0.19513275514	0.443061829703	0.392578125	0.9326171875	0.49609375	2.0625	5.6875	0.125
18	12	13	19	54	46	-0.0888722565677	0.196849606752	0.436731453119	0.48974609375	0.619140625	0.48779296875	-36.0625	5.5625	10.75
18	12	13	19	54	46	-0.0880776370898	0.195626352649	0.434772702003	0.291015625	0.59326171875	0.50244140625	-10.8125	2.9375	-3.0
18	12	13	19	54	46	-0.0876489182715	0.194951702618	0.438244591357	0.35888671875	0.8720703125	0.529296875	15.3125	-2.875	0.1875
18	12	13	19	54	46	-0.0881969655317	0.195864403039	0.435064339315	0.40234375	0.6142578125	0.4755859375	-18.4375	1.0625	5.375
18	12	13	19	54	46	-0.0877730197127	0.197641890007	0.436606682896	0.44091796875	0.794921875	0.48681640625	3.9375	-9.5625	2.0
18	12	13	19	54	46	-0.0874674195975	0.19617605484	0.436848794179	0.37109375	0.5126953125	0.58251953125	11.25	3.6875	-9.5625
18	12	13	19	54	46	-0.0876469751215	0.19671741004	0.442812537957	0.4404296875	0.90869140625	0.44873046875	26.75	-5.8125	1.25
18	12	13	19	54	46	-0.0876527837314	0.197279802939	0.440400302662	0.4384765625	0.68359375	0.5888671875	-10.3125	-1.1875	1.1875
18	12	13	19	54	46	-0.0874686245327	0.196606029044	0.440517141139	0.34814453125	0.72265625	0.57373046875	2.875	-1.0625	0.625
18	12	13	19	54	46	-0.0884444430581	0.197336704214	0.437949536882	0.43701171875	0.62841796875	0.5244140625	-11.8125	2.3125	5.1875
18	12	13	19	54	46	-0.0878358143272	0.196974407807	0.437592045109	0.38916015625	0.78466796875	0.5263671875	-5.6875	0.0625	-0.5
18	12	13	19	54	46	-0.0880169099288	0.197275071352	0.437581988405	0.46728515625	0.70703125	0.52783203125	0.4375	1.0	-1.1875
18	12	13	19	54	46	-0.0883824587677	0.197151479157	0.436602021799	0.41650390625	0.62548828125	0.48876953125	-4.75	3.875	-0.5625
18	12	13	19	54	46	-0.0885061845046	0.196178535861	0.438807558899	0.43408203125	0.84814453125	0.5068359375	7.9375	4.5	-1.0625
18	12	13	19	54	46	-0.0885689687199	0.196609681769	0.436008369101	0.44775390625	0.6103515625	0.525390625	-13.6875	2.1875	-1.0
18	12	13	19	54	46	-0.0880787221176	0.196239148723	0.434228710426	0.34130859375	0.68017578125	0.525390625	-11.125	0.3125	0.9375
18	12	13	19	54	46	-0.0881381584299	0.195747281222	0.433732516484	0.3798828125	0.63330078125	0.4990234375	-2.0	2.9375	-1.4375
18	12	13	19	54	46	-0.0881388086008	0.196359104757	0.432331843019	0.3828125	0.6123046875	0.4931640625	-7.5	-1.1875	1.5
18	12	13	19	54	46	-0.0882004878271	0.196726762814	0.433250562351	0.42529296875	0.76513671875	0.53369140625	3.625	-2.4375	1.5625
18	12	13	19	54	46	-0.088627069985	0.198617414415	0.434284850512	0.47119140625	0.64208984375	0.478515625	6.625	-6.4375	1.125
18	12	13	19	54	46	-0.0883221699194	0.198618065596	0.437032990064	0.3974609375	0.74169921875	0.52099609375	15.3125	-4.125	-2.1875
18	12	13	19	54	46	-0.0879545430866	0.198309722754	0.438490935138	0.41162109375	0.70068359375	0.55126953125	10.375	-1.5	-4.4375
18	12	13	19	54	46	-0.0881976772185	0.198246405263	0.439218328903	0.37939453125	0.72705078125	0.587890625	7.9375	-3.1875	2.5625
18	12	13	19	54	46	-0.0885036227878	0.198858484857	0.439954560727	0.46533203125	0.7744140625	0.59130859375	6.1875	-3.5	1.5625
18	12	13	19	54	46	-0.0878964462534	0.197095572884	0.438627682484	0.3603515625	0.69384765625	0.623046875	-3.3125	4.3125	-4.5
18	12	13	19	54	46	-0.0878937692009	0.196845420606	0.437942912512	0.40966796875	0.76416015625	0.5390625	-5.5625	1.6875	1.625
18	12	13	19	54	46	-0.0874642568589	0.195802746688	0.435368139689	0.380859375	0.642578125	0.56396484375	-12.75	5.25	-3.25
18	12	13	19	54	46	-0.0873442442455	0.194647655415	0.435378402658	0.40087890625	0.71240234375	0.494140625	-2.1875	6.5625	-3.3125
18	12	13	19	54	46	-0.0877138250718	0.193983671592	0.433319724555	0.40478515625	0.685546875	0.47509765625	-14.6875	8.125	1.375
18	12	13	19	54	46	-0.0871629555084	0.193736149008	0.432213506971	0.3935546875	0.75634765625	0.50830078125	-11.25	1.6875	-0.4375
18	12	13	19	54	46	-0.0874667295724	0.194709607352	0.430253298504	0.44091796875	0.60107421875	0.466796875	-11.375	1.0	0.8125
18	12	13	19	54	46	-0.087162072384	0.19471079195	0.431049408386	0.36083984375	0.716796875	0.49560546875	1.8125	-1.875	0.5625
18	12	13	19	54	46	-0.087589165309	0.19519871126	0.430621297042	0.3974609375	0.59619140625	0.51953125	1.125	-1.0	1.125
18	12	13	19	54	46	-0.0880803550673	0.196242786931	0.432344528719	0.439453125	0.6953125	0.51171875	10.5	-4.375	1.625
18	12	13	19	54	46	-0.0882007168673	0.196177926652	0.433617918772	0.40673828125	0.6875	0.56201171875	10.125	-1.8125	-0.9375
18	12	13	19	54	46	-0.0881966450153	0.196413012913	0.434086186401	0.400390625	0.65234375	0.51513671875	4.1875	-1.375	-1.0625
18	12	13	19	54	46	-0.087895198078	0.195810969051	0.435081230486	0.39892578125	0.79541015625	0.572265625	4.3125	-0.25	-0.875
18	12	13	19	54	46	-0.0878931249438	0.196294645708	0.432812603456	0.42822265625	0.65185546875	0.5458984375	-11.1875	0.25	0.6875
18	12	13	19	54	46	-0.0877140146202	0.195754241397	0.433259621276	0.40234375	0.76904296875	0.5869140625	2.5625	-0.0625	-0.625
18	12	13	19	54	46	-0.0878956426208	0.196544423083	0.432153576219	0.44970703125	0.654296875	0.51220703125	-6.0625	-0.25	0.5
18	12	13	19	54	46	-0.0872852436935	0.1946521973	0.432885977814	0.35205078125	0.76416015625	0.603515625	4.9375	3.5625	-4.1875
18	12	13	19	54	46	-0.0882001733515	0.19556633593	0.430441261228	0.45654296875	0.60888671875	0.4990234375	-12.5	3.1875	3.9375
18	12	13	19	54	47	-0.0876522901114	0.194348810386	0.430204276257	0.37646484375	0.68994140625	0.5380859375	-1.9375	4.125	-4.5
18	12	13	19	54	47	-0.0875904131938	0.193736565489	0.430261200421	0.40234375	0.6865234375	0.5009765625	-1.0625	3.9375	-2.5
18	12	13	19	54	47	-0.0875917278709	0.193739473353	0.428985828207	0.4072265625	0.68994140625	0.4853515625	-10.375	3.0625	0.5
18	12	13	19	54	47	-0.0873431928824	0.193363546507	0.42817085819	0.37548828125	0.63232421875	0.556640625	-2.125	0.9375	-1.9375
18	12	13	19	54	47	-0.0872234919182	0.193612957568	0.42915911244	0.400390625	0.6474609375	0.48828125	5.1875	-1.0625	-2.1875
18	12	13	19	54	47	-0.0869153978	0.192996129104	0.430182390235	0.3359375	0.7724609375	0.578125	5.0625	-2.375	1.1875
18	12	13	19	54	47	-0.0875890865021	0.194710234106	0.42885081656	0.47509765625	0.62451171875	0.5087890625	-6.0625	-2.5	3.4375
18	12	13	19	54	47	-0.087341380501	0.193847815843	0.430237170616	0.3564453125	0.75244140625	0.60498046875	9.5625	-1.125	-1.0
18	12	13	19	54	47	-0.0880179553562	0.195018978754	0.429713180102	0.45654296875	0.6298828125	0.50341796875	-1.25	-1.1875	2.4375
18	12	13	19	54	47	-0.0875899003602	0.193247125115	0.431113216895	0.349609375	0.724609375	0.5888671875	9.375	3.4375	-4.875
18	12	13	19	54	47	-0.0880195553782	0.194045885262	0.431735308731	0.470703125	0.7587890625	0.4775390625	-0.4375	0.3125	2.1875
18	12	13	19	54	47	-0.087282419632	0.192936873047	0.430491542423	0.36962890625	0.7509765625	0.59130859375	-8.1875	2.5	-2.4375
18	12	13	19	54	47	-0.0869770260509	0.19287537005	0.428964588832	0.40478515625	0.71826171875	0.56005859375	-9.8125	0.875	-0.3125
18	12	13	19	54	47	-0.0866747353083	0.19294284388	0.426049051022	0.3779296875	0.61962890625	0.53173828125	-16.5	1.6875	0.1875
18	12	13	19	54	47	-0.0859993381737	0.191835287353	0.426517654477	0.3525390625	0.7470703125	0.58056640625	1.8125	0.75	-3.0
18	12	13	19	54	47	-0.0865550113729	0.193009129733	0.424351508508	0.4541015625	0.64111328125	0.5068359375	-12.6875	0.5625	3.5625
18	12	13	19	54	47	-0.0860645411169	0.192516001903	0.424340914783	0.3779296875	0.6494140625	0.53857421875	0.4375	0.9375	-4.125
18	12	13	19	54	47	-0.086183918095	0.192876190638	0.425853538632	0.43994140625	0.74609375	0.49267578125	4.9375	-0.125	-0.3125
18	12	13	19	54	47	-0.0860027659478	0.193246811207	0.423910013845	0.42822265625	0.6845703125	0.51318359375	-13.875	1.75	0.3125
18	12	13	19	54	47	-0.0853904631593	0.192815205947	0.424144623656	0.3896484375	0.7080078125	0.5673828125	0.75	-0.25	-3.5
18	12	13	19	54	47	-0.0859432267947	0.19306706417	0.422574544815	0.3759765625	0.64599609375	0.568359375	-6.4375	-0.1875	4.5625
18	12	13	19	54	47	-0.0861821766257	0.193848861872	0.422915227932	0.408203125	0.69677734375	0.5595703125	2.625	-3.6875	2.9375
18	12	13	19	54	47	-0.0860614657439	0.19324156067	0.424203678667	0.40234375	0.67138671875	0.60400390625	11.375	0.0	-4.1875
18	12	13	19	54	47	-0.0862451601785	0.194036351173	0.425183146358	0.43994140625	0.76171875	0.49609375	1.0	-2.125	2.1875
18	12	13	19	54	47	-0.0856342899969	0.193302777206	0.424387183427	0.37158203125	0.62646484375	0.5908203125	-0.9375	1.0625	-4.9375
18	12	13	19	54	47	-0.0858189889886	0.193428432507	0.426531362057	0.42626953125	0.74609375	0.54296875	11.3125	-1.5625	-0.375
18	12	13	19	54	47	-0.0859383949713	0.193727603437	0.425419469425	0.4384765625	0.71142578125	0.57177734375	-6.125	0.5625	0.9375
18	12	13	19	54	47	-0.0857593203901	0.193919829807	0.424523895597	0.39794921875	0.609375	0.55615234375	-2.125	-0.6875	-1.9375
18	12	13	19	54	47	-0.0857575453793	0.193427516944	0.425796894353	0.3720703125	0.7724609375	0.5673828125	5.9375	-0.5	1.25
18	12	13	19	54	47	-0.0857553824784	0.193788853643	0.423527828482	0.43212890625	0.58544921875	0.54541015625	-10.125	1.5625	-1.375
18	12	13	19	54	47	-0.0858166012059	0.192690618782	0.424139090882	0.35498046875	0.72509765625	0.576171875	3.875	2.875	0.0625
18	12	13	19	54	47	-0.0861224841167	0.193729811897	0.423715297475	0.46728515625	0.68505859375	0.51416015625	-3.75	-1.0	1.0
18	12	13	19	54	47	-0.0858820998971	0.193249984559	0.424283209939	0.41796875	0.74072265625	0.5732421875	2.5	1.5	-2.5625
18	12	13	19	54	47	-0.085879346461	0.192511342387	0.423537160692	0.41748046875	0.6318359375	0.52197265625	-3.5625	6.0	-3.6875
18	12	13	19	54	47	-0.0855151531564	0.192576950898	0.423791369283	0.39794921875	0.7958984375	0.56884765625	-2.125	-1.875	1.0
18	12	13	19	54	47	-0.0850890241721	0.191908100428	0.421355476227	0.37890625	0.58349609375	0.576171875	-10.375	3.5	-3.75
18	12	13	19	54	47	-0.0850280409318	0.191847187831	0.421905110496	0.3701171875	0.771484375	0.52001953125	-1.75	-0.375	2.5
18	12	13	19	54	47	-0.0847211672524	0.191599239197	0.418783810172	0.365234375	0.57080078125	0.578125	-14.0625	1.625	-1.125
18	12	13	19	54	47	-0.0841076932975	0.192019450736	0.420965718921	0.39599609375	0.74267578125	0.5283203125	9.0625	-5.0	-2.5
18	12	13	19	54	47	-0.0841708638589	0.192451583573	0.421220544953	0.443359375	0.64599609375	0.5068359375	1.125	0.8125	-2.25
18	12	13	19	54	47	-0.0836205054094	0.191899904385	0.422497181346	0.38623046875	0.708984375	0.5263671875	4.9375	0.75	-4.5
18	12	13	19	54	47	-0.0839866807622	0.1925712048	0.422374877089	0.44287109375	0.72900390625	0.533203125	-2.625	-0.5	2.625
18	12	13	19	54	47	-0.08368298839	0.192574637761	0.420612307072	0.384765625	0.64208984375	0.59765625	-7.1875	-0.625	-0.8125
18	12	13	19	54	47	-0.0840500995943	0.193492240896	0.420738806466	0.42138671875	0.673828125	0.51953125	0.125	-2.375	2.5625
18	12	13	19	54	47	-0.0833769689417	0.193061019592	0.419570486461	0.31494140625	0.595703125	0.55322265625	-4.75	-1.4375	-2.125
18	12	13	19	54	47	-0.0829498540816	0.192267873699	0.422317910516	0.359375	0.7548828125	0.59521484375	15.875	-2.375	-2.8125
18	12	13	19	54	47	-0.0835583388568	0.193911499305	0.422125253129	0.49755859375	0.63818359375	0.5205078125	0.4375	-2.0625	1.0
18	12	13	19	54	47	-0.0831929815834	0.192326548033	0.42341138169	0.34619140625	0.77001953125	0.611328125	7.3125	2.3125	-2.4375
18	12	13	19	54	47	-0.0842310068006	0.193914426526	0.423108216769	0.5078125	0.64892578125	0.47998046875	-2.125	0.5	3.0625
18	12	13	19	54	47	-0.0834388465019	0.192574660361	0.422321418396	0.35009765625	0.705078125	0.59912109375	-4.4375	2.9375	-4.125
18	12	13	19	54	48	-0.0838659204588	0.193672900739	0.421099698141	0.39404296875	0.68017578125	0.48095703125	-10.125	-1.8125	6.0
18	12	13	19	54	48	-0.0838034483487	0.193852696253	0.420421086836	0.3623046875	0.6591796875	0.55615234375	-3.25	-1.8125	2.0
18	12	13	19	54	48	-0.0839893055794	0.19446942411	0.420678992771	0.36865234375	0.62890625	0.5419921875	3.625	-4.125	1.875
18	12	13	19	54	48	-0.0841717044391	0.194833996062	0.423422127407	0.39794921875	0.73583984375	0.53369140625	14.6875	-4.125	1.125
18	12	13	19	54	48	-0.0842320003201	0.195991994948	0.425676790023	0.44580078125	0.69091796875	0.55224609375	14.8125	-6.9375	-0.875
18	12	13	19	54	48	-0.0843568591478	0.196059501869	0.427949304982	0.4111328125	0.7216796875	0.56787109375	14.8125	-2.9375	-1.0625
18	12	13	19	54	48	-0.0845995251335	0.196239158228	0.42910148751	0.439453125	0.70361328125	0.57666015625	9.125	-1.125	-0.9375
18	12	13	19	54	48	-0.0847786636029	0.196352023622	0.428348928125	0.40478515625	0.697265625	0.5830078125	-2.25	-0.875	2.0
18	12	13	19	54	48	-0.08453467584	0.195986169041	0.427434176829	0.37841796875	0.68505859375	0.58935546875	-3.25	-0.1875	-0.625
18	12	13	19	54	48	-0.0849019438259	0.19678207541	0.426218744598	0.40478515625	0.7060546875	0.52099609375	-8.625	-1.625	5.375
18	12	13	19	54	48	-0.0844787627484	0.196059093893	0.424530198638	0.33203125	0.6015625	0.5595703125	-6.75	1.25	-1.625
18	12	13	19	54	48	-0.0850864871253	0.197212654162	0.426958376931	0.43505859375	0.744140625	0.49560546875	11.875	-4.625	4.0
18	12	13	19	54	48	-0.0854515830341	0.197698341034	0.427563099396	0.4443359375	0.66064453125	0.52685546875	4.875	-0.5625	-0.625
18	12	13	19	54	48	-0.0858806453152	0.197946647304	0.430196722233	0.41455078125	0.7236328125	0.5322265625	15.75	-2.8125	1.0625
18	12	13	19	54	48	-0.0867962477856	0.199045403677	0.430624140737	0.47705078125	0.7431640625	0.54443359375	2.875	-1.875	4.875
18	12	13	19	54	48	-0.0867356793325	0.199290635483	0.430016087894	0.4287109375	0.7158203125	0.56787109375	-2.75	-1.0	0.375
18	12	13	19	54	48	-0.0866731396213	0.198676809484	0.428848928859	0.3779296875	0.6357421875	0.560546875	-4.125	2.125	-0.9375
18	12	13	19	54	48	-0.0866743781561	0.198313418753	0.428366750633	0.39794921875	0.78515625	0.57177734375	-4.8125	1.125	2.9375
18	12	13	19	54	48	-0.0868550957285	0.198368981811	0.426096572931	0.46484375	0.708984375	0.5625	-13.5	3.9375	0.75
18	12	13	19	54	48	-0.0863689900747	0.196970127895	0.424276219088	0.37451171875	0.70703125	0.57080078125	-11.625	6.25	-2.6875
18	12	13	19	54	48	-0.0861269560852	0.196852893958	0.421539871527	0.412109375	0.68212890625	0.5146484375	-18.6875	4.1875	0.6875
18	12	13	19	54	48	-0.0856378807148	0.195874525455	0.418911457837	0.40185546875	0.63818359375	0.5615234375	-14.875	6.4375	-4.125
18	12	13	19	54	48	-0.085759189549	0.195445498175	0.417686928174	0.421875	0.6884765625	0.53369140625	-8.6875	5.0	0.1875
18	12	13	19	54	48	-0.0856960140774	0.195440624698	0.415418142315	0.40576171875	0.623046875	0.52490234375	-13.9375	3.375	-0.4375
18	12	13	19	54	48	-0.0850251525025	0.195197729866	0.416824670811	0.39453125	0.71435546875	0.51904296875	4.75	-0.8125	-4.0
18	12	13	19	54	48	-0.0846578992015	0.195317431467	0.417124789577	0.40576171875	0.63671875	0.4990234375	0.0625	-0.1875	-3.125
18	12	13	19	54	48	-0.0838639895731	0.194583987452	0.418282329363	0.38330078125	0.72314453125	0.56787109375	5.125	0.0	-5.0
18	12	13	19	54	48	-0.0836846943008	0.195020130044	0.418545549833	0.41943359375	0.61962890625	0.55078125	3.875	-1.9375	-2.9375
18	12	13	19	54	48	-0.0835594956273	0.194829737065	0.419628584688	0.3740234375	0.703125	0.5888671875	7.3125	-2.75	0.0
18	12	13	19	54	48	-0.0841692171097	0.195499639161	0.420235721393	0.4521484375	0.625	0.52587890625	5.9375	0.0625	-0.375
18	12	13	19	54	48	-0.0838681158316	0.194532521947	0.421293839498	0.36865234375	0.68798828125	0.55419921875	6.1875	1.875	-3.125
18	12	13	19	54	48	-0.0841092507718	0.195319014855	0.420180030706	0.38916015625	0.69091796875	0.54345703125	-7.25	-2.625	4.5625
18	12	13	19	54	48	-0.0840470841609	0.195804681182	0.419991275317	0.43310546875	0.64111328125	0.5625	0.75	-1.6875	-1.6875
18	12	13	19	54	48	-0.0845341063066	0.196534167731	0.421754999696	0.40234375	0.69580078125	0.5224609375	9.9375	-3.875	3.125
18	12	13	19	54	48	-0.0842926408981	0.19611314642	0.422195653217	0.359375	0.685546875	0.5888671875	4.375	-1.875	-0.625
18	12	13	19	54	48	-0.0846011262046	0.196731190301	0.423554988985	0.4296875	0.6640625	0.5654296875	11.125	-3.5	0.0
18	12	13	19	54	48	-0.0849653048028	0.196421229063	0.425314830364	0.4033203125	0.75927734375	0.55126953125	9.0625	0.4375	1.3125
18	12	13	19	54	48	-0.0848452102203	0.19618165874	0.424775408578	0.404296875	0.66015625	0.5595703125	-1.625	1.25	-1.5
18	12	13	19	54	48	-0.0849653116087	0.195749823512	0.425497979328	0.41796875	0.703125	0.56884765625	5.3125	1.3125	-1.6875
18	12	13	19	54	48	-0.0852099879863	0.19556790939	0.424890205138	0.384765625	0.65869140625	0.5322265625	-2.6875	1.8125	1.375
18	12	13	19	54	48	-0.0853937972653	0.195996771279	0.424893654584	0.4052734375	0.75146484375	0.5361328125	-2.5	-1.5	3.8125
18	12	13	19	54	48	-0.0859408243887	0.196723918327	0.423356220142	0.42138671875	0.5908203125	0.51953125	-6.125	0.5	2.125
18	12	13	19	54	48	-0.0855753810296	0.196542601224	0.424763963328	0.34912109375	0.732421875	0.53955078125	6.125	-3.625	0.375
18	12	13	19	54	48	-0.0862459528532	0.197028970849	0.425431204096	0.4287109375	0.64892578125	0.5341796875	6.375	-0.375	1.75
18	12	13	19	54	48	-0.0865518954246	0.197641070088	0.427082942373	0.4072265625	0.72900390625	0.521484375	8.25	-3.6875	2.625
18	12	13	19	54	48	-0.0872218833883	0.198187162604	0.428601865047	0.45361328125	0.72607421875	0.5517578125	9.9375	-1.8125	2.0625
18	12	13	19	54	48	-0.0874044033999	0.198735151865	0.429819698842	0.44677734375	0.7021484375	0.5537109375	8.5	-2.8125	-0.5
18	12	13	19	54	48	-0.0874059714755	0.198677679576	0.430559862282	0.4033203125	0.771484375	0.57177734375	3.625	-2.0	1.6875
18	12	13	19	54	48	-0.0875867356108	0.198916495718	0.428717234098	0.41455078125	0.60791015625	0.56689453125	-6.1875	0.3125	0.25
18	12	13	19	54	48	-0.0875869835965	0.198001515531	0.429633991314	0.36474609375	0.7568359375	0.583984375	5.625	0.5	1.0625
18	12	13	19	54	49	-0.0877091769464	0.198429042626	0.428535929952	0.45703125	0.74072265625	0.53955078125	-8.375	1.125	1.5
18	12	13	19	54	49	-0.087223350234	0.197824267396	0.426106513634	0.40869140625	0.6640625	0.57373046875	-13.0625	3.375	-2.6875
18	12	13	19	54	49	-0.0873484596783	0.198258418613	0.425816110913	0.43798828125	0.677734375	0.513671875	-2.375	0.4375	0.125
18	12	13	19	54	49	-0.0871636574483	0.197155891847	0.425014388524	0.38818359375	0.67724609375	0.5634765625	-3.8125	5.0	-2.4375
18	12	13	19	54	49	-0.0875298270585	0.197888214312	0.424220570472	0.45263671875	0.7080078125	0.5009765625	-7.3125	0.75	2.875
18	12	13	19	54	49	-0.087833151695	0.197884001247	0.421403807715	0.3779296875	0.68701171875	0.58642578125	-15.4375	1.1875	5.3125
18	12	13	19	54	49	-0.0883226982264	0.198924446109	0.419761710921	0.44921875	0.62939453125	0.5185546875	-8.875	-0.375	3.25
18	12	13	19	54	49	-0.0879580469897	0.198561781303	0.419464051987	0.4052734375	0.677734375	0.51904296875	-3.8125	2.3125	-2.375
18	12	13	19	54	49	-0.0871617682733	0.197395769325	0.419084524485	0.3447265625	0.712890625	0.56103515625	-4.375	1.9375	-2.5625
18	12	13	19	54	49	-0.0879562600041	0.198801900648	0.419516568361	0.49169921875	0.7353515625	0.5107421875	-0.25	-1.625	4.625
18	12	13	19	54	49	-0.0876496747014	0.198676665148	0.418899524705	0.3984375	0.630859375	0.5693359375	-1.5	-0.25	-2.3125
18	12	13	19	54	49	-0.0874048565066	0.198125813003	0.419994984373	0.3544921875	0.6591796875	0.55908203125	7.625	-1.5	-1.6875
18	12	13	19	54	49	-0.0877125302934	0.198924938223	0.419884826644	0.42626953125	0.68505859375	0.5498046875	-0.4375	-2.875	3.0
18	12	13	19	54	49	-0.0874057033124	0.198982257541	0.419571790901	0.36572265625	0.642578125	0.58447265625	1.0	-3.5	-0.375
18	12	13	19	54	49	-0.0879579567038	0.19923301227	0.420684411938	0.42236328125	0.6806640625	0.5888671875	9.6875	-2.0625	1.875
18	12	13	19	54	49	-0.0882613100189	0.199656116924	0.421224965727	0.44091796875	0.69677734375	0.55029296875	3.3125	-0.9375	1.125
18	12	13	19	54	49	-0.0880780978074	0.199045514172	0.422445263288	0.40380859375	0.755859375	0.58544921875	6.625	-0.125	-1.25
18	12	13	19	54	49	-0.0880804359623	0.199294957323	0.422151278666	0.44677734375	0.6533203125	0.5400390625	-0.9375	0.625	-1.6875
18	12	13	19	54	49	-0.0876509022071	0.197763874061	0.421224844102	0.33203125	0.68115234375	0.5771484375	-4.75	4.4375	-1.625
18	12	13	19	54	49	-0.0880167876149	0.198312443107	0.420002437988	0.44970703125	0.669921875	0.50341796875	-8.9375	2.0625	2.0
18	12	13	19	54	49	-0.0880145949053	0.198368539142	0.419381609982	0.4404296875	0.76220703125	0.5673828125	-6.4375	0.875	1.5
18	12	13	19	54	49	-0.0880770671094	0.198982147454	0.417374209906	0.43115234375	0.56884765625	0.52294921875	-9.625	0.75	-0.5625
18	12	13	19	54	49	-0.0883229749702	0.198986108088	0.41921367802	0.40185546875	0.765625	0.52734375	7.0625	-0.9375	2.375
18	12	13	19	54	49	-0.0883226768373	0.199717898142	0.418357724287	0.42626953125	0.65478515625	0.5322265625	-5.0625	-1.6875	1.125
18	12	13	19	54	49	-0.087955914286	0.198679043026	0.419453881314	0.34130859375	0.72509765625	0.62646484375	8.1875	-1.5	-0.625
18	12	13	19	54	49	-0.0886876438422	0.200752691395	0.420121853108	0.52001953125	0.736328125	0.5009765625	0.5625	-4.4375	4.625
18	12	13	19	54	49	-0.088079518563	0.199231842404	0.418362453382	0.3623046875	0.52978515625	0.59130859375	-3.8125	5.3125	-7.5625
18	12	13	19	54	49	-0.0877715503155	0.197882730266	0.420790728703	0.353515625	0.72265625	0.513671875	11.3125	2.6875	-3.375
18	12	13	19	54	49	-0.0883815675935	0.199529934022	0.419507261098	0.47314453125	0.7861328125	0.5595703125	-10.875	-4.0	8.75
18	12	13	19	54	49	-0.0886248186597	0.200626569514	0.417793997056	0.458984375	0.5595703125	0.5390625	-6.125	-1.3125	-0.3125
18	12	13	19	54	49	-0.0886241538772	0.200747136434	0.419805048462	0.39208984375	0.7685546875	0.513671875	7.1875	-2.5	2.1875
18	12	13	19	54	49	-0.0884413807069	0.200625823591	0.41809762446	0.376953125	0.59228515625	0.599609375	-5.0625	-1.125	-0.4375
18	12	13	19	54	49	-0.0882591897844	0.20074998285	0.420238258413	0.37646484375	0.69091796875	0.595703125	15.125	-6.1875	-0.625
18	12	13	19	54	49	-0.0892408086768	0.202226264806	0.422154194808	0.48974609375	0.88525390625	0.61572265625	8.8125	-6.875	9.5
18	12	13	19	54	49	-0.0900303720939	0.204109535107	0.419755165349	0.50048828125	0.5400390625	0.54345703125	-8.1875	-2.5625	2.75
18	12	13	19	54	49	-0.0892966933553	0.201482149532	0.422984336946	0.3212890625	0.68310546875	0.63623046875	23.5625	2.375	-8.6875
18	12	13	19	54	49	-0.0896023762433	0.202826087368	0.425428176033	0.5556640625	0.8916015625	0.49169921875	5.0625	-2.1875	1.875
18	12	13	19	54	49	-0.0891170044486	0.201428845671	0.420559014144	0.36083984375	0.56591796875	0.62158203125	-22.75	6.875	-2.3125
18	12	13	19	54	49	-0.0891128264894	0.199832461593	0.419745827238	0.2900390625	0.6904296875	0.58642578125	-3.6875	3.4375	3.0625
18	12	13	19	54	49	-0.0901552852446	0.201674382159	0.416350169705	0.52001953125	0.6591796875	0.498046875	-21.5	1.75	7.25
18	12	13	19	54	49	-0.0891136835141	0.200933045293	0.41572143727	0.3759765625	0.70361328125	0.55029296875	-6.8125	1.0625	-3.6875
18	12	13	19	54	49	-0.0896056090874	0.202284052122	0.414883736354	0.44091796875	0.66455078125	0.4921875	-7.375	-2.375	5.1875
18	12	13	19	54	49	-0.0896637471621	0.203254103506	0.415236536381	0.435546875	0.5546875	0.50146484375	4.4375	-3.25	-2.1875
18	12	13	19	54	49	-0.0897846431063	0.203190398981	0.420541258329	0.44873046875	0.8115234375	0.5078125	26.0	-2.8125	-1.625
18	12	13	19	54	49	-0.0898462437418	0.203679969678	0.419384198879	0.44287109375	0.72412109375	0.61865234375	-5.25	-2.375	2.625
18	12	13	19	54	49	-0.0902147254453	0.205516225016	0.41707524964	0.462890625	0.6376953125	0.62841796875	-8.375	-7.375	5.375
18	12	13	19	54	49	-0.0903987250183	0.205823430629	0.41866634362	0.44921875	0.697265625	0.5791015625	10.8125	-2.8125	-0.625
18	12	13	19	54	49	-0.0894790309174	0.204532218693	0.419196442251	0.40869140625	0.75927734375	0.57275390625	0.0625	2.9375	-5.1875
18	12	13	19	54	49	-0.0887498709553	0.203746264958	0.417869062283	0.46728515625	0.71142578125	0.56689453125	-9.9375	5.125	-5.875
18	12	13	19	54	49	-0.0876486976974	0.202824945995	0.417185827828	0.42529296875	0.84375	0.63037109375	-8.5625	1.0	-2.6875
18	12	13	19	54	50	-0.0880162160584	0.203743501528	0.412736236468	0.5029296875	0.58349609375	0.56005859375	-23.4375	4.0625	1.5
18	12	13	19	54	50	-0.0874044918065	0.202031332318	0.410593586859	0.361328125	0.55517578125	0.53955078125	-10.375	8.5625	-6.125
18	12	13	19	54	50	-0.0864301356203	0.201304087059	0.410054838346	0.3828125	0.68603515625	0.5029296875	-8.375	2.625	-4.3125
18	12	13	19	54	50	-0.0859444098207	0.201127010198	0.406343704671	0.36181640625	0.46484375	0.5400390625	-16.75	2.5	-3.0
18	12	13	19	54	50	-0.0860620933606	0.20032325561	0.409069609718	0.37548828125	0.73486328125	0.56640625	14.0625	0.1875	-0.125
18	12	13	19	54	50	-0.0872843248557	0.202524048861	0.408222073171	0.560546875	0.59521484375	0.478515625	-5.0	0.625	3.0625
18	12	13	19	54	50	-0.0864903402361	0.201363184502	0.410295036745	0.40087890625	0.767578125	0.5693359375	7.875	1.5625	-5.1875
18	12	13	19	54	50	-0.0865545523036	0.201126410325	0.409272407049	0.419921875	0.63330078125	0.5615234375	-4.8125	2.6875	-0.75
18	12	13	19	54	50	-0.0866735453563	0.201180285559	0.408098115671	0.4365234375	0.60400390625	0.56591796875	-4.6875	1.9375	-1.3125
18	12	13	19	54	50	-0.086611766776	0.200140932529	0.407179067063	0.33984375	0.63232421875	0.57763671875	-4.1875	3.375	0.5625
18	12	13	19	54	50	-0.0863084879543	0.199962239419	0.407554295666	0.44140625	0.6748046875	0.53564453125	0.0625	2.0625	-3.625
18	12	13	19	54	50	-0.0853923760867	0.200083065627	0.406636175475	0.40576171875	0.673828125	0.54443359375	-8.4375	-1.25	-3.0625
18	12	13	19	54	50	-0.0850881891375	0.199902309487	0.405298117556	0.34326171875	0.693359375	0.6181640625	-8.0	-2.5625	3.25
18	12	13	19	54	50	-0.0857577096003	0.201790027003	0.404129391647	0.48291015625	0.5478515625	0.52099609375	-3.9375	-3.0625	2.5
18	12	13	19	54	50	-0.084963171791	0.201116128629	0.408519043676	0.40966796875	0.837890625	0.578125	19.625	-3.0	-4.9375
18	12	13	19	54	50	-0.0846005263636	0.199964880496	0.406155773754	0.345703125	0.57275390625	0.62451171875	-9.0	3.4375	-1.8125
