18	12	13	19	55	38	0.275468396956	-0.0785570190301	0.70573135511	-1.2158203125	0.60400390625	-0.0283203125	-12.3125	4.4375	-7.25
18	12	13	19	55	38	0.286270734306	-0.0892383397772	0.702675627576	-1.27783203125	0.48681640625	-0.12548828125	-19.8125	-11.75	-30.0
18	12	13	19	55	38	0.304773884508	-0.113229632638	0.693600170171	-1.80078125	0.177734375	0.03271484375	-52.0	1.125	-76.0
18	12	13	19	55	38	0.314717084124	-0.12824293905	0.694257586273	-0.93896484375	0.455078125	0.04296875	18.5625	23.875	-76.9375
18	12	13	19	55	38	0.326555134591	-0.125494833032	0.698034489567	-0.40185546875	1.18896484375	0.11376953125	72.6875	-37.9375	-75.875
18	12	13	19	55	38	0.338269568126	-0.102664997039	0.705898151458	1.0751953125	2.18505859375	-0.11865234375	123.1875	-105.625	34.5
18	12	13	19	55	38	0.332722081109	-0.0856983676164	0.70292193837	1.66552734375	1.27392578125	-0.10009765625	-17.0625	-48.4375	103.75
18	12	13	19	55	38	0.315073431209	-0.0766625783801	0.706015958696	-0.03271484375	1.3154296875	0.05078125	-4.5625	43.125	65.25
18	12	13	19	55	38	0.319469972297	-0.0745267168847	0.703334446079	-1.1171875	1.1240234375	0.0869140625	-3.0625	-27.3125	16.875
18	12	13	19	55	38	0.316302325127	-0.0609165805628	0.694680965316	-0.2021484375	1.15771484375	0.033203125	-57.9375	-57.0625	55.375
18	12	13	19	55	38	0.308356944034	-0.0536511785047	0.685441108769	-0.39794921875	1.20556640625	-0.0166015625	-86.25	-19.3125	63.0625
18	12	13	19	55	38	0.300969882476	-0.0472420784904	0.668469307012	-0.36279296875	1.0751953125	0.00732421875	-139.375	-32.4375	81.9375
18	12	13	19	55	38	0.291157887271	-0.0393704061404	0.652999387427	-0.025390625	0.92724609375	0.11767578125	-124.5	-24.4375	91.1875
18	12	13	19	55	38	0.27882910246	-0.0278340785293	0.644151383156	-0.115234375	0.87060546875	0.15087890625	-71.0	-15.0	96.1875
18	12	13	19	55	38	0.266919341494	-0.0148322433073	0.637725424177	-0.193359375	0.86083984375	0.2353515625	-45.875	-20.4375	110.0625
18	12	13	19	55	38	0.256669047219	6.10390124182e-05	0.63584339236	-0.20751953125	0.70849609375	0.27587890625	-4.0625	-26.4375	104.4375
18	12	13	19	55	38	0.245498894226	0.017274039549	0.642496608807	-0.140625	0.92431640625	0.2353515625	62.125	-20.5625	103.875
18	12	13	19	55	38	0.230780279656	0.0337533707087	0.650103347953	-0.03125	1.1845703125	0.1611328125	65.0625	-3.375	112.5625
18	12	13	19	55	38	0.213387820004	0.0477925237595	0.651272322495	0.05322265625	1.203125	0.15087890625	13.375	9.625	123.8125
18	12	13	19	55	38	0.195748028	0.0600000971389	0.649441539733	0.13037109375	1.09033203125	0.1513671875	-9.25	14.8125	121.125
18	12	13	19	55	38	0.179088248585	0.0726363380422	0.647623148427	0.16015625	1.0498046875	0.1689453125	-5.25	9.5625	117.75
18	12	13	19	55	38	0.162486415883	0.0866146597062	0.644696290216	0.22802734375	1.05712890625	0.1845703125	-9.1875	2.1875	123.0
18	12	13	19	55	38	0.145756850403	0.100284131161	0.64137897154	0.29345703125	1.02978515625	0.1875	-9.8125	3.8125	121.625
18	12	13	19	55	38	0.128792808771	0.112983644092	0.639019864938	0.27880859375	0.9765625	0.1923828125	-1.1875	8.625	118.625
18	12	13	19	55	38	0.111884685884	0.125069133321	0.637370370978	0.27880859375	1.0029296875	0.15869140625	4.5	10.9375	115.75
18	12	13	19	55	38	0.0953411417856	0.135870282724	0.634976887321	0.326171875	1.0205078125	0.15380859375	-0.625	14.625	109.75
18	12	13	19	55	38	0.0794140640723	0.14503291025	0.63079549433	0.375	0.97021484375	0.197265625	-13.125	19.375	103.25
18	12	13	19	55	38	0.0630513735598	0.15509539227	0.625203503749	0.404296875	0.97412109375	0.21533203125	-18.3125	18.8125	97.125
18	12	13	19	55	38	0.0486474331565	0.164253754861	0.620086917737	0.39697265625	1.001953125	0.171875	-19.0625	15.25	87.6875
18	12	13	19	55	38	0.0357075884512	0.173166544335	0.613743251072	0.37060546875	1.02978515625	0.154296875	-29.8125	11.3125	86.625
18	12	13	19	55	38	0.0228284978512	0.182078633931	0.604955193057	0.3720703125	0.994140625	0.1591796875	-46.9375	11.625	90.9375
18	12	13	19	55	38	0.0103153860832	0.189461292321	0.595118427878	0.3369140625	0.9130859375	0.19091796875	-52.25	16.875	88.0625
18	12	13	19	55	38	-0.000244154153039	0.194468782896	0.585542697526	0.29833984375	0.83740234375	0.2197265625	-51.5625	19.8125	73.75
18	12	13	19	55	38	-0.00732454078693	0.197396374208	0.576807586971	0.2041015625	0.85400390625	0.26953125	-48.5625	14.75	57.6875
18	12	13	19	55	38	-0.011963480133	0.202402551638	0.567593886514	0.27392578125	0.8310546875	0.34619140625	-48.5625	-3.9375	50.3125
18	12	13	19	55	38	-0.0172734921057	0.207587090641	0.561357974898	0.35400390625	0.8115234375	0.26904296875	-31.75	-2.1875	45.875
18	12	13	19	55	38	-0.0228894309114	0.211071072244	0.555083959221	0.328125	0.8759765625	0.291015625	-33.125	6.0625	46.1875
18	12	13	19	55	38	-0.029909099537	0.215345516666	0.547641716419	0.35107421875	0.796875	0.31298828125	-36.5625	7.0625	54.125
18	12	13	19	55	39	-0.0379652059301	0.220771945095	0.541645076245	0.40380859375	0.7255859375	0.3154296875	-22.5625	4.0625	57.1875
18	12	13	19	55	39	-0.0440692964303	0.226694414047	0.540184589208	0.4453125	0.73876953125	0.29833984375	4.125	-8.375	43.5625
18	12	13	19	55	39	-0.0464503376532	0.232190649714	0.540740527292	0.4013671875	0.79052734375	0.287109375	10.875	-20.875	27.4375
18	12	13	19	55	39	-0.0469369403827	0.238102736584	0.540537768569	0.333984375	0.74609375	0.2734375	3.5	-29.25	24.125
18	12	13	19	55	39	-0.0467544351834	0.243660189624	0.540605786448	0.35693359375	0.6806640625	0.27294921875	5.8125	-29.5625	16.5
18	12	13	19	55	39	-0.0465111315244	0.246716527062	0.542568829554	0.39697265625	0.68505859375	0.2470703125	15.5	-18.0	4.25
18	12	13	19	55	39	-0.0452900048971	0.246958705948	0.544639775871	0.32763671875	0.66259765625	0.22119140625	12.0625	-7.75	-6.3125
18	12	13	19	55	39	-0.0423614684816	0.246355744657	0.546365280085	0.255859375	0.63623046875	0.2265625	7.5625	-10.0625	-13.3125
18	12	13	19	55	39	-0.0389427310482	0.246169332786	0.548677444188	0.24951171875	0.5947265625	0.2265625	12.125	-14.5	-16.125
18	12	13	19	55	39	-0.0344860109264	0.245613642421	0.552081360761	0.228515625	0.583984375	0.19775390625	16.1875	-16.75	-22.6875
18	12	13	19	55	39	-0.0288703505787	0.243475324436	0.556593503017	0.0751953125	0.5166015625	0.18603515625	22.125	-16.25	-27.9375
18	12	13	19	55	39	-0.0230716477287	0.240238109683	0.56293599736	-0.0595703125	0.38623046875	0.220703125	38.4375	-16.6875	-30.5
18	12	13	19	55	39	-0.0161752122773	0.232678902645	0.572968745836	-0.27783203125	0.4384765625	0.22509765625	59.1875	-6.75	-40.0625
18	12	13	19	55	39	-0.0122687993967	0.225599415771	0.583958227999	-0.30712890625	0.76513671875	0.15673828125	62.75	0.875	-16.0625
18	12	13	19	55	39	-0.0165411370902	0.225594253452	0.589621344249	0.2412109375	1.0068359375	0.0634765625	35.0	10.125	22.8125
18	12	13	19	55	39	-0.02465950023	0.227673108559	0.587555319836	0.72802734375	0.80078125	0.0791015625	-8.0	27.5625	20.8125
18	12	13	19	55	39	-0.0267951565479	0.22601928177	0.587723376766	0.90087890625	0.71533203125	0.19287109375	4.3125	22.6875	-34.0
18	12	13	19	55	39	-0.02130223882	0.219797598827	0.589077096996	0.42919921875	0.70068359375	0.26513671875	3.1875	9.6875	-56.9375
18	12	13	19	55	39	-0.0165408578124	0.214970115186	0.594311190109	0.1728515625	0.673828125	0.28271484375	35.0	-3.125	-38.25
18	12	13	19	55	39	-0.0155033351866	0.210759907084	0.603226226966	0.23046875	0.634765625	0.19091796875	62.375	5.375	-29.0
18	12	13	19	55	39	-0.01605264186	0.203923484617	0.614822286904	0.341796875	0.80419921875	0.1611328125	79.125	22.4375	-38.375
18	12	13	19	55	39	-0.0155035207069	0.195136833464	0.625267976855	0.4345703125	0.9677734375	0.13671875	66.9375	29.375	-52.1875
18	12	13	19	55	39	-0.0137951379925	0.185257715962	0.631768487711	0.44189453125	0.99560546875	0.1005859375	34.9375	35.0	-58.4375
18	12	13	19	55	39	-0.0107429543025	0.173718454232	0.637130437554	0.427734375	0.9951171875	0.05078125	21.4375	39.5	-70.0625
18	12	13	19	55	39	-0.00787385696862	0.161505624333	0.641261560561	0.44140625	0.95068359375	0.0419921875	12.4375	44.3125	-74.125
18	12	13	19	55	39	-0.00689738837168	0.150155534463	0.645851914697	0.48876953125	0.8955078125	0.06298828125	21.75	46.5625	-68.375
18	12	13	19	55	39	-0.00695821823251	0.13855399463	0.652180366792	0.5166015625	0.927734375	0.10205078125	39.375	49.5625	-69.25
18	12	13	19	55	39	-0.00695812209924	0.126650029438	0.661082635586	0.4755859375	1.0078125	0.083984375	58.875	48.0625	-70.25
18	12	13	19	55	39	-0.00720256400454	0.116522836311	0.66898391093	0.47998046875	1.076171875	0.076171875	54.1875	41.4375	-62.1875
18	12	13	19	55	39	-0.00720236535519	0.106387481475	0.67342116071	0.47705078125	1.0185546875	0.080078125	28.875	42.1875	-63.0625
18	12	13	19	55	39	-0.00756869610833	0.0946697392259	0.676604809361	0.4296875	0.90234375	0.14501953125	24.8125	50.1875	-66.0625
18	12	13	19	55	39	-0.00653109364004	0.0811198453048	0.681248001089	0.3115234375	0.9931640625	0.15380859375	36.25	50.8125	-72.25
18	12	13	19	55	39	-0.00518815832647	0.0668356866762	0.68489793625	0.2705078125	0.98583984375	0.1806640625	31.9375	53.0	-75.0
18	12	13	19	55	39	-0.00463893703954	0.0524932349211	0.689919807341	0.29931640625	1.00537109375	0.07421875	37.1875	56.4375	-75.375
18	12	13	19	55	39	-0.00457794496627	0.0363183633991	0.69444373175	0.216796875	0.97509765625	0.00830078125	30.25	66.125	-77.125
18	12	13	19	55	39	-0.00573755830714	0.0194100376773	0.698334091404	0.1767578125	0.91162109375	0.09033203125	34.1875	73.5625	-73.3125
18	12	13	19	55	39	-0.00659221611656	0.00390649843944	0.703352836214	0.1181640625	1.0537109375	0.15869140625	50.0625	66.125	-66.4375
18	12	13	19	55	39	-0.00897228452027	-0.0103150754008	0.707650794068	0.15771484375	1.1484375	0.05810546875	39.75	67.1875	-58.8125
18	12	13	19	55	39	-0.012757188245	-0.0262468466285	0.708664858968	0.12451171875	1.09130859375	0.1044921875	18.3125	79.8125	-59.5
18	12	13	19	55	39	-0.0167244594442	-0.0454734389997	0.708531113971	0.0556640625	0.93896484375	0.052734375	8.1875	93.9375	-68.875
18	12	13	19	55	39	-0.0211187919661	-0.0639057086372	0.708761307255	0.05029296875	0.97607421875	0.13134765625	18.75	93.0625	-64.75
18	12	13	19	55	39	-0.0246584363582	-0.081970990171	0.707526223427	-0.00439453125	1.12060546875	0.134765625	9.5625	88.25	-65.625
18	12	13	19	55	39	-0.0287482469052	-0.0983299910069	0.704118421015	-0.1044921875	1.18798828125	0.21044921875	-2.25	83.6875	-52.75
18	12	13	19	55	39	-0.0328370512531	-0.110596165187	0.697024396488	-0.19921875	1.1845703125	0.3056640625	-28.0625	66.3125	-33.625
18	12	13	19	55	39	-0.0392459643247	-0.119202750118	0.688177679255	-0.14208984375	1.2275390625	0.36328125	-42.4375	60.5	-15.8125
18	12	13	19	55	39	-0.0455331053931	-0.127016611693	0.678479892158	-0.142578125	1.15087890625	0.408203125	-47.0625	56.875	-13.5625
18	12	13	19	55	39	-0.0493182872618	-0.134526615254	0.669581202057	-0.3193359375	1.13671875	0.3818359375	-41.9375	45.3125	-10.0
18	12	13	19	55	39	-0.0514553980339	-0.140022162621	0.66190075478	-0.482421875	1.076171875	0.29345703125	-40.5625	28.625	3.3125
18	12	13	19	55	39	-0.0524318089061	-0.142402107308	0.656404741532	-0.52685546875	0.92578125	0.2529296875	-28.6875	11.125	16.4375
18	12	13	19	55	39	-0.0538966651284	-0.142585061993	0.652863794126	-0.50390625	0.90625	0.21435546875	-19.125	3.25	27.875
18	12	13	19	55	40	-0.0530411976528	-0.140812477543	0.650899115961	-0.46728515625	0.89892578125	0.2412109375	-6.9375	-13.0	23.9375
18	12	13	19	55	40	-0.0505395030573	-0.134161627681	0.651581153546	-0.30126953125	1.00244140625	0.27734375	10.9375	-38.3125	25.875
18	12	13	19	55	40	-0.0467550778524	-0.121343465758	0.651091926177	-0.16064453125	1.09619140625	0.33447265625	0.3125	-69.5	32.375
18	12	13	19	55	40	-0.0415047384854	-0.102480082231	0.649366048156	0.22412109375	1.18896484375	0.33154296875	-23.25	-102.0	39.75
18	12	13	19	55	40	-0.0416884272382	-0.0813626259276	0.644858321775	0.51416015625	1.4375	0.193359375	-49.9375	-87.0625	31.75
18	12	13	19	55	40	-0.0477922829407	-0.0664697268485	0.635155167664	0.3662109375	1.5126953125	0.15673828125	-91.375	-39.3125	44.75
18	12	13	19	55	40	-0.0593877396607	-0.0561528473667	0.616826821183	0.08837890625	1.23583984375	0.2841796875	-142.1875	-3.625	75.625
18	12	13	19	55	40	-0.077639999428	-0.0435199053398	0.600184052182	0.1884765625	0.93017578125	0.4619140625	-124.1875	10.25	114.1875
18	12	13	19	55	40	-0.101382270215	-0.0294808166851	0.593095436293	0.36279296875	1.12353515625	0.55517578125	-52.4375	21.4375	148.5
18	12	13	19	55	40	-0.129092421045	-0.0126956139846	0.58613452449	0.40087890625	1.3798828125	0.5107421875	-51.0	22.125	178.625
18	12	13	19	55	40	-0.156739320303	0.00854497852117	0.57049938741	0.35791015625	1.31298828125	0.49365234375	-111.125	7.1875	190.75
18	12	13	19	55	40	-0.182502428365	0.0357680344554	0.548300773913	0.357421875	1.06103515625	0.5439453125	-154.8125	-21.125	200.375
18	12	13	19	55	40	-0.204048994358	0.0673245709773	0.524252710901	0.3974609375	0.9072265625	0.544921875	-167.625	-53.25	195.0
18	12	13	19	55	40	-0.219434478277	0.100652977657	0.499053211235	0.4580078125	0.81396484375	0.52685546875	-176.5	-78.25	172.3125
18	12	13	19	55	40	-0.229682829955	0.133976564377	0.472976946405	0.53369140625	0.734375	0.501953125	-182.8125	-91.5	148.3125
18	12	13	19	55	40	-0.23578327642	0.165469444053	0.447823427154	0.5458984375	0.73486328125	0.46044921875	-177.0625	-96.0625	125.375
18	12	13	19	55	40	-0.234992018368	0.192693455062	0.424206370821	0.50244140625	0.53466796875	0.3701171875	-170.25	-94.25	78.9375
18	12	13	19	55	40	-0.226936783857	0.214546206363	0.399611383516	0.46435546875	0.41552734375	0.27587890625	-181.4375	-81.5	28.0625
18	12	13	19	55	40	-0.217171589789	0.232492013914	0.37434327155	0.50634765625	0.37939453125	0.3095703125	-182.25	-64.75	10.875
18	12	13	19	55	40	-0.203372093471	0.247318044041	0.350774136007	0.50830078125	0.33544921875	0.34326171875	-174.375	-60.25	-18.25
18	12	13	19	55	40	-0.183845768955	0.259349492793	0.328871514984	0.54931640625	0.34619140625	0.4814453125	-170.5	-60.25	-55.1875
18	12	13	19	55	40	-0.157779838507	0.267951060366	0.310493631909	0.49609375	0.31689453125	0.53857421875	-157.875	-59.9375	-100.0
18	12	13	19	55	40	-0.125064626148	0.274299868184	0.295906933902	0.36962890625	0.3203125	0.48388671875	-145.4375	-65.8125	-141.6875
18	12	13	19	55	40	-0.0882016813532	0.279864850522	0.279376536715	0.22998046875	0.3447265625	0.443359375	-161.9375	-68.5625	-160.3125
18	12	13	19	55	40	-0.0509656698997	0.283515612796	0.260382691967	0.15283203125	0.25439453125	0.42724609375	-172.75	-60.0625	-161.5
18	12	13	19	55	40	-0.0153201080397	0.283086299156	0.248234579273	0.052734375	-0.02685546875	0.595703125	-124.5	-44.5	-171.0625
18	12	13	19	55	40	0.0142830297664	0.278030771734	0.253371181881	-0.13818359375	-0.3212890625	0.70654296875	-10.9375	-23.625	-174.3125
18	12	13	19	55	40	0.033631734881	0.273021325087	0.275645943235	-0.388671875	-0.24951171875	0.5869140625	103.0625	-18.0	-144.75
18	12	13	19	55	40	0.0440076658463	0.272102877036	0.306466699326	-0.45751953125	0.087890625	0.47265625	165.3125	-30.4375	-101.3125
18	12	13	19	55	40	0.0492574789851	0.273021937423	0.335707725425	-0.3798828125	0.1611328125	0.42822265625	166.9375	-31.375	-69.125
18	12	13	19	55	40	0.050296676465	0.270649834279	0.359523573275	-0.357421875	0.1552734375	0.306640625	138.875	-2.6875	-44.625
18	12	13	19	55	40	0.0540178847583	0.253304205364	0.379040750677	-0.6064453125	0.7265625	0.3369140625	82.6875	46.625	-36.125
18	12	13	19	55	40	0.0521277888427	0.24757647722	0.385525895001	-0.26220703125	1.4384765625	0.53759765625	4.3125	7.5625	41.5625
18	12	13	19	55	40	0.0482202994358	0.263990879822	0.374897568525	0.6318359375	0.81884765625	0.64111328125	-45.8125	-71.625	65.125
18	12	13	19	55	40	0.0618934518243	0.28041273933	0.378624340893	2.5908203125	0.4091796875	0.63330078125	18.5625	-123.5625	-42.0625
18	12	13	19	55	40	0.0603063342996	0.278825237936	0.39644700534	0.8818359375	0.4365234375	0.54443359375	110.4375	10.4375	-34.25
18	12	13	19	55	40	0.0598184710862	0.276507830633	0.423368281076	-0.14892578125	0.94287109375	0.458984375	159.8125	-2.25	-41.25
18	12	13	19	55	40	0.0589007541468	0.282845694007	0.439894026048	0.42724609375	1.19384765625	0.3896484375	106.125	-39.3125	-6.75
18	12	13	19	55	40	0.0559105370887	0.293896545941	0.447406372118	0.966796875	1.158203125	0.3974609375	51.1875	-39.125	10.0625
18	12	13	19	55	40	0.0577426817921	0.302569211039	0.445033713474	1.04443359375	0.99462890625	0.44775390625	-11.375	-33.6875	-9.25
18	12	13	19	55	40	0.0620762002329	0.307817382276	0.441186603032	0.724609375	0.66015625	0.54833984375	-13.125	-34.5	-19.125
18	12	13	19	55	40	0.0630508578431	0.310798613879	0.440867711714	0.48876953125	0.576171875	0.57666015625	14.9375	-23.3125	-4.8125
18	12	13	19	55	40	0.0606728726077	0.313924128593	0.447111460615	0.44580078125	0.65087890625	0.537109375	57.3125	-19.4375	3.3125
18	12	13	19	55	40	0.0596954383197	0.315323757014	0.45418584513	0.380859375	0.8330078125	0.53662109375	54.375	-16.8125	0.4375
18	12	13	19	55	40	0.0615864853422	0.315562070584	0.459670784056	0.3388671875	0.9189453125	0.513671875	35.5625	-18.0	-8.375
18	12	13	19	55	40	0.0669600454767	0.314474160707	0.460602099514	0.18798828125	0.82177734375	0.45166015625	-0.75	-19.25	-14.3125
18	12	13	19	55	40	0.0720838102472	0.315130154366	0.461861297325	0.20556640625	0.751953125	0.3125	-1.5	-23.25	-13.1875
18	12	13	19	55	40	0.0748339435383	0.317281271217	0.464019281222	0.31640625	0.6787109375	0.2607421875	9.625	-20.8125	-8.625
18	12	13	19	55	40	0.0784341603316	0.318192434092	0.469384196848	0.24365234375	0.6689453125	0.24609375	26.1875	-20.25	-18.9375
18	12	13	19	55	40	0.0827694133667	0.318015223924	0.47769426918	0.21142578125	0.8125	0.2314453125	39.1875	-18.5	-25.75
18	12	13	19	55	41	0.0860647840122	0.319355283654	0.484587461186	0.31005859375	0.87744140625	0.22314453125	33.3125	-20.6875	-18.25
18	12	13	19	55	41	0.0910056065535	0.319953983604	0.490124091633	0.296875	0.80810546875	0.2099609375	22.9375	-21.125	-26.9375
18	12	13	19	55	41	0.097111427583	0.320510437611	0.496421898512	0.3251953125	0.86962890625	0.17724609375	23.75	-23.75	-34.8125
18	12	13	19	55	41	0.101625928984	0.321662850299	0.501842875741	0.3994140625	0.841796875	0.1875	24.0625	-20.375	-29.9375
18	12	13	19	55	41	0.105961234091	0.322583595722	0.50783264265	0.4384765625	0.87451171875	0.1875	28.125	-18.5625	-33.25
18	12	13	19	55	41	0.110420028061	0.322165233889	0.514377875329	0.375	0.8564453125	0.17236328125	29.5625	-13.5	-35.875
18	12	13	19	55	41	0.114874869257	0.323016901227	0.521026505834	0.384765625	0.9091796875	0.1767578125	33.375	-20.9375	-32.75
18	12	13	19	55	41	0.117683409523	0.326559253603	0.52627923076	0.552734375	0.9599609375	0.154296875	30.625	-25.75	-24.125
18	12	13	19	55	41	0.118595159618	0.329722620822	0.530229619971	0.6318359375	0.8896484375	0.17822265625	28.125	-16.9375	-20.875
18	12	13	19	55	41	0.120674625939	0.331870481148	0.536229938731	0.51171875	0.9208984375	0.15234375	37.0625	-18.875	-25.625
18	12	13	19	55	41	0.123906169857	0.333692133304	0.541585933566	0.4091796875	0.9990234375	0.13671875	29.25	-21.875	-22.25
18	12	13	19	55	41	0.125006336735	0.337602562735	0.545132613955	0.46875	0.9248046875	0.18359375	30.1875	-25.375	-8.125
18	12	13	19	55	41	0.125189862166	0.342425707826	0.548491517027	0.564453125	0.9697265625	0.18505859375	32.875	-26.625	-5.9375
18	12	13	19	55	41	0.126719999163	0.34524485321	0.552172019472	0.46435546875	0.96826171875	0.162109375	28.375	-21.875	-12.4375
18	12	13	19	55	41	0.130444047906	0.345429511979	0.556203165428	0.31396484375	1.0849609375	0.18017578125	22.5625	-18.5625	-18.0
18	12	13	19	55	41	0.134287432365	0.346949893439	0.55802532122	0.23486328125	0.99365234375	0.21240234375	14.1875	-26.1875	-7.1875
18	12	13	19	55	41	0.137947189749	0.350178330792	0.559906890074	0.37109375	1.0625	0.1513671875	15.0625	-31.625	-8.8125
18	12	13	19	55	41	0.140815516124	0.352374501338	0.560149107704	0.41650390625	0.97021484375	0.189453125	6.6875	-23.125	-9.1875
18	12	13	19	55	41	0.144602705355	0.353419022376	0.561869102067	0.40771484375	0.9912109375	0.18701171875	12.1875	-21.6875	-20.0625
18	12	13	19	55	41	0.148259589098	0.354748757446	0.563374231113	0.38818359375	1.0107421875	0.0703125	4.8125	-19.8125	-16.375
18	12	13	19	55	41	0.152906527717	0.353974033626	0.563282011089	0.30419921875	0.97021484375	0.1044921875	-9.8125	-12.875	-18.75
18	12	13	19	55	41	0.157357053518	0.352130660103	0.563323602372	0.2529296875	0.857421875	0.15234375	-7.375	-8.5	-21.3125
18	12	13	19	55	41	0.16065157963	0.35249349254	0.564783079908	0.30126953125	0.90576171875	0.12451171875	7.25	-15.25	-16.0
18	12	13	19	55	41	0.163521820886	0.353839490733	0.565703708834	0.37646484375	0.99853515625	0.11376953125	5.75	-18.1875	-13.0625
18	12	13	19	55	41	0.16589834688	0.355112796964	0.565568094992	0.37548828125	0.943359375	0.12158203125	0.0625	-15.0	-9.625
18	12	13	19	55	41	0.168222879873	0.356405441065	0.566073653098	0.361328125	0.93994140625	0.0693359375	1.0625	-14.5625	-10.125
18	12	13	19	55	41	0.171513637074	0.357859236357	0.56544567041	0.31005859375	0.9794921875	0.09619140625	-5.4375	-19.375	-7.375
18	12	13	19	55	41	0.174816972347	0.35964441378	0.564431753942	0.32373046875	0.9365234375	0.10693359375	-6.0	-21.0625	-6.8125
18	12	13	19	55	41	0.178355271966	0.359518327132	0.563570919255	0.251953125	0.85107421875	0.10791015625	-9.9375	-12.5	-10.9375
18	12	13	19	55	41	0.182745302552	0.358471329956	0.564105573208	0.1923828125	0.84326171875	0.15087890625	-1.0625	-13.0625	-18.125
18	12	13	19	55	41	0.185863955201	0.359459058187	0.564611358164	0.28662109375	0.92041015625	0.11669921875	3.3125	-17.75	-11.625
18	12	13	19	55	41	0.188851258501	0.359085957905	0.563562918467	0.31103515625	0.91552734375	0.14404296875	-8.9375	-9.5625	-12.3125
18	12	13	19	55	41	0.193070041173	0.358366807374	0.562790319194	0.26953125	0.91015625	0.1904296875	-6.5625	-13.625	-17.1875
18	12	13	19	55	41	0.196724209293	0.359572546369	0.561729102739	0.318359375	1.041015625	0.119140625	-8.5	-19.5	-9.5625
18	12	13	19	55	41	0.200696853832	0.359887059062	0.558447541275	0.27197265625	0.95068359375	0.138671875	-23.875	-15.875	-5.5
18	12	13	19	55	41	0.204541136961	0.362143409605	0.557406643606	0.2783203125	0.92431640625	0.115234375	-5.0	-25.875	-7.9375
18	12	13	19	55	41	0.206861525226	0.36605150982	0.555089616525	0.3564453125	1.0224609375	0.10546875	-8.375	-27.4375	4.25
18	12	13	19	55	41	0.209054723518	0.369340184528	0.552575886719	0.37646484375	0.9150390625	0.1328125	-8.375	-24.0	0.3125
18	12	13	19	55	41	0.211495049917	0.372389985439	0.551107880434	0.34326171875	0.98779296875	0.119140625	-4.0625	-24.1875	-0.8125
18	12	13	19	55	41	0.213812885392	0.375988402516	0.548723334191	0.3447265625	0.99951171875	0.1103515625	-8.9375	-26.0625	4.5
18	12	13	19	55	41	0.216501753275	0.378435542799	0.546045865464	0.3193359375	0.9658203125	0.1064453125	-14.625	-21.625	1.8125
18	12	13	19	55	41	0.219612285323	0.379407994877	0.544697063431	0.232421875	0.89599609375	0.1015625	-10.5	-16.5625	-3.75
18	12	13	19	55	41	0.223033621811	0.380695319987	0.544155648178	0.20947265625	0.94140625	0.130859375	-2.8125	-20.6875	-4.5
18	12	13	19	55	41	0.225532246836	0.38306911533	0.543474729589	0.2578125	0.966796875	0.12890625	0.3125	-22.3125	0.125
18	12	13	19	55	41	0.227489243376	0.385700168739	0.543178636115	0.27734375	0.962890625	0.11669921875	3.625	-21.3125	0.0625
18	12	13	19	55	41	0.229572261144	0.387300185313	0.542647540966	0.291015625	0.943359375	0.10791015625	-1.375	-16.375	-3.375
18	12	13	19	55	41	0.232800113243	0.3864945771	0.542752649964	0.220703125	0.9189453125	0.11474609375	-5.125	-8.875	-12.3125
18	12	13	19	55	41	0.237010165853	0.384782921849	0.543664575651	0.15771484375	0.90087890625	0.0732421875	-6.75	-7.625	-18.5625
18	12	13	19	55	41	0.240558764135	0.383453477872	0.544599161028	0.18310546875	0.88525390625	0.0302734375	-6.875	-6.3125	-16.9375
18	12	13	19	55	41	0.243912869634	0.381129118618	0.545935111614	0.197265625	0.85009765625	0.017578125	-7.9375	0.1875	-22.1875
18	12	13	19	55	42	0.247572865073	0.377646281116	0.549225996038	0.13525390625	0.8232421875	0.01025390625	0.8125	3.6875	-29.875
18	12	13	19	55	42	0.250318718523	0.375508597013	0.552947396024	0.16455078125	0.90234375	0.02734375	9.625	0.0	-25.25
18	12	13	19	55	42	0.252034920631	0.373565927407	0.556381279137	0.22998046875	0.95166015625	0.02783203125	9.5625	3.5625	-23.1875
18	12	13	19	55	42	0.254900094435	0.369165654009	0.559547214005	0.15478515625	0.8701171875	0.1044921875	5.0625	9.9375	-30.5
18	12	13	19	55	42	0.258731696267	0.364812302097	0.564461129295	0.1416015625	0.9072265625	0.123046875	17.25	4.625	-40.125
18	12	13	19	55	42	0.262168138716	0.360626161475	0.570116511201	0.1728515625	1.0458984375	0.041015625	17.3125	6.4375	-41.9375
18	12	13	19	55	42	0.265268916862	0.354566759791	0.574423786605	0.1455078125	0.97021484375	0.033203125	2.9375	17.4375	-41.0
18	12	13	19	55	42	0.267659763741	0.349086930179	0.578596784607	0.18359375	0.9228515625	0.09228515625	9.5	16.75	-39.9375
18	12	13	19	55	42	0.269729947748	0.343891949675	0.583346709805	0.21240234375	1.0126953125	0.060546875	11.9375	17.0625	-42.0
18	12	13	19	55	42	0.272602730516	0.337609875164	0.587017568153	0.12890625	1.03173828125	0.08203125	2.75	18.4375	-40.1875
18	12	13	19	55	42	0.275835908599	0.332907511728	0.588905697315	0.0810546875	1.0751953125	0.14599609375	-0.6875	8.3125	-28.8125
18	12	13	19	55	42	0.278949922096	0.329490520672	0.589640316727	0.08837890625	1.1201171875	0.11865234375	-6.0625	3.125	-21.875
18	12	13	19	55	42	0.283530980643	0.325587567438	0.589402615519	-0.04150390625	1.0546875	0.08984375	-17.0	-1.1875	-19.375
18	12	13	19	55	42	0.289385230104	0.3232617968	0.588841871928	-0.10498046875	1.052734375	0.1318359375	-12.3125	-14.6875	-16.3125
18	12	13	19	55	42	0.29336060641	0.324491257528	0.587942022669	-0.06201171875	1.029296875	0.09716796875	-4.125	-23.875	-1.0
18	12	13	19	55	42	0.297381164952	0.326984996028	0.585545467034	-0.04345703125	1.044921875	0.14306640625	-6.9375	-30.0625	5.8125
18	12	13	19	55	42	0.300670664144	0.33057903309	0.583701494357	0.00244140625	1.0302734375	0.10498046875	-2.0625	-31.9375	6.875
18	12	13	19	55	42	0.303180601291	0.333211778226	0.582372884421	0.03857421875	0.96826171875	0.01123046875	-7.25	-23.25	3.125
18	12	13	19	55	42	0.306604095923	0.333827951543	0.581772573808	0.02734375	0.93896484375	0.00244140625	-9.8125	-17.25	-8.125
18	12	13	19	55	42	0.310209314933	0.334808754901	0.580986276964	0.01318359375	0.951171875	0.029296875	-8.0	-19.8125	-6.5625
18	12	13	19	55	42	0.313553996755	0.336199224086	0.579620158301	0.02880859375	0.95751953125	0.0283203125	-10.625	-21.25	-3.6875
18	12	13	19	55	42	0.316603941369	0.337601002451	0.578212673335	0.0322265625	0.9775390625	0.064453125	-8.3125	-19.8125	-2.3125
18	12	13	19	55	42	0.319909787161	0.338893176554	0.576887502091	0.02490234375	0.9658203125	0.05517578125	-9.1875	-20.8125	-3.75
18	12	13	19	55	42	0.323254144979	0.340588770579	0.575826964451	0.0107421875	0.95263671875	0.04833984375	-5.75	-22.625	-3.3125
18	12	13	19	55	42	0.326676491976	0.34297369365	0.574735771385	0.00732421875	0.9765625	0.01416015625	-6.3125	-26.25	-1.8125
18	12	13	19	55	42	0.329611272489	0.34590871874	0.573340496757	0.02392578125	0.94921875	0.0380859375	-4.1875	-27.125	1.8125
18	12	13	19	55	42	0.332545342612	0.350307951772	0.572004846847	0.03955078125	0.95947265625	0.03076171875	1.375	-33.9375	3.875
18	12	13	19	55	42	0.334971404137	0.355235709198	0.569842024239	0.09033203125	1.0380859375	0.01318359375	-3.625	-34.25	7.4375
18	12	13	19	55	42	0.337599465457	0.35926784554	0.567589482785	0.07373046875	1.0029296875	0.02783203125	-5.8125	-31.125	5.9375
18	12	13	19	55	42	0.341138918163	0.363539702376	0.565085722733	0.017578125	0.9990234375	0.03173828125	-6.5	-36.75	7.0
18	12	13	19	55	42	0.345000321152	0.368806075797	0.561693728812	0.01416015625	1.015625	-0.00830078125	-11.5	-43.0625	11.5
18	12	13	19	55	42	0.348835387817	0.373739121541	0.557709350566	0.0107421875	0.931640625	0.0390625	-12.625	-41.875	12.5625
18	12	13	19	55	42	0.351949373383	0.378745380132	0.554292795645	0.06640625	0.93896484375	0.05712890625	-6.8125	-39.1875	10.6875
18	12	13	19	55	42	0.35426604006	0.38313713533	0.551663761209	0.11181640625	0.955078125	0.0712890625	-2.4375	-32.4375	7.0
18	12	13	19	55	42	0.357016325684	0.386864331028	0.550082258003	0.09326171875	1.01171875	0.0419921875	-0.9375	-30.6875	1.3125
18	12	13	19	55	42	0.359519600304	0.390161168954	0.548130052755	0.0986328125	1.0537109375	0.0146484375	-6.75	-27.25	3.125
18	12	13	19	55	42	0.362032551751	0.392491874517	0.546009302885	0.07177734375	1.013671875	0.00634765625	-11.875	-22.875	3.6875
18	12	13	19	55	42	0.364956104691	0.394560337969	0.544168535427	0.01416015625	0.97998046875	0.00439453125	-11.125	-23.6875	3.6875
18	12	13	19	55	42	0.368126641869	0.39705916189	0.541660722923	-0.00244140625	0.99755859375	0.07080078125	-9.5	-27.875	7.0625
18	12	13	19	55	42	0.371779281155	0.399795483757	0.539266121984	-0.0029296875	0.98291015625	0.078125	-7.3125	-31.125	4.625
18	12	13	19	55	42	0.376059733729	0.402428473377	0.535981256593	0.01416015625	0.9853515625	0.11474609375	-11.0625	-33.5625	3.5625
18	12	13	19	55	42	0.380825185845	0.404752653845	0.532447202456	0.01953125	0.97412109375	0.11279296875	-14.5	-34.875	1.3125
18	12	13	19	55	42	0.386010549142	0.406763804472	0.528414504099	0.01708984375	0.9453125	0.1142578125	-18.6875	-35.0625	0.375
18	12	13	19	55	42	0.391260423832	0.408656558121	0.523287927225	0.0673828125	0.94189453125	0.1640625	-22.4375	-35.375	0.75
18	12	13	19	55	42	0.396125817032	0.410530392197	0.518320560591	0.1416015625	1.0	0.1650390625	-22.4375	-32.9375	-2.8125
18	12	13	19	55	42	0.40176977161	0.411108996019	0.512680691546	0.16748046875	1.01171875	0.1474609375	-34.0625	-29.875	-7.75
18	12	13	19	55	42	0.408582309658	0.410657570866	0.506913068675	0.13330078125	0.9912109375	0.0849609375	-44.375	-29.4375	-13.0
18	12	13	19	55	42	0.415795491608	0.409752662238	0.501188605636	0.0810546875	0.9345703125	0.09814453125	-45.0	-29.9375	-13.375
18	12	13	19	55	42	0.422519299536	0.410372327475	0.494607611116	0.0712890625	0.8916015625	0.14453125	-40.375	-36.5	-4.6875
18	12	13	19	55	42	0.428073768809	0.412508559762	0.487770923507	0.123046875	0.9365234375	0.1845703125	-33.0625	-39.5625	0.8125
18	12	13	19	55	43	0.433859890016	0.41335103759	0.481286611252	0.09521484375	0.9453125	0.23388671875	-33.375	-34.9375	-1.375
18	12	13	19	55	43	0.441127233474	0.41256108635	0.474820637774	0.015625	0.95458984375	0.2939453125	-37.9375	-34.125	-6.25
18	12	13	19	55	43	0.447423340862	0.413301970119	0.468054867357	0.00634765625	1.0078125	0.265625	-35.9375	-38.6875	2.6875
18	12	13	19	55	43	0.451808920783	0.416650593524	0.459560843634	0.09228515625	1.01513671875	0.27783203125	-32.9375	-44.3125	17.5
18	12	13	19	55	43	0.456572063797	0.421779807599	0.451200627753	0.07568359375	1.06884765625	0.263671875	-27.0	-56.1875	18.1875
18	12	13	19	55	43	0.460035050576	0.430310084458	0.441723983152	0.126953125	1.12255859375	0.24462890625	-18.9375	-69.1875	31.0
18	12	13	19	55	43	0.462844529678	0.440749089912	0.430555889799	0.18798828125	1.1103515625	0.25244140625	-18.375	-78.1875	39.5625
18	12	13	19	55	43	0.465417246809	0.4527212747	0.418417734673	0.248046875	1.11767578125	0.23583984375	-16.6875	-86.625	43.0
18	12	13	19	55	43	0.467141687262	0.464639033509	0.40494158543	0.33837890625	1.08349609375	0.24755859375	-20.875	-84.4375	47.375
18	12	13	19	55	43	0.469015763843	0.474142953349	0.392168959226	0.3642578125	0.9638671875	0.19677734375	-28.4375	-71.5	39.75
18	12	13	19	55	43	0.472007555529	0.480736002502	0.381793257447	0.27392578125	0.87158203125	0.20068359375	-27.8125	-59.5	27.0625
18	12	13	19	55	43	0.474880262015	0.485562015981	0.373128925668	0.2548828125	0.84033203125	0.18603515625	-27.8125	-48.0	20.6875
18	12	13	19	55	43	0.477856922059	0.487927990157	0.366525841993	0.19775390625	0.78173828125	0.1171875	-31.4375	-32.0625	13.625
18	12	13	19	55	43	0.481172142976	0.488924123461	0.361413200376	0.1201171875	0.77099609375	0.1533203125	-28.375	-26.4375	10.125
18	12	13	19	55	43	0.483613563882	0.491548659591	0.355614366171	0.16064453125	0.7529296875	0.14306640625	-24.1875	-31.8125	15.375
18	12	13	19	55	43	0.485327882702	0.494789060141	0.350796043503	0.1865234375	0.7470703125	0.11083984375	-17.6875	-30.5625	13.5
18	12	13	19	55	43	0.486050795564	0.498746835433	0.347920323335	0.18798828125	0.78662109375	0.1220703125	-3.6875	-29.0625	11.25
18	12	13	19	55	43	0.486729037423	0.502538270015	0.345117378679	0.208984375	0.8291015625	0.13525390625	-3.75	-27.4375	10.9375
18	12	13	19	55	43	0.487570729167	0.505882098565	0.343155062516	0.21630859375	0.8330078125	0.12890625	-2.25	-24.5625	6.1875
18	12	13	19	55	43	0.489408802193	0.508697051319	0.34200018941	0.181640625	0.84033203125	0.17529296875	1.375	-26.3125	-0.625
18	12	13	19	55	43	0.490388242469	0.513399988474	0.33907227868	0.28173828125	0.8720703125	0.2119140625	4.75	-35.375	5.75
18	12	13	19	55	43	0.490516765609	0.519571765663	0.334315620364	0.3984375	0.865234375	0.23583984375	6.1875	-41.875	11.1875
18	12	13	19	55	43	0.490505401059	0.526335001659	0.329791025625	0.4033203125	0.8642578125	0.203125	8.6875	-44.4375	10.4375
18	12	13	19	55	43	0.491601623325	0.532619290432	0.325943961827	0.35888671875	0.86279296875	0.19189453125	7.6875	-46.8125	4.0625
18	12	13	19	55	43	0.49294356555	0.537562404878	0.322586273394	0.40283203125	0.96435546875	0.18798828125	3.0625	-38.5625	0.75
18	12	13	19	55	43	0.494473919689	0.540130812903	0.319232020735	0.3759765625	0.9501953125	0.2099609375	-6.5	-25.875	3.0
18	12	13	19	55	43	0.497342463714	0.541778560128	0.31459291335	0.29052734375	0.86962890625	0.26123046875	-14.1875	-30.3125	5.25
18	12	13	19	55	43	0.500086419659	0.545804072328	0.310928868759	0.28662109375	0.89599609375	0.29638671875	3.5	-44.625	0.625
18	12	13	19	55	43	0.502477742538	0.551126280051	0.306723840653	0.337890625	1.01953125	0.29638671875	6.1875	-51.6875	3.75
18	12	13	19	55	43	0.503258348304	0.557826324457	0.298414804713	0.474609375	1.0458984375	0.236328125	-6.125	-55.8125	23.1875
18	12	13	19	55	43	0.504424152789	0.56399796367	0.289628824417	0.46240234375	0.990234375	0.248046875	-9.1875	-56.1875	23.625
18	12	13	19	55	43	0.508823761108	0.568092939615	0.280170473067	0.29638671875	0.900390625	0.22607421875	-27.125	-60.4375	18.4375
18	12	13	19	55	43	0.513107781317	0.571889936136	0.268945144478	0.27490234375	0.7783203125	0.283203125	-29.875	-63.25	26.0
18	12	13	19	55	43	0.514803840147	0.579139060388	0.258561663133	0.4033203125	0.88720703125	0.22412109375	-10.6875	-71.1875	27.5
18	12	13	19	55	43	0.514973548031	0.587608195673	0.245614976565	0.5146484375	0.94921875	0.20458984375	-13.8125	-75.6875	42.0625
18	12	13	19	55	43	0.51350534461	0.597248282065	0.229621669609	0.61376953125	0.8857421875	0.2451171875	-12.25	-83.6875	56.0625
18	12	13	19	55	43	0.508333662461	0.609841693281	0.215101804336	0.70361328125	0.86669921875	0.2177734375	14.4375	-86.4375	60.375
18	12	13	19	55	43	0.502650638727	0.621431226822	0.203013482016	0.66259765625	0.8720703125	0.181640625	20.375	-76.5625	56.9375
18	12	13	19	55	43	0.497887231126	0.63162156034	0.193246410904	0.5830078125	0.90576171875	0.16943359375	20.6875	-69.4375	49.9375
18	12	13	19	55	43	0.494465850751	0.640834090486	0.18274666796	0.505859375	0.9404296875	0.1826171875	12.4375	-72.8125	53.625
18	12	13	19	55	43	0.491618312262	0.650506127859	0.168837379155	0.60595703125	0.9443359375	0.17626953125	2.0	-86.0	59.5625
18	12	13	19	55	43	0.490017927371	0.658606556594	0.152962746137	0.677734375	0.9189453125	0.15283203125	-15.0625	-84.25	60.5
18	12	13	19	55	43	0.490383345066	0.662817120248	0.139839213785	0.47607421875	0.71826171875	0.16259765625	-24.1875	-61.6875	49.625
18	12	13	19	55	43	0.492939583992	0.667018793198	0.133122985722	0.158203125	0.69384765625	0.14501953125	-10.3125	-60.9375	24.6875
18	12	13	19	55	43	0.494000288906	0.673031902321	0.126597874607	0.3408203125	0.82958984375	0.08056640625	-1.25	-66.125	22.1875
18	12	13	19	55	43	0.494830253285	0.67653861199	0.117313895006	0.53125	0.78515625	0.001953125	-22.6875	-47.75	30.625
18	12	13	19	55	43	0.497513611	0.677267945976	0.110416160262	0.4453125	0.6396484375	0.05419921875	-27.75	-31.5625	16.125
18	12	13	19	55	43	0.499404388813	0.678181638242	0.107058824001	0.45751953125	0.70751953125	0.056640625	-13.375	-22.9375	6.25
18	12	13	19	55	43	0.499958757002	0.679531295531	0.103031422515	0.5693359375	0.8642578125	-0.05615234375	-15.875	-17.125	16.4375
18	12	13	19	55	43	0.501607120923	0.678311016649	0.0942420777203	0.693359375	0.73193359375	-0.01416015625	-41.5	-12.5	27.25
18	12	13	19	55	44	0.505755066263	0.675499797048	0.087222301435	0.4599609375	0.62841796875	0.04345703125	-46.75	-10.1875	18.1875
18	12	13	19	55	44	0.507972417671	0.675343286362	0.0838685534582	0.44970703125	0.673828125	0.06494140625	-18.5625	-16.0625	7.25
18	12	13	19	55	44	0.508570041666	0.675509439644	0.0796548132949	0.54931640625	0.7041015625	0.03466796875	-16.25	-12.125	15.5625
18	12	13	19	55	44	0.506858761583	0.676666212779	0.0753818124465	0.7431640625	0.81103515625	0.0107421875	-7.125	-9.0625	21.0
18	12	13	19	55	44	0.506984255249	0.67606039142	0.0698888721719	0.755859375	0.810546875	0.04833984375	-21.375	-6.6875	21.1875
18	12	13	19	55	44	0.509174130089	0.675134866089	0.065126923616	0.58251953125	0.77587890625	0.0732421875	-25.8125	-13.25	14.9375
18	12	13	19	55	44	0.510161494097	0.67527119038	0.0596348145169	0.783203125	0.7763671875	0.083984375	-19.8125	-18.25	10.875
18	12	13	19	55	44	0.513346322533	0.673515258362	0.0539593518572	0.6376953125	0.7451171875	0.087890625	-34.6875	-13.25	11.9375
18	12	13	19	55	44	0.51612859409	0.671772860283	0.0478529822335	0.60498046875	0.69189453125	0.15869140625	-30.6875	-16.8125	15.625
18	12	13	19	55	44	0.516309367924	0.672013966289	0.0429698303604	0.77099609375	0.75	0.115234375	-13.5	-15.8125	12.875
18	12	13	19	55	44	0.516318456697	0.671842682688	0.0392472830897	0.76513671875	0.75	0.09375	-12.125	-7.875	11.625
18	12	13	19	55	44	0.517981070639	0.670640822898	0.0376613623125	0.59228515625	0.72216796875	0.1298828125	-13.125	-3.5625	4.25
18	12	13	19	55	44	0.518155308628	0.670568290798	0.0383931781278	0.60205078125	0.681640625	0.07861328125	0.625	2.3125	-2.875
18	12	13	19	55	44	0.51918027417	0.669453238549	0.0391246832522	0.56298828125	0.71240234375	0.08984375	-5.375	6.5	-0.6875
18	12	13	19	55	44	0.521395437365	0.667644965335	0.0394922556749	0.4951171875	0.71533203125	0.06884765625	-14.5625	6.625	-0.625
18	12	13	19	55	44	0.524320800445	0.665747027992	0.0402243780551	0.36962890625	0.6044921875	0.11181640625	-13.3125	2.9375	-4.75
18	12	13	19	55	44	0.528280142459	0.663417315816	0.0414445079988	0.34130859375	0.63623046875	0.14990234375	-15.625	1.5625	-9.125
18	12	13	19	55	44	0.533350523737	0.65976033544	0.0433370189807	0.3037109375	0.6416015625	0.2021484375	-19.5	6.25	-12.0625
18	12	13	19	55	44	0.538115449562	0.657262608993	0.0452905698248	0.27783203125	0.65673828125	0.19287109375	-15.3125	-0.8125	-13.5
18	12	13	19	55	44	0.540966450769	0.657118899806	0.0454111519093	0.548828125	0.74365234375	0.126953125	-10.1875	-10.9375	-13.6875
18	12	13	19	55	44	0.543480512319	0.656339392292	0.0433368333048	0.685546875	0.70166015625	0.1025390625	-19.0	-8.4375	-9.3125
18	12	13	19	55	44	0.546099227087	0.655905028979	0.0412000646344	0.662109375	0.6728515625	0.12109375	-17.1875	-12.75	-11.75
18	12	13	19	55	44	0.548227141572	0.657115721016	0.0397345657051	0.69384765625	0.75	0.09619140625	-9.5	-20.3125	-15.5625
18	12	13	19	55	44	0.550249634244	0.657613927825	0.0365001975904	0.72705078125	0.77392578125	0.12353515625	-15.5	-20.3125	-6.3125
18	12	13	19	55	44	0.552391037172	0.657681041494	0.032655160761	0.69287109375	0.720703125	0.14697265625	-17.8125	-21.125	-3.3125
18	12	13	19	55	44	0.553059164211	0.658836841242	0.0283213168739	0.775390625	0.7373046875	0.13720703125	-10.5625	-23.75	0.1875
18	12	13	19	55	44	0.554715719496	0.658969069947	0.0241711515097	0.6376953125	0.69091796875	0.16845703125	-15.0	-22.125	2.375
18	12	13	19	55	44	0.556788663858	0.659698737006	0.0216684910841	0.48291015625	0.712890625	0.19970703125	-8.0	-27.0	0.3125
18	12	13	19	55	44	0.557950496861	0.661044074063	0.0184945848976	0.5517578125	0.744140625	0.20556640625	-4.75	-29.4375	3.6875
18	12	13	19	55	44	0.559793939702	0.661363792026	0.0151378145291	0.556640625	0.74462890625	0.22802734375	-9.8125	-26.4375	4.1875
18	12	13	19	55	44	0.56192931777	0.662034040901	0.0128793271833	0.57080078125	0.80322265625	0.232421875	-6.8125	-27.25	-2.0625
18	12	13	19	55	44	0.564464541186	0.662183802695	0.00964374973046	0.62109375	0.82177734375	0.2236328125	-13.1875	-27.1875	-0.6875
18	12	13	19	55	44	0.566789694905	0.662007433872	0.00561540511859	0.71875	0.83740234375	0.205078125	-17.0625	-24.625	0.75
18	12	13	19	55	44	0.570575107771	0.660665914261	0.00268563379781	0.609375	0.7861328125	0.216796875	-22.4375	-20.25	-4.875
18	12	13	19	55	44	0.574365647542	0.659269219883	-0.000427264562465	0.5986328125	0.76953125	0.24365234375	-21.75	-21.1875	-4.5625
18	12	13	19	55	44	0.577966617955	0.658170244103	-0.00396745487032	0.64892578125	0.802734375	0.20458984375	-23.8125	-22.5625	-4.25
18	12	13	19	55	44	0.582076577918	0.65605694835	-0.00811830797642	0.626953125	0.7509765625	0.19482421875	-30.8125	-18.375	-2.0625
18	12	13	19	55	44	0.586641446949	0.653905922501	-0.011475246283	0.55078125	0.7041015625	0.181640625	-31.5	-17.875	-6.6875
18	12	13	19	55	44	0.589753178943	0.653416247215	-0.0138557205154	0.56396484375	0.73486328125	0.125	-20.625	-18.4375	-7.75
18	12	13	19	55	44	0.592080603249	0.653180879935	-0.0168468295357	0.60888671875	0.7236328125	0.11669921875	-19.0625	-18.25	-4.0
18	12	13	19	55	44	0.59438493696	0.652492809212	-0.0188606434094	0.5625	0.63037109375	0.177734375	-13.75	-14.4375	-7.25
18	12	13	19	55	44	0.595322965837	0.653371990805	-0.0190444750683	0.5517578125	0.7109375	0.18896484375	1.375	-14.625	-8.25
18	12	13	19	55	44	0.597149635468	0.653550153016	-0.0200209629391	0.58447265625	0.82275390625	0.185546875	-7.5	-15.8125	-4.9375
18	12	13	19	55	44	0.600004772666	0.652375484258	-0.02374383078	0.6298828125	0.771484375	0.19287109375	-22.75	-19.5625	-0.625
18	12	13	19	55	44	0.603290261956	0.650899165672	-0.0271614899404	0.58251953125	0.70556640625	0.19384765625	-23.75	-18.9375	-3.9375
18	12	13	19	55	44	0.605990065986	0.650120889687	-0.0297257415527	0.56298828125	0.71875	0.16943359375	-18.5	-17.625	-4.375
18	12	13	19	55	44	0.608127137938	0.649938549108	-0.0321062806941	0.529296875	0.7431640625	0.158203125	-15.125	-19.0	-1.8125
18	12	13	19	55	44	0.608911991228	0.650478657831	-0.0355239353343	0.6630859375	0.7763671875	0.14892578125	-10.5	-20.5625	2.4375
18	12	13	19	55	44	0.610059778455	0.65028282938	-0.0394906129725	0.6923828125	0.77490234375	0.1640625	-15.0625	-18.9375	3.75
18	12	13	19	55	44	0.612393398256	0.649443412483	-0.0426655023802	0.5234375	0.703125	0.189453125	-17.9375	-19.6875	1.5625
18	12	13	19	55	45	0.613756499096	0.649770057969	-0.0465734668136	0.58984375	0.75927734375	0.1826171875	-13.0	-26.125	4.1875
18	12	13	19	55	45	0.615395990411	0.649394757189	-0.0504793179994	0.59326171875	0.75439453125	0.19091796875	-15.6875	-22.6875	5.375
18	12	13	19	55	45	0.617476892254	0.649095420347	-0.0534096758326	0.48095703125	0.73193359375	0.2275390625	-13.0625	-24.5625	3.125
18	12	13	19	55	45	0.618250788829	0.649868313621	-0.0576195818595	0.65869140625	0.81689453125	0.2158203125	-8.6875	-29.9375	5.625
18	12	13	19	55	45	0.619855768053	0.649093671834	-0.0618329781426	0.69384765625	0.814453125	0.2294921875	-16.3125	-21.625	6.125
18	12	13	19	55	45	0.62343885915	0.647060441144	-0.064760978026	0.51220703125	0.75830078125	0.28515625	-22.0	-20.875	1.0625
18	12	13	19	55	45	0.626237176056	0.645952050117	-0.0687273937855	0.61767578125	0.822265625	0.27490234375	-19.875	-27.0625	1.9375
18	12	13	19	55	45	0.628593673166	0.644220006467	-0.0745302850006	0.8115234375	0.8720703125	0.220703125	-28.125	-23.3125	6.875
18	12	13	19	55	45	0.63277152896	0.640157017048	-0.0800806642226	0.83349609375	0.884765625	0.30517578125	-38.8125	-16.5	5.0625
18	12	13	19	55	45	0.636268311462	0.637855319914	-0.0839283315676	0.98681640625	1.1318359375	0.2685546875	-31.3125	-16.3125	-2.0625
18	12	13	19	55	45	0.641629894849	0.633939125562	-0.089298376728	1.0693359375	1.20751953125	0.14990234375	-56.1875	-12.625	-4.0
18	12	13	19	55	45	0.65019333425	0.625106077361	-0.095954179632	0.916015625	0.9580078125	0.16943359375	-85.4375	1.5	-0.625
18	12	13	19	55	45	0.658782525139	0.615933888741	-0.101139872524	0.763671875	0.83251953125	0.150390625	-83.1875	8.625	-2.25
18	12	13	19	55	45	0.665860680279	0.607264452113	-0.106083588076	0.896484375	0.91650390625	0.15966796875	-77.125	15.0	3.0625
18	12	13	19	55	45	0.674775938288	0.596708238146	-0.111211375808	0.74658203125	0.77880859375	0.1650390625	-89.875	16.0625	-0.75
18	12	13	19	55	45	0.685830661438	0.583957096652	-0.116644926487	0.599609375	0.70654296875	0.2939453125	-101.3125	11.25	-4.9375
18	12	13	19	55	45	0.697421522065	0.569424591226	-0.122686614681	0.59716796875	0.6904296875	0.22705078125	-112.0625	16.875	-0.4375
18	12	13	19	55	45	0.710782417501	0.551596454011	-0.128178881645	0.4228515625	0.62109375	0.26708984375	-129.0	28.9375	-0.6875
18	12	13	19	55	45	0.725295954875	0.531566310781	-0.133791865109	0.244140625	0.49072265625	0.3125	-141.0	31.625	-2.8125
18	12	13	19	55	45	0.738999060404	0.512483365916	-0.13861954788	0.04931640625	0.5205078125	0.38037109375	-133.75	27.1875	-5.375
18	12	13	19	55	45	0.750697432987	0.4937915467	-0.14478041394	0.2060546875	0.5517578125	0.357421875	-129.3125	24.1875	6.8125
18	12	13	19	55	45	0.762746248634	0.473786522239	-0.151926649556	0.23583984375	0.326171875	0.47998046875	-135.8125	20.25	4.25
18	12	13	19	55	45	0.773288310032	0.457844787556	-0.157355534238	0.09619140625	0.3017578125	0.609375	-111.0625	7.375	-10.0625
18	12	13	19	55	45	0.781211158637	0.446362778585	-0.160832205876	0.2783203125	0.376953125	0.59375	-74.25	-5.8125	-10.4375
18	12	13	19	55	45	0.791597080961	0.42946079587	-0.166083403292	0.25146484375	0.1982421875	0.783203125	-96.375	-8.0	-13.6875
18	12	13	19	55	45	0.795453319288	0.425255008861	-0.169442788086	0.54248046875	0.5712890625	0.52734375	-43.875	-13.875	-13.75
18	12	13	19	55	45	0.80253708558	0.413171093116	-0.175364241472	0.54248046875	0.4169921875	0.76904296875	-78.9375	-12.5625	-10.5
18	12	13	19	55	45	0.811557370069	0.39784378295	-0.179328787099	0.42822265625	0.23779296875	0.6748046875	-91.8125	4.8125	-21.625
18	12	13	19	55	45	0.816697266757	0.393394161753	-0.17969781415	0.6796875	0.63720703125	0.626953125	-45.6875	2.4375	-33.625
18	12	13	19	55	45	0.823908759801	0.382411348359	-0.182812767492	0.69140625	0.59814453125	0.62255859375	-85.9375	9.125	-24.125
18	12	13	19	55	45	0.829969042213	0.371404737598	-0.185854959078	0.67919921875	0.56591796875	0.5927734375	-81.875	14.375	-12.5
18	12	13	19	55	45	0.833188350883	0.364588572881	-0.188306671243	0.75	0.4580078125	0.576171875	-48.875	14.0	-8.375
18	12	13	19	55	45	0.835585306109	0.360784860804	-0.187808326289	0.65087890625	0.44384765625	0.5498046875	-26.5625	17.9375	-12.125
18	12	13	19	55	45	0.83640557412	0.359880848355	-0.185128665716	0.59130859375	0.50146484375	0.53662109375	-6.1875	22.75	-3.4375
18	12	13	19	55	45	0.837060329555	0.359141241002	-0.182256245009	0.64404296875	0.60693359375	0.49365234375	-10.6875	28.125	-0.125
18	12	13	19	55	45	0.83925864985	0.354930112646	-0.179631869564	0.646484375	0.57275390625	0.48193359375	-30.5625	36.625	-2.4375
18	12	13	19	55	45	0.841634014607	0.350228151122	-0.17633480805	0.61474609375	0.5849609375	0.48388671875	-33.0	40.625	-0.25
18	12	13	19	55	45	0.844042399194	0.34315926875	-0.173777025637	0.5751953125	0.48388671875	0.54541015625	-37.9375	41.8125	8.3125
18	12	13	19	55	45	0.845127585412	0.339064259495	-0.169379535571	0.54296875	0.39990234375	0.58935546875	-10.875	42.375	7.5625
18	12	13	19	55	45	0.844841653927	0.339255105305	-0.162913255858	0.52587890625	0.4638671875	0.59033203125	13.875	41.625	4.5
18	12	13	19	55	45	0.844186312311	0.340238214376	-0.156385056554	0.564453125	0.50146484375	0.58740234375	16.8125	41.875	4.3125
18	12	13	19	55	45	0.844127814669	0.341313285584	-0.149782332408	0.595703125	0.501953125	0.609375	15.625	41.1875	-6.0625
18	12	13	19	55	45	0.845309772534	0.341688505065	-0.142034503624	0.45458984375	0.39501953125	0.63623046875	17.5	38.25	-18.9375
18	12	13	19	55	45	0.84577402995	0.345279908164	-0.132264727062	0.25390625	0.36328125	0.68115234375	41.875	28.0	-23.0625
18	12	13	19	55	45	0.844343999945	0.35292395053	-0.12183261938	0.25732421875	0.46142578125	0.693359375	63.4375	21.4375	-18.875
18	12	13	19	55	45	0.842756209087	0.360858601298	-0.111028720528	0.22265625	0.46142578125	0.7060546875	67.875	20.625	-20.0
18	12	13	19	55	45	0.841293431547	0.369526985024	-0.0990654603062	0.080078125	0.4677734375	0.75146484375	75.5	14.125	-24.3125
18	12	13	19	55	45	0.839884758809	0.378009179601	-0.0888104886677	0.11328125	0.50634765625	0.826171875	72.625	4.5	-25.5625
18	12	13	19	55	45	0.838722796867	0.386248297691	-0.0794104038079	0.26708984375	0.53271484375	0.85302734375	70.125	6.125	-35.1875
18	12	13	19	55	46	0.83880464344	0.3931553419	-0.0681811080426	0.19482421875	0.5947265625	0.81689453125	61.1875	13.875	-44.5
18	12	13	19	55	46	0.839399413723	0.396871363294	-0.0573150123244	0.1591796875	0.63720703125	0.8134765625	43.6875	21.75	-33.6875
18	12	13	19	55	46	0.839660937241	0.399321158144	-0.0490758500685	0.3857421875	0.70654296875	0.77978515625	28.9375	27.875	-28.9375
18	12	13	19	55	46	0.841419376958	0.397667554652	-0.0413232439754	0.513671875	0.6611328125	0.67333984375	2.3125	45.875	-33.5
18	12	13	19	55	46	0.845379304479	0.391377046954	-0.0296645734279	0.31201171875	0.5283203125	0.544921875	-16.5	69.75	-41.125
18	12	13	19	55	46	0.85078882206	0.380502009952	-0.0154422535319	0.14306640625	0.4462890625	0.501953125	-35.1875	88.6875	-38.875
18	12	13	19	55	46	0.856833955196	0.366708819121	-0.000427257279269	0.09326171875	0.373046875	0.46435546875	-49.0	101.8125	-42.0625
18	12	13	19	55	46	0.845309772534	0.341688505065	-0.142034503624	0.45458984375	0.39501953125	0.63623046875	17.5	38.25	-18.9375
18	12	13	19	55	46	0.84577402995	0.345279908164	-0.132264727062	0.25390625	0.36328125	0.68115234375	41.875	28.0	-23.0625
18	12	13	19	55	46	0.844343999945	0.35292395053	-0.12183261938	0.25732421875	0.46142578125	0.693359375	63.4375	21.4375	-18.875
18	12	13	19	55	46	0.856833955196	0.366708819121	-0.000427257279269	0.09326171875	0.373046875	0.46435546875	-49.0	101.8125	-42.0625
18	12	13	19	55	46	0.864684477824	0.348535110008	0.0149546588357	-0.00244140625	0.3046875	0.5947265625	-71.4375	108.8125	-52.5
18	12	13	19	55	46	0.872053364289	0.330583118989	0.0307022357554	-0.1708984375	0.21484375	0.70751953125	-66.5625	106.3125	-54.9375
18	12	13	19	55	46	0.878219237771	0.311295392871	0.0498683011717	-0.48291015625	0.212890625	0.83544921875	-46.375	99.5625	-30.6875
18	12	13	19	55	46	0.881457494885	0.296952476464	0.0670813507983	-0.41748046875	0.24951171875	0.94580078125	-18.8125	87.4375	-16.0625
18	12	13	19	55	46	0.884935685836	0.28620936894	0.0849045067594	-0.47314453125	0.38720703125	1.05908203125	-2.0625	73.3125	-40.0
18	12	13	19	55	46	0.887531323799	0.274744050098	0.0990690054007	-0.82421875	0.51611328125	1.39697265625	-7.625	41.5625	-6.0
18	12	13	19	55	46	0.887722514843	0.271248546202	0.101748723339	0.0791015625	0.8056640625	1.3408203125	-8.3125	26.5	-1.75
18	12	13	19	55	46	0.884161245725	0.278646605919	0.10279099329	0.62451171875	0.357421875	0.9296875	59.9375	31.625	0.1875
18	12	13	19	55	46	0.878959922016	0.301348967708	0.124092050101	-0.0927734375	1.142578125	0.93994140625	169.3125	43.125	-72.3125
18	12	13	19	55	46	0.877560636163	0.300251844563	0.136849895408	-0.2197265625	1.53125	0.6923828125	-32.4375	56.1875	-14.6875
18	12	13	19	55	46	0.891016501006	0.260871662235	0.129215093344	0.12353515625	1.00830078125	0.77978515625	-243.8125	32.875	-44.375
18	12	13	19	55	46	0.901502704067	0.220904481415	0.122324559479	0.16064453125	0.318359375	0.95849609375	-232.9375	44.875	-26.0625
18	12	13	19	55	46	0.906276705691	0.200933655384	0.119754505426	0.12353515625	0.1259765625	0.96875	-92.1875	37.0625	-22.3125
18	12	13	19	55	46	0.906155634422	0.204535062033	0.12482071079	0.1669921875	0.36572265625	0.865234375	36.4375	30.625	-28.875
18	12	13	19	55	46	0.903480305248	0.215524183072	0.136053073936	-0.07861328125	0.66259765625	0.73876953125	70.0625	34.0625	-22.0
18	12	13	19	55	46	0.90031881837	0.224133606851	0.141731545509	0.02197265625	0.70068359375	0.76513671875	44.0	22.125	2.5
18	12	13	19	55	46	0.898722197551	0.231760947032	0.150275336211	-0.0009765625	0.69091796875	0.6484375	44.4375	29.6875	-29.875
18	12	13	19	55	46	0.898592174043	0.229927776092	0.15808679057	-0.13427734375	0.71044921875	0.6455078125	-11.0	39.4375	-23.5625
18	12	13	19	55	46	0.900538794112	0.2198550045	0.159245337796	-0.23193359375	0.4609375	0.8818359375	-49.625	19.375	-5.625
18	12	13	19	55	46	0.900822745098	0.220414075928	0.161999157439	-0.166015625	0.2998046875	0.86328125	22.875	8.8125	-13.125
18	12	13	19	55	46	0.900310707725	0.225474424023	0.169563603123	-0.28173828125	0.5751953125	0.75830078125	40.125	13.9375	-29.75
18	12	13	19	55	46	0.89980878977	0.229133238149	0.17218563261	-0.20849609375	0.5849609375	0.79345703125	22.125	0.5625	-10.6875
18	12	13	19	55	46	0.899135251333	0.234320835644	0.173711148279	-0.15478515625	0.625	0.7939453125	26.25	-4.9375	-10.1875
18	12	13	19	55	46	0.898348031253	0.241585915729	0.175116218349	-0.15283203125	0.60107421875	0.7685546875	39.75	-10.9375	-14.1875
18	12	13	19	55	46	0.89755398198	0.250069953361	0.178595236401	-0.22021484375	0.58740234375	0.67431640625	50.5625	-10.5	-25.0
18	12	13	19	55	46	0.896550237102	0.260028867787	0.182691643495	-0.15234375	0.77734375	0.6083984375	49.0	-8.0	-36.375
18	12	13	19	55	46	0.897630472868	0.263563741455	0.18384761215	-0.18798828125	0.77001953125	0.681640625	10.5625	-14.0	-36.875
18	12	13	19	55	46	0.899912619024	0.266055283934	0.180971304626	-0.0859375	0.63232421875	0.7666015625	8.5	-28.375	-38.8125
18	12	13	19	55	46	0.901022839857	0.272833768741	0.179325640394	-0.13818359375	0.65625	0.78759765625	36.3125	-32.5625	-39.4375
18	12	13	19	55	46	0.900908492838	0.283212425933	0.17633635744	-0.060546875	0.76025390625	0.79150390625	49.3125	-39.125	-31.625
18	12	13	19	55	46	0.900576021411	0.294149101747	0.17152084995	0.0107421875	0.7822265625	0.76318359375	47.875	-45.1875	-27.4375
18	12	13	19	55	46	0.900667261779	0.303050484869	0.16620472715	-0.0048828125	0.75341796875	0.75927734375	37.75	-45.6875	-25.375
18	12	13	19	55	46	0.900358021279	0.311960534659	0.160771678398	0.0048828125	0.7578125	0.75244140625	38.0625	-44.375	-20.1875
18	12	13	19	55	46	0.899665486171	0.321191382606	0.15455275195	0.06982421875	0.779296875	0.73291015625	37.375	-44.5	-15.75
18	12	13	19	55	46	0.899242791057	0.329494473671	0.148571609655	0.06298828125	0.7353515625	0.71875	35.4375	-44.375	-18.5
18	12	13	19	55	46	0.898704602734	0.337349927962	0.143131098439	0.0625	0.7333984375	0.71533203125	35.0	-41.0625	-18.75
18	12	13	19	55	46	0.898005942332	0.344748338927	0.137704010733	0.0673828125	0.75390625	0.70654296875	31.25	-38.9375	-14.875
18	12	13	19	55	46	0.897724451772	0.350654540076	0.132205001532	0.05126953125	0.77685546875	0.69921875	21.6875	-38.6875	-13.6875
18	12	13	19	55	46	0.898027476389	0.354828284411	0.126597946304	0.06005859375	0.7880859375	0.68896484375	10.9375	-37.1875	-15.625
18	12	13	19	55	46	0.89909230898	0.356768129395	0.12152700524	0.03369140625	0.720703125	0.67578125	1.375	-34.0625	-17.8125
18	12	13	19	55	46	0.900071758395	0.358661443939	0.118048201596	-0.015625	0.7109375	0.68212890625	4.5	-29.6875	-21.5625
18	12	13	19	55	46	0.900972426753	0.360364555758	0.115299567383	-0.0595703125	0.73046875	0.6982421875	4.375	-27.8125	-21.0
18	12	13	19	55	46	0.901896049625	0.361954762742	0.111821437663	-0.0712890625	0.7587890625	0.7060546875	1.875	-31.5	-16.6875
18	12	13	19	55	47	0.902650346998	0.364099899908	0.107063071993	-0.03076171875	0.79248046875	0.666015625	0.0625	-36.4375	-14.625
18	12	13	19	55	47	0.903799065427	0.36537726789	0.10193452011	-0.05419921875	0.73583984375	0.6337890625	-4.6875	-39.75	-14.3125
18	12	13	19	55	47	0.904849352547	0.366847315759	0.0968086260888	-0.0400390625	0.697265625	0.66650390625	0.375	-39.625	-15.0625
18	12	13	19	55	47	0.904338365922	0.371232852426	0.0917400488648	0.0419921875	0.77490234375	0.6318359375	13.0	-35.3125	-8.5
18	12	13	19	55	47	0.903993004529	0.37465962605	0.0872252534417	-0.015625	0.736328125	0.60302734375	8.75	-33.0625	-3.875
18	12	13	19	55	47	0.903724550395	0.378250779332	0.0830723431776	-0.0341796875	0.6611328125	0.6318359375	16.125	-35.375	-8.9375
18	12	13	19	55	47	0.902248723813	0.384533010419	0.0783714897426	0.0166015625	0.73583984375	0.60986328125	27.5625	-37.25	-6.0625
18	12	13	19	55	47	0.900974583393	0.390029644867	0.0734281162402	0.0244140625	0.76416015625	0.59521484375	21.5	-37.1875	-4.0
18	12	13	19	55	47	0.89942511714	0.395966795717	0.0691583751421	0.04931640625	0.78466796875	0.5712890625	23.5625	-33.875	-7.4375
18	12	13	19	55	47	0.897680096639	0.401749533969	0.0656154282918	0.0546875	0.74951171875	0.6044921875	27.875	-28.0	-5.0625
18	12	13	19	55	47	0.894309154587	0.410776727435	0.0636612372532	0.06005859375	0.74267578125	0.62255859375	52.25	-22.6875	-7.0
18	12	13	19	55	47	0.888673559093	0.424163236633	0.0634200032899	0.03369140625	0.779296875	0.60546875	81.0625	-19.3125	-6.6875
18	12	13	19	55	47	0.882413215659	0.438307346036	0.0631733885458	-0.01953125	0.77880859375	0.578125	87.3125	-22.3125	-3.1875
18	12	13	19	55	47	0.876865338093	0.451006402838	0.0620751809022	-0.03857421875	0.775390625	0.5029296875	75.3125	-29.1875	-6.3125
18	12	13	19	55	47	0.873037893144	0.460659790223	0.0604284076217	-0.05810546875	0.732421875	0.4833984375	57.75	-35.0625	-15.5625
18	12	13	19	55	47	0.870463126946	0.468039496348	0.0603665964904	-0.06884765625	0.73583984375	0.47021484375	45.375	-31.0	-30.6875
18	12	13	19	55	47	0.868966662213	0.473426905881	0.0623829677425	-0.09814453125	0.73876953125	0.4296875	32.875	-24.75	-46.1875
18	12	13	19	55	47	0.868081049937	0.47756054948	0.067141692795	-0.16259765625	0.72802734375	0.4140625	27.75	-18.25	-61.9375
18	12	13	19	55	47	0.866304221399	0.482989170995	0.0733669889468	-0.24560546875	0.7998046875	0.38916015625	35.375	-17.5	-68.125
18	12	13	19	55	47	0.864465898867	0.487990175912	0.0794700699234	-0.27392578125	0.8447265625	0.4033203125	32.75	-17.25	-66.5625
