18	12	13	19	56	23	0.687650156045	0.425920716215	0.428301184535	-0.18701171875	0.880859375	0.2392578125	4.9375	-6.375	3.5
18	12	13	19	56	23	0.687957280678	0.426471255443	0.427142671474	-0.19677734375	0.85595703125	0.2294921875	-3.0	-6.1875	2.25
18	12	13	19	56	23	0.688130338066	0.426831244819	0.426220875529	-0.19384765625	0.87353515625	0.24609375	-2.375	-3.6875	1.4375
18	12	13	19	56	23	0.688089174809	0.427270843933	0.426355263554	-0.22412109375	0.892578125	0.2568359375	3.25	-1.8125	-1.6875
18	12	13	19	56	23	0.688495858114	0.427258067978	0.426586662443	-0.24365234375	0.92724609375	0.294921875	3.375	-1.75	-5.375
18	12	13	19	56	23	0.689358438458	0.426469577608	0.426896840675	-0.27001953125	0.9912109375	0.3408203125	1.0625	-0.8125	-8.125
18	12	13	19	56	23	0.691022284985	0.424709218172	0.427211816324	-0.30908203125	1.01953125	0.341796875	-4.4375	-1.75	-12.0625
18	12	13	19	56	23	0.693893915584	0.421353773687	0.426847303983	-0.3095703125	0.943359375	0.35498046875	-14.1875	-3.25	-14.625
18	12	13	19	56	23	0.696449603482	0.418541185896	0.425682693662	-0.2548828125	0.77880859375	0.37255859375	-10.75	-3.5	-8.875
18	12	13	19	56	23	0.696828923398	0.418304888932	0.425629649865	-0.208984375	0.77685546875	0.3515625	5.9375	0.9375	-3.375
18	12	13	19	56	23	0.695911268261	0.419707559035	0.426605021829	-0.24951171875	0.86572265625	0.2626953125	11.9375	0.375	-0.375
18	12	13	19	56	23	0.697375682161	0.418059172615	0.426909892432	-0.3701171875	0.9111328125	0.21728515625	-10.8125	-4.625	-5.4375
18	12	13	19	56	23	0.700237850753	0.415491548995	0.42501361182	-0.32373046875	0.9130859375	0.267578125	-22.5625	-11.3125	-5.875
18	12	13	19	56	23	0.702503301946	0.41342035486	0.424651618007	-0.3271484375	0.8701171875	0.27734375	-11.125	-7.5	-10.875
18	12	13	19	56	23	0.70353701361	0.413051793432	0.426175206405	-0.34326171875	0.97802734375	0.30029296875	5.8125	-4.0625	-16.3125
18	12	13	19	56	23	0.703625026979	0.413275941852	0.428168768586	-0.33544921875	1.08056640625	0.3212890625	10.0625	0.75	-14.75
18	12	13	19	56	23	0.703963456091	0.412685071242	0.430203280892	-0.35009765625	1.0703125	0.3291015625	6.1875	2.75	-15.0
18	12	13	19	56	23	0.704569406394	0.412011045063	0.431116149819	-0.3056640625	1.013671875	0.34130859375	2.625	1.1875	-12.0
18	12	13	19	56	23	0.704692154552	0.411645204877	0.431971102448	-0.30029296875	0.94921875	0.32177734375	3.4375	2.625	-7.0
18	12	13	19	56	23	0.704653313468	0.411414010116	0.432839279782	-0.3017578125	0.90087890625	0.28515625	2.875	2.3125	-4.4375
18	12	13	19	56	23	0.704650498937	0.410679881917	0.433325874217	-0.302734375	0.8662109375	0.28369140625	-1.875	3.875	-0.75
18	12	13	19	56	23	0.704574586944	0.410121861706	0.434415432321	-0.353515625	0.83740234375	0.23193359375	-0.5	2.3125	-0.875
18	12	13	19	56	23	0.704720535193	0.409830547707	0.434979517868	-0.361328125	0.861328125	0.2197265625	-2.0625	-1.4375	0.3125
18	12	13	19	56	23	0.704677263243	0.40998849521	0.435135921148	-0.32861328125	0.861328125	0.1884765625	-3.5625	-2.9375	1.625
18	12	13	19	56	23	0.704674030179	0.410047651342	0.435622222034	-0.32421875	0.84326171875	0.20361328125	-0.8125	-1.8125	-0.375
18	12	13	19	56	23	0.704066583242	0.410964915905	0.436112330929	-0.2939453125	0.8623046875	0.24951171875	5.875	0.125	1.3125
18	12	13	19	56	23	0.703244339675	0.411960424309	0.436803792614	-0.31005859375	0.87646484375	0.2939453125	10.125	1.8125	2.5625
18	12	13	19	56	23	0.702615261798	0.412804014902	0.436975298342	-0.296875	0.90283203125	0.35400390625	10.25	2.375	3.0625
18	12	13	19	56	23	0.702066468975	0.413292650098	0.437341875344	-0.31005859375	0.935546875	0.34326171875	7.8125	3.0	2.125
18	12	13	19	56	23	0.702678419647	0.412500066016	0.437159732585	-0.31494140625	0.8974609375	0.3271484375	-1.4375	0.375	-2.0
18	12	13	19	56	23	0.704447023285	0.409752436297	0.436365286324	-0.2958984375	0.771484375	0.31396484375	-13.75	0.375	-3.875
18	12	13	19	56	23	0.705311765501	0.407621979231	0.436371597713	-0.2744140625	0.72607421875	0.302734375	-7.8125	4.9375	-2.625
18	12	13	19	56	23	0.70575306422	0.406226141012	0.437112756693	-0.3349609375	0.7392578125	0.263671875	-2.5	3.375	-1.75
18	12	13	19	56	23	0.706337787109	0.405845138825	0.437279978124	-0.333984375	0.8203125	0.25244140625	-1.3125	-3.1875	-2.5625
18	12	13	19	56	23	0.707859658463	0.404744105826	0.436850183291	-0.35107421875	0.828125	0.25732421875	-6.4375	-7.25	-5.625
18	12	13	19	56	23	0.710167346938	0.402723176201	0.436354650904	-0.35986328125	0.86572265625	0.3154296875	-8.5625	-7.75	-11.9375
18	12	13	19	56	23	0.712064218255	0.401321981401	0.437028956172	-0.41748046875	0.9345703125	0.29052734375	-2.6875	-7.8125	-15.4375
18	12	13	19	56	23	0.714752095889	0.398271342927	0.437884845082	-0.4443359375	0.88818359375	0.33544921875	-7.0	-4.8125	-19.6875
18	12	13	19	56	23	0.716242187131	0.395843751793	0.440219759126	-0.44580078125	0.8564453125	0.36083984375	3.8125	3.1875	-19.5
18	12	13	19	56	23	0.716476679207	0.394861785465	0.444120320149	-0.43115234375	0.814453125	0.30810546875	16.4375	6.8125	-21.6875
18	12	13	19	56	23	0.716085328934	0.395275195208	0.448560440022	-0.40771484375	0.8916015625	0.26025390625	23.25	5.0625	-26.1875
18	12	13	19	56	23	0.716148591	0.394543977859	0.45191887563	-0.3525390625	0.87060546875	0.22412109375	9.5	6.125	-24.4375
18	12	13	19	56	23	0.716837419912	0.392050983319	0.455042827439	-0.3662109375	0.81298828125	0.19287109375	-2.375	8.25	-24.3125
18	12	13	19	56	23	0.716838566993	0.390647720432	0.45864483927	-0.345703125	0.81982421875	0.17626953125	4.75	8.5	-25.4375
18	12	13	19	56	23	0.716670240795	0.38949602304	0.462927102137	-0.38232421875	0.85498046875	0.1298828125	6.75	7.875	-28.75
18	12	13	19	56	23	0.71675719318	0.387706862904	0.466749745061	-0.36181640625	0.88232421875	0.17236328125	3.0625	9.625	-29.6875
18	12	13	19	56	24	0.716354743844	0.385706000882	0.471099685838	-0.34375	0.91162109375	0.20166015625	4.5625	16.125	-31.5
18	12	13	19	56	24	0.715929621477	0.384181178069	0.474519300653	-0.3388671875	0.9951171875	0.2685546875	5.75	15.3125	-28.1875
18	12	13	19	56	24	0.715393903061	0.382906651357	0.475871234493	-0.36181640625	1.0712890625	0.33251953125	-2.125	14.5625	-12.375
18	12	13	19	56	24	0.71539666188	0.382236680605	0.475750988285	-0.3916015625	1.09765625	0.33056640625	-4.9375	5.5	-6.375
18	12	13	19	56	24	0.716415273116	0.380944680883	0.473724029535	-0.40087890625	1.05908203125	0.443359375	-9.4375	1.5	0.875
18	12	13	19	56	24	0.717451939834	0.377953242424	0.472868825753	-0.404296875	0.94287109375	0.3916015625	-16.4375	8.6875	-1.625
18	12	13	19	56	24	0.718606017508	0.373372378247	0.473597561356	-0.494140625	0.82373046875	0.40478515625	-15.3125	14.75	-4.3125
18	12	13	19	56	24	0.71890647714	0.370745282913	0.474937281256	-0.53369140625	0.79541015625	0.294921875	-7.1875	9.4375	-0.875
18	12	13	19	56	24	0.719587718987	0.368613982099	0.475248959202	-0.51171875	0.77587890625	0.232421875	-11.8125	1.625	1.8125
18	12	13	19	56	24	0.72147388793	0.365314823964	0.474268367954	-0.43994140625	0.68603515625	0.2353515625	-21.5625	-2.375	-1.0625
18	12	13	19	56	24	0.723182414829	0.362384706013	0.473779701545	-0.38720703125	0.55908203125	0.23779296875	-14.375	-1.0	-3.6875
18	12	13	19	56	24	0.723350450328	0.361766780786	0.475295751979	-0.38525390625	0.60107421875	0.24658203125	7.625	3.0	-8.0625
18	12	13	19	56	24	0.72261506287	0.362436712841	0.477979437228	-0.40966796875	0.7109375	0.21435546875	16.25	4.3125	-11.8125
18	12	13	19	56	24	0.722324164101	0.362504918928	0.479758993564	-0.4287109375	0.84423828125	0.236328125	7.375	3.1875	-11.75
18	12	13	19	56	24	0.722634592146	0.36098158442	0.481044279137	-0.42138671875	0.9384765625	0.25341796875	-5.1875	5.375	-15.3125
18	12	13	19	56	24	0.724432542267	0.357210923268	0.482222538247	-0.47265625	0.83349609375	0.25244140625	-14.1875	2.9375	-21.5625
18	12	13	19	56	24	0.72721189987	0.351642416917	0.484401010355	-0.47021484375	0.71923828125	0.3046875	-12.3125	6.3125	-34.625
18	12	13	19	56	24	0.727441734284	0.350597862202	0.488908230543	-0.529296875	0.7451171875	0.265625	21.625	6.75	-31.5625
18	12	13	19	56	24	0.727884199932	0.351215571187	0.492275561631	-0.572265625	0.8388671875	0.2294921875	24.5	-4.8125	-29.4375
18	12	13	19	56	24	0.728720062845	0.351755902686	0.493483684404	-0.5087890625	0.919921875	0.232421875	11.1875	-8.5625	-23.1875
18	12	13	19	56	24	0.730012872429	0.35054046207	0.494162559798	-0.50634765625	0.9111328125	0.22705078125	-2.75	-5.5625	-21.0625
18	12	13	19	56	24	0.731660146544	0.347488213421	0.494467243443	-0.5341796875	0.86083984375	0.25048828125	-14.9375	-0.9375	-15.875
18	12	13	19	56	24	0.732657424299	0.345056437521	0.495579907347	-0.59423828125	0.77685546875	0.2236328125	-8.0625	0.375	-10.5625
18	12	13	19	56	24	0.731375571102	0.347559047059	0.496495484505	-0.623046875	0.896484375	0.2470703125	15.5	-2.4375	6.0
18	12	13	19	56	24	0.729662691044	0.352806621569	0.49496693673	-0.625	0.9951171875	0.2724609375	18.6875	-11.625	24.5
18	12	13	19	56	24	0.729006001645	0.356903465764	0.490643074707	-0.4892578125	0.89111328125	0.35498046875	4.4375	-13.125	34.875
18	12	13	19	56	24	0.727455584727	0.36092002622	0.486537041942	-0.38623046875	0.83740234375	0.41015625	5.9375	-2.625	39.4375
18	12	13	19	56	24	0.724408753836	0.366843327482	0.483671635103	-0.3623046875	0.88671875	0.3056640625	15.125	-1.8125	39.5625
18	12	13	19	56	24	0.722983679714	0.371105172871	0.478835539667	-0.40576171875	0.873046875	0.22119140625	-6.3125	-13.5	43.8125
18	12	13	19	56	24	0.722255638765	0.376295615058	0.470720483914	-0.3046875	0.931640625	0.224609375	-16.8125	-25.3125	53.875
18	12	13	19	56	24	0.721648371317	0.382034775951	0.459247428385	-0.1845703125	0.98095703125	0.287109375	-27.5625	-30.25	68.25
18	12	13	19	56	24	0.718723089782	0.392108461041	0.446127139126	-0.06005859375	1.07568359375	0.3134765625	-11.375	-34.6875	85.8125
18	12	13	19	56	24	0.716164104785	0.398520023876	0.433556092754	-0.09619140625	0.84375	0.310546875	-27.4375	-27.9375	100.875
18	12	13	19	56	24	0.711718590547	0.406460900039	0.429716884859	-0.3935546875	0.73193359375	0.1728515625	19.1875	-16.3125	65.0625
18	12	13	19	56	24	0.713107238087	0.401569161977	0.433614124743	-1.06005859375	0.40234375	0.20654296875	-5.625	0.875	26.25
18	12	13	19	56	24	0.717086781428	0.393335650283	0.439298056345	-1.01708984375	0.7646484375	0.265625	-16.5625	3.0	-19.0
18	12	13	19	56	24	0.722089768192	0.381248748278	0.439479825104	-0.84033203125	1.251953125	0.416015625	-70.0625	11.0625	-8.875
18	12	13	19	56	24	0.728667024677	0.371047649775	0.428423006049	-0.3486328125	1.04150390625	0.84375	-80.4375	-6.4375	22.75
18	12	13	19	56	24	0.726660558679	0.379230747675	0.416403051769	0.2646484375	1.33740234375	0.64697265625	-4.0	-23.4375	41.75
18	12	13	19	56	24	0.721888026572	0.392530810762	0.406874573867	0.25830078125	0.9794921875	0.58447265625	42.375	-27.6875	51.6875
18	12	13	19	56	24	0.716879603643	0.408947922044	0.40107414862	-0.01123046875	1.1611328125	0.44189453125	69.75	-45.625	36.25
18	12	13	19	56	24	0.712223972048	0.424904959669	0.393346869718	0.05322265625	1.4345703125	0.2041015625	40.25	-54.4375	36.5
18	12	13	19	56	24	0.710648834754	0.434763518848	0.377877431586	0.16943359375	1.12158203125	0.22705078125	-18.9375	-58.0	66.375
18	12	13	19	56	24	0.710145902061	0.44468049652	0.35873538477	0.38720703125	1.03369140625	0.30029296875	-24.25	-68.9375	64.9375
18	12	13	19	56	24	0.715299035913	0.44557410719	0.343946588222	-0.1357421875	0.34228515625	0.37939453125	-34.25	-65.9375	44.25
18	12	13	19	56	24	0.713179099683	0.456388234194	0.334920722352	-3.08154296875	-0.2431640625	0.208984375	29.5625	-60.5	46.375
18	12	13	19	56	24	0.715321442158	0.466524599575	0.337609258177	-0.85205078125	0.314453125	-0.23291015625	52.5625	-85.25	-12.1875
18	12	13	19	56	24	0.710238980164	0.463339987833	0.35261692922	-0.9404296875	0.54052734375	-0.02490234375	21.875	56.5	20.875
18	12	13	19	56	24	0.703152257177	0.467303270915	0.356886393031	-0.08203125	0.978515625	0.498046875	47.8125	36.5	25.875
18	12	13	19	56	24	0.709456745312	0.471465533924	0.340170561957	1.85498046875	1.962890625	0.15283203125	-35.5	-93.6875	33.0625
18	12	13	19	56	25	0.721300549337	0.46170071551	0.330588455209	1.7626953125	0.673828125	0.22900390625	-90.0	-44.375	-27.4375
18	12	13	19	56	25	0.718049559119	0.461995674343	0.338271902128	-2.564453125	0.8935546875	0.5009765625	29.0625	34.5625	-16.375
18	12	13	19	56	25	0.710494645887	0.483246229509	0.335165472557	0.1943359375	1.025390625	0.236328125	116.8125	-69.0625	23.875
18	12	13	19	56	25	0.701136139509	0.498370033872	0.334423688376	0.486328125	1.0517578125	0.10009765625	74.5	-11.9375	6.75
18	12	13	19	56	25	0.69180409257	0.503502025729	0.334854177858	-2.7607421875	0.62158203125	0.306640625	29.5625	35.6875	68.0625
18	12	13	19	56	25	0.690586879054	0.512599311499	0.321793709243	-0.01025390625	0.64013671875	0.25927734375	13.375	-65.5625	61.9375
18	12	13	19	56	25	0.680812975489	0.516255706176	0.328382087873	-0.24755859375	1.1103515625	0.45703125	57.1875	52.0625	50.5
18	12	13	19	56	25	0.680868749557	0.514115417079	0.32734191877	-0.3212890625	0.84375	0.40283203125	-5.5	6.0625	32.625
18	12	13	19	56	25	0.682290467294	0.51498342034	0.320270001959	0.03564453125	0.5927734375	0.4404296875	-2.5	-24.625	24.3125
18	12	13	19	56	25	0.679038395762	0.519914521807	0.326731913035	-0.61474609375	0.8896484375	0.30615234375	60.5625	-8.5	14.25
18	12	13	19	56	25	0.676274956516	0.52556434476	0.328767660962	-0.53955078125	0.96240234375	0.2509765625	44.5	-21.6875	29.0625
18	12	13	19	56	25	0.675518929127	0.528109675143	0.324605553908	-0.26806640625	0.85888671875	0.28271484375	5.4375	-20.625	41.4375
18	12	13	19	56	25	0.671993841757	0.53282171357	0.320645258493	-0.0947265625	0.837890625	0.3056640625	22.0625	-12.0625	46.3125
18	12	13	19	56	25	0.666243050861	0.538671087847	0.320272770304	0.02001953125	0.9287109375	0.22021484375	36.3125	2.0	32.0625
18	12	13	19	56	25	0.662747170473	0.540061426077	0.323865950132	-0.08544921875	1.02734375	0.17236328125	19.6875	18.8125	10.0625
18	12	13	19	56	25	0.660577560284	0.538252903953	0.327358848254	-0.13037109375	1.08447265625	0.166015625	-2.375	29.1875	12.1875
18	12	13	19	56	25	0.658374767428	0.535135507699	0.329004264457	-0.07177734375	1.0576171875	0.16650390625	-17.1875	35.75	23.6875
18	12	13	19	56	25	0.655502412693	0.532874202701	0.329490830032	-0.03857421875	0.92724609375	0.220703125	-10.4375	33.25	31.25
18	12	13	19	56	25	0.650067814641	0.535497177263	0.33058847738	0.033203125	0.857421875	0.24072265625	25.0	20.75	30.0
18	12	13	19	56	25	0.641451618277	0.542813706474	0.332414645841	0.12060546875	0.85693359375	0.26123046875	60.1875	13.6875	32.0625
18	12	13	19	56	25	0.629499601302	0.554421107207	0.334984370401	0.189453125	0.9169921875	0.2236328125	89.6875	7.9375	36.875
18	12	13	19	56	25	0.61679539887	0.567293066512	0.337299492742	0.232421875	0.9091796875	0.1796875	96.8125	1.875	36.25
18	12	13	19	56	25	0.605255830627	0.578948321248	0.338091170416	0.27099609375	0.91748046875	0.18359375	86.8125	-1.75	35.75
18	12	13	19	56	25	0.593479328258	0.589817005961	0.337849231915	0.2978515625	0.919921875	0.14013671875	77.1875	2.125	43.375
18	12	13	19	56	25	0.581087539134	0.600558854783	0.337421419783	0.28466796875	0.91748046875	0.04443359375	72.625	4.6875	49.125
18	12	13	19	56	25	0.570835689285	0.608923955978	0.3363853169	0.21923828125	0.876953125	0.0048828125	53.5625	5.6875	48.4375
18	12	13	19	56	25	0.561387361759	0.616445685159	0.335477323065	0.146484375	0.9169921875	-0.05859375	45.5	5.5	49.375
18	12	13	19	56	25	0.552455729252	0.623381986836	0.334305604808	0.15771484375	0.9599609375	-0.03759765625	43.8125	4.6875	49.0625
18	12	13	19	56	25	0.543611903294	0.630164977499	0.333577257074	0.22412109375	0.9892578125	-0.0302734375	46.375	4.5625	42.0
18	12	13	19	56	25	0.534885027242	0.636087740373	0.333761420627	0.294921875	1.02197265625	-0.04052734375	46.25	9.3125	33.75
18	12	13	19	56	25	0.526829285474	0.640056990787	0.335715568313	0.30517578125	1.03662109375	-0.06982421875	40.125	20.4375	23.1875
18	12	13	19	56	25	0.519252073699	0.642793415789	0.338212735437	0.2890625	1.0087890625	-0.07568359375	35.4375	26.375	21.1875
18	12	13	19	56	25	0.51185766447	0.645529055501	0.340526342723	0.31005859375	0.9931640625	-0.09912109375	33.5625	24.5625	19.3125
18	12	13	19	56	25	0.505044836742	0.647878401883	0.342861596324	0.34375	0.97900390625	-0.12939453125	29.625	23.8125	14.5625
18	12	13	19	56	25	0.499095745577	0.649184584806	0.345222641187	0.35791015625	0.998046875	-0.140625	22.3125	26.375	11.0
18	12	13	19	56	25	0.49404970669	0.649210857469	0.347189860594	0.38427734375	0.96484375	-0.1181640625	13.6875	29.8125	8.625
18	12	13	19	56	25	0.488843592796	0.648943073867	0.348458992542	0.42578125	0.91748046875	-0.1015625	10.875	32.5	10.875
18	12	13	19	56	25	0.483667190448	0.647677001242	0.350603778639	0.3779296875	0.88916015625	-0.095703125	9.1875	39.8125	10.4375
18	12	13	19	56	25	0.478722523138	0.646333392516	0.353899424857	0.31396484375	0.94384765625	-0.1025390625	13.5	39.1875	7.9375
18	12	13	19	56	25	0.476830603063	0.643892221162	0.355608690917	0.26708984375	0.9755859375	-0.01171875	1.8125	28.0625	5.8125
18	12	13	19	56	25	0.478003890923	0.641346811637	0.354886300833	0.255859375	0.873046875	0.05517578125	-10.5625	10.3125	1.875
18	12	13	19	56	25	0.477336653132	0.640925173642	0.354706303241	0.3271484375	0.84228515625	0.0791015625	7.625	3.875	-0.0625
18	12	13	19	56	25	0.4724569309	0.642517009645	0.358005155004	0.39111328125	0.91943359375	-0.09423828125	30.0	14.875	-2.625
18	12	13	19	56	25	0.468481174373	0.641895508756	0.361600322734	0.29833984375	0.96337890625	-0.13134765625	15.625	27.9375	1.5
18	12	13	19	56	25	0.46566750103	0.640666678569	0.362877610908	0.23876953125	0.95654296875	-0.07080078125	4.6875	24.75	13.0625
18	12	13	19	56	25	0.460845646932	0.641460517034	0.36348818907	0.32861328125	0.84814453125	-0.11279296875	12.875	21.0625	17.1875
18	12	13	19	56	25	0.45520869636	0.641796653556	0.36444772405	0.341796875	0.849609375	-0.06396484375	16.9375	27.5	19.3125
18	12	13	19	56	25	0.449006721805	0.642074729019	0.365748814173	0.34912109375	0.86962890625	-0.1455078125	14.3125	32.3125	20.6875
18	12	13	19	56	25	0.44600819278	0.639561221288	0.367512704082	0.28857421875	0.8828125	-0.11865234375	-2.625	35.75	9.625
18	12	13	19	56	25	0.446317113301	0.635843185073	0.368004085899	0.2685546875	0.90625	-0.07080078125	-17.3125	26.125	2.3125
18	12	13	19	56	26	0.446553384829	0.633024214606	0.368424853858	0.33203125	0.84228515625	-0.0869140625	-14.5625	20.0625	-3.8125
18	12	13	19	56	26	0.447349972718	0.629793562356	0.368976747862	0.3115234375	0.7998046875	-0.0869140625	-17.8125	20.0625	-6.4375
18	12	13	19	56	26	0.446071862103	0.627174108252	0.371116163326	0.32568359375	0.82470703125	-0.12841796875	-6.3125	27.25	-5.4375
18	12	13	19	56	26	0.443634033144	0.624188445643	0.375697230875	0.3037109375	0.841796875	-0.1484375	3.3125	36.375	-11.0
18	12	13	19	56	26	0.44338523042	0.618627383026	0.379050424134	0.2568359375	0.95849609375	-0.08203125	-14.6875	42.375	-8.0
18	12	13	19	56	26	0.444357705209	0.612578836466	0.380328689719	0.3427734375	0.91162109375	-0.0751953125	-29.0	38.5625	-9.6875
18	12	13	19	56	26	0.444918375965	0.606368383432	0.38076565088	0.43994140625	0.9296875	-0.03759765625	-31.25	41.125	-9.75
18	12	13	19	56	26	0.446981819266	0.599393891191	0.379778899286	0.42431640625	1.0009765625	-0.01123046875	-42.875	38.0625	-7.125
18	12	13	19	56	26	0.450036693233	0.593660230352	0.378133366958	0.310546875	0.9384765625	0.1064453125	-34.5625	21.5	-4.25
18	12	13	19	56	26	0.453814765514	0.589013111931	0.37751773029	0.20458984375	0.94677734375	0.1220703125	-24.9375	10.1875	-6.875
18	12	13	19	56	26	0.457429154076	0.584024839365	0.378200031846	0.22509765625	0.97119140625	0.0986328125	-22.625	14.3125	-14.5625
18	12	13	19	56	26	0.458094178438	0.580293318375	0.380636282044	0.27685546875	0.95068359375	0.109375	-3.1875	21.125	-12.5
18	12	13	19	56	26	0.457058159006	0.578342154992	0.382346729168	0.31640625	1.0380859375	0.00927734375	-1.875	19.125	-2.0
18	12	13	19	56	26	0.459371210881	0.57461075993	0.383073839953	0.25634765625	0.97265625	0.02978515625	-19.6875	13.6875	-11.5625
18	12	13	19	56	26	0.46131707278	0.570695240869	0.385081954507	0.24951171875	0.90625	0.029296875	-14.0	17.3125	-17.5
18	12	13	19	56	26	0.460828727599	0.568131628674	0.387584426523	0.2626953125	0.921875	0.0830078125	2.0625	19.4375	-8.625
18	12	13	19	56	26	0.461755353165	0.564910217257	0.389485909921	0.23095703125	0.92626953125	0.05810546875	-7.8125	17.0625	-11.0
18	12	13	19	56	26	0.46193551848	0.56240405223	0.390521068609	0.33935546875	0.9970703125	0.1298828125	-3.0625	14.5	-8.875
18	12	13	19	56	26	0.461215429506	0.561137300615	0.391935451675	0.2685546875	0.92333984375	0.10546875	4.375	11.5625	-3.375
18	12	13	19	56	26	0.46438807224	0.558144654648	0.392727767717	0.1796875	0.98828125	0.08349609375	-14.25	3.4375	-13.625
18	12	13	19	56	26	0.46567360565	0.556562057454	0.392303612991	0.279296875	0.92333984375	0.12939453125	-7.5	2.3125	-6.0
18	12	13	19	56	26	0.466695242087	0.555016980944	0.392778430922	0.22509765625	0.9267578125	0.09130859375	-5.1875	4.5625	-5.6875
18	12	13	19	56	26	0.469187379417	0.552502167098	0.393196968675	0.19189453125	0.86669921875	0.0849609375	-12.875	3.75	-12.125
18	12	13	19	56	26	0.468900095759	0.551363520566	0.393700288681	0.28173828125	0.8701171875	0.12890625	1.1875	8.0	-4.0625
18	12	13	19	56	26	0.467734740185	0.551540012047	0.394672168868	0.22998046875	0.84375	0.0888671875	8.125	4.8125	0.875
18	12	13	19	56	26	0.468591172623	0.550321481356	0.395528305145	0.2119140625	0.912109375	0.083984375	-2.5	3.6875	-6.5625
18	12	13	19	56	26	0.467423656782	0.550556461762	0.396071051039	0.2666015625	0.8388671875	0.08642578125	6.5625	4.375	0.3125
18	12	13	19	56	26	0.466933323058	0.550554061959	0.397961472724	0.17333984375	0.87255859375	0.0517578125	8.4375	3.1875	-3.0625
18	12	13	19	56	26	0.466518184936	0.550202135159	0.398826353575	0.26953125	0.93505859375	0.06201171875	2.25	4.9375	-3.8125
18	12	13	19	56	26	0.463762967628	0.551046600651	0.399673586737	0.33154296875	0.94970703125	0.0556640625	10.4375	9.25	4.9375
18	12	13	19	56	26	0.463349315857	0.549903041306	0.401699624246	0.189453125	0.91455078125	0.02001953125	1.5625	10.6875	-4.4375
18	12	13	19	56	26	0.463275804999	0.547751920166	0.403275789674	0.29443359375	0.98583984375	0.05517578125	-4.1875	15.25	-9.875
18	12	13	19	56	26	0.459686942525	0.546790018741	0.405300929274	0.35498046875	0.91552734375	0.0947265625	11.375	24.1875	1.6875
18	12	13	19	56	26	0.458220008776	0.544712316281	0.407862807865	0.25390625	0.98681640625	0.041015625	2.0625	22.0625	-4.625
18	12	13	19	56	26	0.457690779004	0.541745220547	0.409711991021	0.24462890625	0.94384765625	0.06591796875	-5.3125	21.75	-6.3125
18	12	13	19	56	26	0.456821911542	0.539225650262	0.412140773214	0.1826171875	0.93701171875	0.10205078125	2.6875	20.1875	-3.5
18	12	13	19	56	26	0.45747815406	0.537803871304	0.41261538645	0.1650390625	0.98583984375	0.1015625	-4.0625	4.875	-0.3125
18	12	13	19	56	26	0.459500591524	0.535677097664	0.411585080851	0.20947265625	0.9453125	0.14306640625	-13.8125	1.8125	-3.8125
18	12	13	19	56	26	0.460966168376	0.533358365899	0.411158383233	0.2255859375	0.95751953125	0.1748046875	-9.3125	5.5	-5.125
18	12	13	19	56	26	0.461582145373	0.531411552184	0.411346479459	0.2392578125	0.92626953125	0.15478515625	-5.125	7.9375	-5.1875
18	12	13	19	56	26	0.462055648366	0.529624420195	0.412370932677	0.23046875	0.90380859375	0.11181640625	-2.6875	9.0	-8.25
18	12	13	19	56	26	0.462313188545	0.527930653251	0.414397179434	0.22314453125	0.91015625	0.1357421875	4.5	9.3125	-11.875
18	12	13	19	56	26	0.460732135317	0.528547901392	0.416294801651	0.21875	0.95263671875	0.05908203125	11.875	5.1875	-0.625
18	12	13	19	56	26	0.461572422027	0.527127669482	0.418540346184	0.19189453125	0.962890625	0.0283203125	-0.9375	6.5	-13.5625
18	12	13	19	56	26	0.460960056964	0.525416336116	0.420186577349	0.26025390625	0.9814453125	0.0830078125	0.0	14.1875	-7.4375
18	12	13	19	56	26	0.459998266096	0.52525014328	0.420749475611	0.265625	0.97412109375	0.12939453125	5.5625	5.875	-0.6875
18	12	13	19	56	26	0.460552396646	0.525377664404	0.420143425595	0.244140625	0.96533203125	0.11083984375	-2.0	-3.8125	-1.625
18	12	13	19	56	26	0.461406450415	0.523851059328	0.420692321241	0.216796875	0.9091796875	0.11376953125	-4.0	4.875	-8.375
18	12	13	19	56	26	0.461879806384	0.522124998521	0.421838422349	0.17333984375	0.90380859375	0.11572265625	-1.4375	8.125	-6.5
18	12	13	19	56	26	0.461259894598	0.522846666287	0.421219337386	0.21533203125	0.89990234375	0.1298828125	3.625	-2.1875	5.75
18	12	13	19	56	27	0.462679098024	0.523291280654	0.419585240081	0.14404296875	0.916015625	0.109375	-6.875	-11.0	4.5
18	12	13	19	56	27	0.464155864492	0.524037098456	0.416910120263	0.14794921875	0.9033203125	0.158203125	-7.1875	-14.1875	8.875
18	12	13	19	56	27	0.463887088024	0.526450807133	0.414202339386	0.21826171875	0.947265625	0.14501953125	1.1875	-15.3125	14.875
18	12	13	19	56	27	0.465662256297	0.52749419569	0.411032852786	0.16552734375	0.96044921875	0.1220703125	-11.8125	-17.3125	9.8125
18	12	13	19	56	27	0.466517909446	0.529326613988	0.406822172767	0.23828125	0.953125	0.11865234375	-12.25	-17.5625	15.3125
18	12	13	19	56	27	0.467301558675	0.5307803493	0.403334469661	0.21435546875	0.931640625	0.13330078125	-9.375	-15.125	13.6875
18	12	13	19	56	27	0.467242183782	0.532918550829	0.400039878838	0.2509765625	0.94140625	0.11572265625	-5.5625	-14.625	15.5
18	12	13	19	56	27	0.466891991405	0.534890119059	0.398405546856	0.23583984375	0.90185546875	0.11669921875	2.625	-11.75	9.4375
18	12	13	19	56	27	0.465712509474	0.537003756009	0.397778299376	0.27001953125	0.9697265625	0.052734375	4.75	-6.6875	8.125
18	12	13	19	56	27	0.463959916277	0.539404523108	0.396633539793	0.28466796875	0.95703125	0.07666015625	6.3125	-6.6875	12.875
18	12	13	19	56	27	0.465052591813	0.540068950304	0.395529701398	0.189453125	0.95458984375	0.06640625	-6.3125	-9.6875	3.5
18	12	13	19	56	27	0.466166875198	0.540636377325	0.394932523574	0.19580078125	0.94287109375	0.09375	-1.875	-9.3125	0.625
18	12	13	19	56	27	0.466266485959	0.541098625216	0.394669341303	0.1904296875	0.8876953125	0.08544921875	0.125	-3.9375	3.75
18	12	13	19	56	27	0.466472307499	0.541674333518	0.393772946307	0.21435546875	0.884765625	0.099609375	-1.5625	-5.25	4.5625
18	12	13	19	56	27	0.465303498303	0.543922271202	0.392788667398	0.25341796875	0.8916015625	0.0986328125	7.75	-9.1875	9.9375
18	12	13	19	56	27	0.464564099207	0.546355702536	0.391012694721	0.2333984375	0.86376953125	0.09423828125	4.5	-12.625	12.8125
18	12	13	19	56	27	0.463453869293	0.54982121093	0.388927703824	0.27978515625	0.91455078125	0.08544921875	7.8125	-17.5	13.875
18	12	13	19	56	27	0.463051287769	0.553146687287	0.38626266135	0.24951171875	0.96240234375	0.10546875	4.6875	-21.0625	16.3125
18	12	13	19	56	27	0.463336720957	0.556724309294	0.382522886344	0.2958984375	0.97705078125	0.04833984375	-3.875	-25.3125	15.1875
18	12	13	19	56	27	0.464682454017	0.558558930344	0.378740920422	0.2607421875	0.95556640625	0.10205078125	-10.3125	-20.5	12.5625
18	12	13	19	56	27	0.464631477831	0.561561954289	0.374598447116	0.30029296875	0.94189453125	0.07177734375	-6.0625	-21.125	18.875
18	12	13	19	56	27	0.464922927926	0.563986852309	0.371352381975	0.2783203125	0.89599609375	0.1044921875	-2.8125	-19.1875	13.75
18	12	13	19	56	27	0.463885926636	0.567405733423	0.368178935457	0.3173828125	0.96044921875	0.06689453125	1.875	-18.8125	19.3125
18	12	13	19	56	27	0.464802255495	0.569848175614	0.365799069886	0.2041015625	0.89794921875	0.0927734375	0.125	-22.5625	11.4375
18	12	13	19	56	27	0.464927843727	0.572538161239	0.363421344565	0.3134765625	0.9189453125	0.03564453125	-1.25	-18.4375	8.875
18	12	13	19	56	27	0.464204142762	0.574624299798	0.361413902603	0.33837890625	0.880859375	0.05224609375	0.4375	-10.875	10.0
18	12	13	19	56	27	0.46523790356	0.575351938987	0.360373206851	0.2431640625	0.875	0.072265625	-3.0625	-10.625	2.375
18	12	13	19	56	27	0.464128320309	0.576254007369	0.359998531455	0.3671875	0.90966796875	0.06103515625	3.6875	-0.0625	3.1875
18	12	13	19	56	27	0.462739931455	0.576700550374	0.361231356596	0.30029296875	0.9150390625	0.03271484375	7.3125	4.9375	1.75
18	12	13	19	56	27	0.461501404275	0.577410829843	0.362194065993	0.30810546875	0.9755859375	0.029296875	6.875	2.6875	3.0625
18	12	13	19	56	27	0.461209930682	0.577366957957	0.363181456797	0.31884765625	0.96142578125	0.029296875	1.75	3.0	-2.75
18	12	13	19	56	27	0.462022623281	0.576231148603	0.364295285473	0.2646484375	0.9189453125	0.078125	-0.8125	3.75	-6.5625
18	12	13	19	56	27	0.461574163207	0.575716411977	0.364766886978	0.35693359375	0.9560546875	0.06005859375	-0.4375	6.0625	-2.125
18	12	13	19	56	27	0.462182210289	0.573943386601	0.365558539015	0.27685546875	0.83544921875	0.076171875	-4.9375	9.3125	-6.0
18	12	13	19	56	27	0.461455661995	0.573523465622	0.366173613268	0.30908203125	0.84765625	0.068359375	2.125	6.1875	-0.8125
18	12	13	19	56	27	0.460843456902	0.574009519034	0.366660482863	0.2509765625	0.8271484375	0.09228515625	7.375	-0.625	2.0625
18	12	13	19	56	27	0.460889400503	0.57380760881	0.367136769173	0.2978515625	0.89208984375	0.048828125	-0.125	1.75	-2.375
18	12	13	19	56	27	0.461097775774	0.572374085707	0.368682891935	0.3134765625	0.93359375	0.0546875	-1.25	9.4375	-8.5625
18	12	13	19	56	27	0.460835731525	0.5713142314	0.369462077208	0.32275390625	0.97314453125	0.0625	-1.8125	9.0	-2.5
18	12	13	19	56	27	0.460794458982	0.570423131432	0.369722087436	0.32080078125	0.94677734375	0.01806640625	-6.875	7.25	-1.3125
18	12	13	19	56	27	0.463157505179	0.567837937623	0.371905466402	0.22119140625	0.93994140625	0.03564453125	-8.625	7.1875	-17.0
18	12	13	19	56	27	0.461519301019	0.566934435639	0.374171844365	0.3173828125	0.923828125	0.076171875	8.6875	15.0	-3.4375
18	12	13	19	56	27	0.461747170517	0.565815766119	0.37672221235	0.27001953125	0.99951171875	0.046875	3.875	7.9375	-10.8125
18	12	13	19	56	27	0.463844912902	0.563218451289	0.377717110282	0.2890625	0.99169921875	0.0673828125	-11.75	7.625	-14.0625
18	12	13	19	56	27	0.465013335663	0.560237909519	0.379494343374	0.29443359375	0.96630859375	0.1318359375	-4.6875	13.5	-14.3125
18	12	13	19	56	27	0.466145416223	0.557641026923	0.381608110806	0.20751953125	0.93408203125	0.078125	-4.5625	12.0625	-11.0
18	12	13	19	56	27	0.467808481475	0.555339452565	0.382352861163	0.24853515625	0.9990234375	0.1259765625	-7.625	6.125	-9.5
18	12	13	19	56	27	0.467818212855	0.554557471789	0.382910183878	0.24609375	0.9306640625	0.1455078125	2.5	3.9375	-0.8125
18	12	13	19	56	27	0.468537794148	0.554053876691	0.383693144087	0.21484375	0.88232421875	0.0791015625	0.1875	0.0	-5.3125
18	12	13	19	56	27	0.470068327169	0.552655321931	0.384917656295	0.1865234375	0.79541015625	0.10888671875	-1.25	1.375	-11.3125
18	12	13	19	56	28	0.46780357331	0.55386868792	0.385400804003	0.29931640625	0.873046875	0.09033203125	12.0	3.6875	5.75
18	12	13	19	56	28	0.465228157215	0.55672343505	0.38533001266	0.283203125	0.8671875	0.04443359375	15.0	-4.9375	11.0625
18	12	13	19	56	28	0.466210501025	0.557035484728	0.385395797784	0.205078125	0.97119140625	0.03271484375	-3.25	-6.1875	-0.8125
18	12	13	19	56	28	0.46492736132	0.558193608937	0.385272614501	0.34765625	1.0703125	0.08203125	6.3125	-1.1875	4.6875
18	12	13	19	56	28	0.463298593044	0.560414279676	0.385776957581	0.27294921875	1.1259765625	0.0048828125	9.875	-4.75	8.8125
18	12	13	19	56	28	0.466819164768	0.558315232758	0.385150226162	0.17236328125	1.18115234375	0.01513671875	-23.5625	-3.125	-3.875
18	12	13	19	56	28	0.467913889322	0.55641834269	0.384231402724	0.2744140625	0.96875	0.10791015625	-13.8125	5.8125	-0.25
18	12	13	19	56	28	0.468780249375	0.553441474099	0.387170979399	0.14990234375	0.9208984375	0.1123046875	0.0	15.125	-11.25
18	12	13	19	56	28	0.46957092603	0.551362820074	0.388999806524	0.23291015625	0.97509765625	0.1396484375	1.1875	9.0625	-10.625
18	12	13	19	56	28	0.470241973595	0.549042906606	0.391196885874	0.18505859375	0.7412109375	0.11767578125	1.3125	11.625	-12.75
18	12	13	19	56	28	0.471537492712	0.545884763408	0.394199239862	0.1640625	0.76513671875	0.11865234375	0.75	14.0	-19.0
18	12	13	19	56	28	0.470059492412	0.545808593839	0.396263631313	0.28662109375	0.71875	0.119140625	14.8125	8.5625	-8.75
18	12	13	19	56	28	0.467433551795	0.547149955378	0.399436558233	0.279296875	0.7880859375	0.0419921875	23.3125	6.875	-7.3125
18	12	13	19	56	28	0.467919457368	0.547086107017	0.402669535646	0.1796875	0.7734375	-0.00341796875	10.75	0.625	-18.125
18	12	13	19	56	28	0.467798028281	0.546110250396	0.406088241409	0.255859375	0.76220703125	-0.00048828125	7.9375	9.1875	-21.125
18	12	13	19	56	28	0.465364589739	0.546302869643	0.409696632519	0.3134765625	0.80322265625	-0.0283203125	15.8125	14.1875	-13.25
18	12	13	19	56	28	0.463588205014	0.546173437586	0.41280408565	0.29833984375	0.94091796875	-0.0400390625	10.125	12.8125	-11.1875
18	12	13	19	56	28	0.460781850647	0.546602394031	0.413293669457	0.3515625	1.05126953125	0.00732421875	3.625	12.625	6.0625
18	12	13	19	56	28	0.4604017479	0.544815855994	0.41401366247	0.2431640625	1.1142578125	0.04833984375	-6.375	13.6875	0.5625
18	12	13	19	56	28	0.461697189144	0.541719004977	0.414941498122	0.26708984375	1.22509765625	0.07275390625	-13.3125	13.4375	-9.5
18	12	13	19	56	28	0.462866244115	0.537945431806	0.41610961178	0.24169921875	1.23681640625	0.103515625	-13.25	17.75	-8.5625
18	12	13	19	56	28	0.467611477637	0.530602607375	0.417499348262	0.01318359375	1.15283203125	0.06591796875	-37.0625	21.625	-15.4375
18	12	13	19	56	28	0.472115901641	0.523569515744	0.418403943859	0.05224609375	1.05126953125	0.1416015625	-32.375	19.3125	-17.0625
18	12	13	19	56	28	0.473184143625	0.519635786207	0.420872635487	0.0673828125	0.90771484375	0.197265625	-1.25	17.375	-10.0625
18	12	13	19	56	28	0.474942517141	0.516204712435	0.424036199277	0.0263671875	0.9541015625	0.1611328125	1.5625	11.625	-14.375
18	12	13	19	56	28	0.476228218401	0.51449982734	0.42580979897	0.08056640625	0.89697265625	0.22265625	7.8125	2.6875	-10.0
18	12	13	19	56	28	0.475245057605	0.515225215931	0.42775717489	0.11962890625	0.88671875	0.16064453125	18.9375	0.125	-1.3125
18	12	13	19	56	28	0.476779123309	0.514684620118	0.428557959897	0.080078125	0.88720703125	0.09326171875	-0.1875	-4.6875	-7.0
18	12	13	19	56	28	0.478475691972	0.513877643923	0.428546732151	0.1416015625	0.80615234375	0.10205078125	-4.3125	-3.5	-9.375
18	12	13	19	56	28	0.479345727823	0.513100749787	0.42880475461	0.138671875	0.77197265625	0.09765625	-2.375	-0.0625	-6.375
18	12	13	19	56	28	0.479451560714	0.513510627662	0.428301922537	0.12646484375	0.689453125	0.091796875	0.625	-3.25	1.5625
18	12	13	19	56	28	0.475992286726	0.517316572198	0.427953567868	0.2353515625	0.8173828125	0.07763671875	19.8125	-4.9375	15.0625
18	12	13	19	56	28	0.472072171861	0.521940669975	0.427025719465	0.2060546875	0.79638671875	0.03173828125	18.8125	-8.0	22.375
18	12	13	19	56	28	0.472735172741	0.521504107928	0.427811597901	0.12939453125	0.806640625	0.01513671875	-2.8125	0.375	-5.5625
18	12	13	19	56	28	0.469761096449	0.523842220599	0.42941389209	0.27783203125	1.0966796875	0.07958984375	21.75	1.8125	3.375
18	12	13	19	56	28	0.463648035291	0.53146174872	0.427024967733	0.3369140625	1.22607421875	0.03662109375	28.1875	-15.8125	39.4375
18	12	13	19	56	28	0.468481366378	0.530192722913	0.422884548048	0.142578125	1.17041015625	-0.02880859375	-40.875	-16.375	1.8125
18	12	13	19	56	28	0.473833885962	0.524006686975	0.424332497129	0.1328125	1.05615234375	0.0576171875	-31.5625	11.5625	-30.9375
18	12	13	19	56	28	0.472068846882	0.521998031877	0.427694131122	0.18310546875	1.078125	0.14453125	12.0625	21.625	-5.5625
18	12	13	19	56	28	0.472371299116	0.520530099349	0.428424104987	0.109375	1.02880859375	0.06298828125	-6.25	7.4375	0.5
18	12	13	19	56	28	0.475238218754	0.51710996523	0.429154882617	0.11865234375	1.02978515625	0.1162109375	-14.875	5.875	-14.375
18	12	13	19	56	28	0.473722531071	0.516266610977	0.431178451164	0.11865234375	0.90673828125	0.19091796875	14.5625	11.8125	1.4375
18	12	13	19	56	28	0.475543951201	0.514852166395	0.432085179124	0.0751953125	1.0146484375	0.1787109375	1.5	-1.5625	-7.75
18	12	13	19	56	28	0.478719094285	0.513937877582	0.430865496182	0.16015625	1.0205078125	0.18359375	-8.125	-12.1875	-10.375
18	12	13	19	56	28	0.48142614013	0.512800938663	0.430213190774	0.10791015625	1.0078125	0.150390625	-8.5625	-7.875	-7.5
18	12	13	19	56	28	0.483296807798	0.513266337052	0.427020013559	0.07373046875	1.0009765625	0.1826171875	-10.5625	-15.25	12.5
18	12	13	19	56	28	0.483974689771	0.515409544763	0.424217946009	0.17138671875	0.8828125	0.08935546875	-4.875	-17.625	8.9375
18	12	13	19	56	28	0.486488250779	0.513712060045	0.42654703845	0.0703125	0.830078125	0.02490234375	-3.3125	-0.6875	-21.1875
18	12	13	19	56	28	0.486598781934	0.511685598213	0.429588839345	0.06005859375	0.82421875	0.1474609375	9.3125	11.625	-10.6875
18	12	13	19	56	29	0.481851200743	0.516522024409	0.429051442871	0.2431640625	0.857421875	0.08349609375	25.25	-4.4375	22.375
18	12	13	19	56	29	0.480258293971	0.519872888886	0.427276062252	0.19287109375	0.83349609375	0.0224609375	5.125	-11.9375	14.625
18	12	13	19	56	29	0.48128440484	0.519860402793	0.426716458369	0.13037109375	0.90234375	0.091796875	-3.6875	-5.4375	-1.0
18	12	13	19	56	29	0.477819977045	0.523538827684	0.42697377867	0.201171875	0.81982421875	0.08349609375	23.5625	-4.6875	13.875
18	12	13	19	56	29	0.47788280544	0.525494069745	0.426181855612	0.18994140625	1.03369140625	0.05419921875	3.375	-11.9375	3.6875
18	12	13	19	56	29	0.479519131743	0.524931839739	0.425133751603	0.19775390625	0.98193359375	0.04248046875	-12.6875	-4.75	-4.9375
18	12	13	19	56	29	0.478852077381	0.52377688668	0.426175296912	0.1728515625	0.9130859375	0.10400390625	1.5625	10.6875	-2.125
18	12	13	19	56	29	0.47580424098	0.525551573424	0.425385472148	0.2216796875	0.9443359375	0.099609375	8.9375	4.125	17.875
18	12	13	19	56	29	0.475189202973	0.526767221793	0.427151450534	0.1474609375	1.00634765625	-0.02734375	8.0625	-2.3125	-2.625
18	12	13	19	56	29	0.474027150465	0.524811413816	0.43313116916	0.06298828125	1.1630859375	-0.0419921875	12.75	20.9375	-14.25
18	12	13	19	56	29	0.468593455298	0.526152870218	0.435754679871	0.20263671875	1.32568359375	0.05224609375	22.5	20.1875	19.4375
18	12	13	19	56	29	0.468118092806	0.528059671517	0.43259263577	0.1640625	1.21826171875	0.0478515625	-8.6875	-10.0	23.25
18	12	13	19	56	29	0.476151689364	0.522112748471	0.432265897202	0.03076171875	1.19677734375	0.1005859375	-39.0625	-5.5625	-29.5
18	12	13	19	56	29	0.478182896977	0.517980605533	0.43417346773	0.10009765625	1.0966796875	0.150390625	-8.875	14.125	-14.9375
18	12	13	19	56	29	0.477440336934	0.515894365605	0.434408447706	0.009765625	0.90771484375	0.1396484375	-5.0	14.875	13.0
18	12	13	19	56	29	0.480620194433	0.513825348837	0.430873501715	0.0625	0.861328125	0.13818359375	-27.875	-6.6875	5.8125
18	12	13	19	56	29	0.481053462761	0.513709674228	0.429474960536	0.177734375	0.74267578125	0.2119140625	1.4375	-3.25	1.25
18	12	13	19	56	29	0.479469746649	0.514872987013	0.43137017181	0.10693359375	0.8408203125	0.123046875	19.25	1.0625	1.5625
18	12	13	19	56	29	0.479953390052	0.516027719636	0.430816612868	0.11474609375	0.8349609375	0.07373046875	2.0625	-9.6875	1.8125
18	12	13	19	56	29	0.481722938943	0.516881632915	0.429412173779	0.15380859375	0.84326171875	0.05224609375	-6.5625	-14.0625	-3.3125
18	12	13	19	56	29	0.480073168784	0.519687598096	0.428434020558	0.21044921875	0.82275390625	0.0244140625	7.0	-8.125	9.3125
18	12	13	19	56	29	0.47898146357	0.522625116743	0.426548039687	0.20849609375	0.873046875	-0.01171875	-0.4375	-11.5	11.75
18	12	13	19	56	29	0.477987239599	0.524253914049	0.424884328292	0.1689453125	0.87744140625	0.0185546875	-3.5625	-4.9375	13.75
18	12	13	19	56	29	0.474089453054	0.528353071409	0.424159599494	0.2802734375	1.0078125	0.03564453125	17.3125	-4.3125	18.875
18	12	13	19	56	29	0.469878772766	0.532504860173	0.423489078391	0.302734375	1.12548828125	0.00732421875	15.9375	-3.375	21.125
18	12	13	19	56	29	0.47096648028	0.532309314997	0.422380513678	0.2060546875	1.19970703125	0.0224609375	-12.5	-3.6875	2.25
18	12	13	19	56	29	0.474450522435	0.529323932916	0.42336148509	0.1748046875	1.107421875	0.1015625	-12.875	1.0	-20.625
18	12	13	19	56	29	0.476887748501	0.525412740189	0.425738134621	0.18212890625	1.09326171875	0.07275390625	-11.625	12.375	-23.4375
18	12	13	19	56	29	0.480678070629	0.520658278408	0.426903165204	0.0830078125	0.8984375	0.09912109375	-20.25	9.5625	-21.1875
18	12	13	19	56	29	0.482937548059	0.51718021293	0.427453444016	0.08984375	0.78857421875	0.1708984375	-10.5	8.1875	-12.1875
18	12	13	19	56	29	0.4828158135	0.516326038735	0.429101791265	0.16650390625	0.7529296875	0.1337890625	8.1875	6.25	-10.125
18	12	13	19	56	29	0.482771900299	0.516527477599	0.431985932282	0.11767578125	0.85302734375	0.11962890625	18.4375	-0.1875	-13.125
18	12	13	19	56	29	0.482889957071	0.517866059384	0.433020017123	0.12890625	0.99853515625	0.0751953125	11.0625	-8.0625	-3.5625
18	12	13	19	56	29	0.484713096561	0.518162634014	0.432524493418	0.10546875	0.98193359375	0.03173828125	-6.5	-11.125	-4.1875
18	12	13	19	56	29	0.487330462997	0.516628887626	0.432762147125	0.0703125	0.9091796875	0.0546875	-10.75	-4.1875	-11.125
18	12	13	19	56	29	0.488797644226	0.514494922974	0.433801805384	0.1064453125	0.8388671875	0.07373046875	-7.3125	5.6875	-12.0625
18	12	13	19	56	29	0.4885602527	0.513586452551	0.435211719359	0.12548828125	0.7685546875	0.08349609375	3.625	7.3125	-6.625
18	12	13	19	56	29	0.485940569785	0.515300878046	0.436498054834	0.13671875	0.810546875	0.0888671875	18.5	3.75	6.9375
18	12	13	19	56	29	0.482508257134	0.518520891127	0.43581390967	0.1591796875	0.88623046875	0.0810546875	16.0625	-2.125	20.9375
18	12	13	19	56	29	0.481854667565	0.520432340469	0.434853388869	0.142578125	0.8994140625	0.0615234375	4.25	-8.375	8.5
18	12	13	19	56	29	0.483491689944	0.520054184866	0.435759017107	0.09423828125	1.005859375	0.05419921875	-0.4375	-6.0	-9.5
18	12	13	19	56	29	0.485315291334	0.519069455101	0.435691177153	0.1171875	1.068359375	0.0087890625	-12.5625	-2.5625	-6.4375
18	12	13	19	56	29	0.487831361916	0.517069502852	0.433139557577	0.0791015625	0.90869140625	0.04638671875	-27.625	-2.25	3.25
18	12	13	19	56	29	0.488315060339	0.516515255074	0.431853631487	0.04150390625	0.7646484375	0.0576171875	-10.875	-0.0625	9.1875
18	12	13	19	56	29	0.483865634936	0.519818310473	0.43265291036	0.12158203125	0.81982421875	0.09765625	26.125	3.0	21.125
18	12	13	19	56	29	0.478903576031	0.523644376596	0.432880978997	0.1826171875	0.91015625	0.09326171875	26.4375	2.125	24.375
18	12	13	19	56	29	0.477567854202	0.52542230176	0.431483532893	0.22216796875	1.0087890625	0.09912109375	4.5625	-4.625	10.8125
18	12	13	19	56	29	0.479707467195	0.525181708582	0.429472164293	0.19189453125	1.14013671875	0.09765625	-13.1875	-10.1875	-0.8125
18	12	13	19	56	29	0.483431037069	0.52383903537	0.424772296334	0.16650390625	1.18896484375	0.09375	-34.9375	-13.0	6.5625
18	12	13	19	56	29	0.488807242735	0.520731092379	0.418855556899	0.14892578125	1.02490234375	0.1015625	-51.0	-11.5	2.5625
18	12	13	19	56	29	0.492539352042	0.517505096867	0.41690962628	0.087890625	0.89892578125	0.1826171875	-24.0625	-2.125	-5.875
18	12	13	19	56	30	0.491062619284	0.51773687219	0.416899650678	0.16259765625	0.95263671875	0.21484375	9.125	4.625	8.875
18	12	13	19	56	30	0.488669528759	0.519554712565	0.41664479182	0.22119140625	0.95849609375	0.1494140625	12.8125	0.875	11.1875
18	12	13	19	56	30	0.48886276641	0.519382354774	0.417935243053	0.10888671875	0.93701171875	0.1015625	5.125	0.0625	-3.5
18	12	13	19	56	30	0.489843717714	0.519142781204	0.417816853303	0.1015625	0.96630859375	0.11767578125	-2.1875	-3.875	-0.25
18	12	13	19	56	30	0.490325868847	0.520234953341	0.41598043025	0.2060546875	0.93359375	0.06787109375	-6.9375	-9.25	3.8125
18	12	13	19	56	30	0.491492017107	0.520546935158	0.415192337353	0.19580078125	0.9091796875	0.06591796875	-6.125	-7.5	-4.875
18	12	13	19	56	30	0.491180447974	0.521516807194	0.41591941997	0.1689453125	0.85205078125	0.1025390625	9.25	-3.75	-3.375
18	12	13	19	56	30	0.487753073283	0.524864056709	0.417559601343	0.25927734375	0.9375	0.1015625	28.5625	-1.6875	4.4375
18	12	13	19	56	30	0.483379082877	0.52970876136	0.418859359351	0.310546875	1.04638671875	0.05078125	32.0625	-5.4375	8.6875
18	12	13	19	56	30	0.483367309922	0.530428327216	0.41952058607	0.13525390625	1.03564453125	0.04541015625	3.8125	-3.8125	0.625
18	12	13	19	56	30	0.485677406233	0.530051853177	0.417986537374	0.13427734375	1.07080078125	0.13330078125	-9.5625	-10.9375	-0.4375
18	12	13	19	56	30	0.487141658051	0.530478404977	0.414018527323	0.2236328125	1.0146484375	0.1396484375	-15.875	-12.5625	10.0
18	12	13	19	56	30	0.492770522172	0.527440862392	0.410794700138	0.0947265625	0.8759765625	0.1015625	-36.4375	-12.0	-9.875
18	12	13	19	56	30	0.496246672683	0.525240174469	0.409266167323	0.1044921875	0.8271484375	0.22607421875	-12.6875	-7.125	-8.1875
18	12	13	19	56	30	0.493805209387	0.529451963686	0.406031180821	0.24609375	0.95068359375	0.17236328125	12.1875	-15.8125	24.75
18	12	13	19	56	30	0.495392424526	0.531588544258	0.402124851254	0.12451171875	0.8740234375	0.1220703125	-8.375	-24.0	13.4375
18	12	13	19	56	30	0.499839759144	0.530602885119	0.401141396641	0.0732421875	0.875	0.13720703125	-11.9375	-18.0625	-13.75
18	12	13	19	56	30	0.501128971925	0.531343203484	0.39980447821	0.18896484375	0.857421875	0.18408203125	1.625	-13.0	-2.4375
18	12	13	19	56	30	0.503021452759	0.532564273186	0.397485220285	0.162109375	0.87255859375	0.09619140625	-7.375	-18.5	0.8125
18	12	13	19	56	30	0.504538395439	0.533836535991	0.3952197085	0.18359375	0.85205078125	0.04638671875	-9.75	-16.25	0.6875
18	12	13	19	56	30	0.500995351429	0.536397069732	0.394729159076	0.1923828125	0.71142578125	0.0888671875	14.5625	2.125	18.375
18	12	13	19	56	30	0.495635142888	0.540986979239	0.395470454529	0.21826171875	0.7919921875	0.0888671875	33.0	-0.5	21.0
18	12	13	19	56	30	0.492083583748	0.54573546543	0.396376927916	0.2626953125	1.0078125	0.0869140625	31.5	-10.8125	9.875
18	12	13	19	56	30	0.491543833913	0.54708895857	0.396689851807	0.20263671875	1.1015625	0.04931640625	5.875	-5.0625	3.3125
18	12	13	19	56	30	0.494585417287	0.545307431574	0.395460806936	0.10693359375	1.0595703125	0.05517578125	-21.625	-5.0	-1.75
18	12	13	19	56	30	0.497222596572	0.544344600568	0.392174709425	0.20654296875	1.025390625	0.11083984375	-23.0	-9.875	3.25
18	12	13	19	56	30	0.499046800354	0.544398044564	0.388751109522	0.22509765625	0.90283203125	0.1279296875	-16.0	-11.6875	5.125
18	12	13	19	56	30	0.500697741451	0.545316789239	0.386800144773	0.1572265625	0.78515625	0.22705078125	3.25	-17.75	1.0
18	12	13	19	56	30	0.49992729063	0.549431690227	0.385658195629	0.25341796875	0.94384765625	0.21728515625	24.8125	-24.1875	4.5625
18	12	13	19	56	30	0.498991487355	0.552583478291	0.385337401795	0.205078125	0.97021484375	0.06298828125	13.5625	-14.875	5.6875
18	12	13	19	56	30	0.49906202288	0.553936871042	0.384062897256	0.16650390625	0.880859375	0.001953125	-4.5625	-8.875	7.3125
18	12	13	19	56	30	0.499607787271	0.554909516687	0.38351077916	0.16162109375	0.79833984375	0.021484375	-1.9375	-8.6875	0.1875
18	12	13	19	56	30	0.498263914409	0.556922694484	0.384242477178	0.19140625	0.79833984375	-0.00634765625	10.0	-4.0625	1.8125
18	12	13	19	56	30	0.495146825946	0.559176537536	0.386375666696	0.2412109375	0.85400390625	-0.03955078125	17.9375	4.625	2.0
18	12	13	19	56	30	0.489044971082	0.562841197997	0.3879642831	0.328125	0.86474609375	-0.04833984375	26.3125	11.0	15.25
18	12	13	19	56	30	0.483795596361	0.566320406641	0.389734403579	0.25732421875	0.88671875	-0.04541015625	26.0625	6.6875	14.9375
18	12	13	19	56	30	0.480252329276	0.569246723796	0.391380012114	0.2646484375	0.9775390625	-0.0322265625	21.625	1.1875	7.5
18	12	13	19	56	30	0.478118860382	0.57004366617	0.393579779362	0.27294921875	1.0341796875	-0.0234375	12.6875	7.875	-1.5625
18	12	13	19	56	30	0.476417736957	0.569442801803	0.394318844426	0.34375	1.041015625	-0.00390625	-0.75	13.6875	-0.0625
18	12	13	19	56	30	0.475856337899	0.567231009248	0.395346523932	0.32568359375	1.0107421875	0.02294921875	-7.3125	18.4375	-6.375
18	12	13	19	56	30	0.475977550441	0.563933904658	0.39772630401	0.24267578125	0.93505859375	0.01953125	-7.375	22.0	-12.3125
18	12	13	19	56	30	0.478488856258	0.558023360622	0.403166079294	0.1337890625	0.83544921875	0.03173828125	-7.875	27.3125	-35.125
18	12	13	19	56	30	0.478831948694	0.552869316924	0.409677506646	0.201171875	0.91015625	0.08251953125	7.1875	32.8125	-34.0
18	12	13	19	56	30	0.476109442887	0.550028485878	0.415619127771	0.25390625	1.07958984375	0.04443359375	17.0	34.1875	-16.9375
18	12	13	19	56	30	0.476358968716	0.545517696491	0.420201837601	0.154296875	1.13671875	-0.0400390625	-7.5	29.625	-18.75
18	12	13	19	56	30	0.47889821455	0.539630272092	0.422560838558	0.19873046875	1.09521484375	0.02294921875	-24.25	25.0	-23.875
18	12	13	19	56	30	0.480314889049	0.533723902636	0.426905875462	0.14892578125	0.982421875	0.0458984375	-11.125	30.5625	-27.125
18	12	13	19	56	30	0.479997129034	0.528887986149	0.431777681941	0.20458984375	1.17138671875	0.02197265625	-4.0625	33.8125	-22.75
18	12	13	19	56	30	0.477513767218	0.52597930872	0.433443085902	0.23388671875	0.99658203125	0.125	-0.3125	30.5	1.0625
18	12	13	19	56	31	0.478609758393	0.521947716365	0.435699076063	0.10009765625	0.88916015625	0.12646484375	-6.1875	18.75	-14.0
18	12	13	19	56	31	0.478968095447	0.518520959707	0.440086653265	0.16748046875	0.955078125	0.18115234375	12.375	19.25	-25.5625
18	12	13	19	56	31	0.476845718337	0.517376383593	0.442785309885	0.22802734375	1.08056640625	0.19287109375	17.9375	17.625	-6.3125
18	12	13	19	56	31	0.478796579922	0.516091928001	0.440951873197	0.09814453125	1.04541015625	0.11962890625	-15.125	-3.875	2.75
18	12	13	19	56	31	0.484227090538	0.512793620018	0.438325316671	0.04443359375	1.005859375	0.09423828125	-34.4375	-9.6875	-9.25
18	12	13	19	56	31	0.487265756613	0.509422523449	0.437275695901	0.0673828125	0.96923828125	0.13720703125	-21.9375	2.9375	-6.5625
18	12	13	19	56	31	0.489477077291	0.506262985292	0.436189449348	0.10009765625	0.85400390625	0.13671875	-20.4375	6.25	-5.5625
18	12	13	19	56	31	0.493119253022	0.502885199363	0.436415727084	0.08642578125	0.826171875	0.1611328125	-13.75	0.3125	-19.875
18	12	13	19	56	31	0.492960728857	0.501872599388	0.438268701485	0.064453125	0.7998046875	0.173828125	10.1875	6.875	-5.875
18	12	13	19	56	31	0.490868442605	0.503930597133	0.439291243649	0.11962890625	0.95166015625	0.12451171875	18.9375	-1.25	7.1875
18	12	13	19	56	31	0.49039935786	0.505476360772	0.438942218369	0.14111328125	0.8798828125	0.12158203125	8.125	-6.8125	2.8125
18	12	13	19	56	31	0.49307430243	0.504427585452	0.440031275838	0.07666015625	0.92431640625	0.09765625	-1.5625	-7.3125	-17.8125
18	12	13	19	56	31	0.492824945838	0.505093686748	0.441552595763	0.14013671875	0.89453125	0.13232421875	14.3125	-1.875	-8.5
18	12	13	19	56	31	0.491787440462	0.506131495136	0.441979999552	0.19482421875	0.94287109375	0.0361328125	4.3125	0.625	-1.6875
18	12	13	19	56	31	0.492577623333	0.504968361566	0.443197784761	0.07373046875	0.8193359375	0.01611328125	-4.5625	3.6875	-8.8125
18	12	13	19	56	31	0.490326092635	0.505280641707	0.445096211564	0.12158203125	0.826171875	0.0654296875	11.9375	10.375	1.6875
18	12	13	19	56	31	0.487144336857	0.506432347187	0.447286518041	0.18896484375	0.77490234375	0.015625	15.9375	11.8125	0.3125
18	12	13	19	56	31	0.487019831286	0.505758406071	0.450214096449	0.1259765625	0.78564453125	0.0478515625	10.75	6.125	-16.5
18	12	13	19	56	31	0.485322574625	0.507235642704	0.45193413942	0.140625	0.927734375	0.10986328125	20.125	0.875	-1.625
18	12	13	19	56	31	0.484220534394	0.510162010143	0.449672592573	0.18896484375	1.07861328125	0.07470703125	3.4375	-12.0	14.3125
18	12	13	19	56	31	0.487946293404	0.508943732099	0.445279986287	0.12353515625	0.99951171875	0.12158203125	-29.375	-14.5	2.375
18	12	13	19	56	31	0.492838305974	0.505656740982	0.442174967609	0.1044921875	1.02392578125	0.201171875	-29.1875	-8.0	-9.875
18	12	13	19	56	31	0.496484004707	0.502282625366	0.440817246372	0.1015625	0.9794921875	0.162109375	-22.875	-0.5625	-12.625
18	12	13	19	56	31	0.500336565756	0.4980170843	0.439907969916	0.04296875	1.0107421875	0.17529296875	-25.25	3.3125	-12.375
18	12	13	19	56	31	0.50063839857	0.49831893269	0.43752451121	0.0302734375	0.98193359375	0.18896484375	-6.0625	-6.0	16.1875
18	12	13	19	56	31	0.501321755347	0.498574954058	0.435886844628	0.0068359375	0.90234375	0.10546875	-8.0	-6.75	11.4375
18	12	13	19	56	31	0.501815127546	0.497786445096	0.437844533498	0.03369140625	0.9736328125	0.1103515625	5.125	2.75	-7.1875
18	12	13	19	56	31	0.499183332637	0.50015996914	0.439547466168	0.0712890625	1.0771484375	0.15283203125	24.5	0.0625	10.125
18	12	13	19	56	31	0.499669147846	0.502660082154	0.436676408954	0.1142578125	1.07958984375	0.11279296875	-2.9375	-18.75	12.9375
18	12	13	19	56	31	0.501551655433	0.503810072282	0.43544718387	0.1298828125	1.0029296875	0.07958984375	-4.375	-16.75	-5.3125
18	12	13	19	56	31	0.499827033228	0.505259272324	0.436776437878	0.1025390625	0.96435546875	0.06982421875	12.9375	1.3125	3.8125
18	12	13	19	56	31	0.498013745377	0.507718879035	0.43581543596	0.12841796875	0.87060546875	0.12939453125	11.3125	-5.6875	13.9375
18	12	13	19	56	31	0.495580411427	0.513342931408	0.433991467575	0.18994140625	0.83349609375	0.1015625	22.8125	-21.125	17.0625
18	12	13	19	56	31	0.494155940391	0.516373425854	0.434827929761	0.05419921875	0.83544921875	0.03515625	18.0	-10.5	7.375
18	12	13	19	56	31	0.492339066371	0.517731212616	0.435023620881	0.095703125	0.77587890625	0.00830078125	5.5625	1.8125	10.0
18	12	13	19	56	31	0.48929326919	0.52164424632	0.432770618583	0.2138671875	0.80810546875	0.08642578125	12.125	-8.1875	21.9375
18	12	13	19	56	31	0.487273312364	0.528169356368	0.427027946047	0.28955078125	0.95751953125	0.0537109375	4.9375	-30.4375	30.8125
18	12	13	19	56	31	0.487326224442	0.532738387641	0.421344304524	0.22998046875	0.99658203125	0.01904296875	-9.5625	-29.5625	24.3125
18	12	13	19	56	31	0.486180837539	0.535928154877	0.417389148411	0.2548828125	1.07861328125	0.05419921875	-4.1875	-14.875	22.25
18	12	13	19	56	31	0.485083646472	0.537699992673	0.415009904663	0.23681640625	1.05810546875	-0.0009765625	-7.625	-5.0625	15.4375
18	12	13	19	56	31	0.488246408034	0.535795345634	0.413779522448	0.1875	1.08544921875	0.05712890625	-21.4375	-4.75	-9.625
18	12	13	19	56	31	0.488618228312	0.535069005545	0.413051786507	0.2626953125	1.025390625	0.11669921875	-5.75	2.125	-2.8125
18	12	13	19	56	31	0.488354425242	0.535779920607	0.411326143196	0.197265625	1.0849609375	0.10009765625	-4.5	-4.0625	11.3125
18	12	13	19	56	31	0.491906262665	0.533595303167	0.409748944196	0.099609375	0.96875	0.06201171875	-24.5625	-5.4375	-5.625
18	12	13	19	56	31	0.491721995052	0.532556406012	0.410663552968	0.23193359375	0.93115234375	0.13916015625	2.8125	7.375	-6.75
18	12	13	19	56	31	0.489592056201	0.533784133085	0.411767611411	0.26611328125	1.0302734375	0.06591796875	11.5625	4.9375	0.9375
18	12	13	19	56	31	0.490260043349	0.533841426685	0.411886799368	0.1318359375	1.0283203125	0.03955078125	-3.5625	-3.5	-0.125
18	12	13	19	56	31	0.490494294041	0.533403389202	0.41120707553	0.2255859375	1.15869140625	0.0859375	-7.6875	1.375	2.125
18	12	13	19	56	31	0.488012038953	0.535622969583	0.409515043069	0.2373046875	0.95703125	0.15087890625	9.5	-2.5	18.5625
18	12	13	19	56	31	0.49184099073	0.534628349194	0.408402589846	0.1025390625	1.08349609375	0.12548828125	-12.625	-15.0	-8.3125
18	12	13	19	56	31	0.494536155021	0.533356815919	0.407372784326	0.16796875	0.87841796875	0.16455078125	-9.0	-7.25	-9.6875
18	12	13	19	56	32	0.494656299314	0.533171615807	0.406394575621	0.16259765625	0.9287109375	0.13916015625	-2.9375	-0.9375	5.625
18	12	13	19	56	32	0.495637414229	0.533542689381	0.404200856777	0.1044921875	0.779296875	0.13134765625	-6.5	-9.3125	8.625
18	12	13	19	56	32	0.497169910847	0.534099044801	0.402069760927	0.1826171875	0.8203125	0.0849609375	-9.3125	-12.4375	0.375
18	12	13	19	56	32	0.49617761534	0.535302950736	0.4036440608	0.17578125	0.64453125	0.0693359375	15.0	-1.125	-6.375
18	12	13	19	56	32	0.493140014858	0.538187338904	0.405670075349	0.17529296875	0.90673828125	0.06787109375	26.125	-0.8125	5.625
18	12	13	19	56	32	0.490081918472	0.543979332099	0.402307874536	0.27783203125	0.9404296875	-0.01708984375	9.75	-20.4375	26.5625
18	12	13	19	56	32	0.493019003556	0.542583375339	0.402924160267	0.13037109375	0.88232421875	-0.06591796875	-17.3125	-4.1875	-16.0625
18	12	13	19	56	32	0.489777563922	0.543614030943	0.404994284225	0.32421875	1.03564453125	0.060546875	16.875	12.0625	-0.875
18	12	13	19	56	32	0.48585702961	0.546161897104	0.404738437606	0.25439453125	1.0732421875	0.052734375	13.8125	4.5	20.625
18	12	13	19	56	32	0.489852115136	0.544727760183	0.402136540126	0.18212890625	1.1435546875	0.056640625	-27.0625	-12.4375	-4.625
18	12	13	19	56	32	0.492653147988	0.54069156051	0.404084232397	0.14794921875	0.96240234375	0.11962890625	-12.0625	11.25	-20.8125
18	12	13	19	56	32	0.491182082188	0.539403014824	0.405361029925	0.15087890625	1.14892578125	0.19677734375	7.5	14.25	7.5625
18	12	13	19	56	32	0.49155733335	0.53977915048	0.400790444651	0.2294921875	1.095703125	0.23193359375	-12.1875	-8.4375	21.1875
18	12	13	19	56	32	0.498510337633	0.536293844306	0.397550854537	0.09228515625	1.01220703125	0.142578125	-38.3125	-16.8125	-13.8125
18	12	13	19	56	32	0.505208922756	0.530051260748	0.39985787761	-0.04638671875	0.796875	0.1806640625	-21.5625	3.1875	-34.3125
18	12	13	19	56	32	0.505292543625	0.529037264508	0.400303032265	0.09814453125	0.9345703125	0.2138671875	3.75	4.125	2.75
18	12	13	19	56	32	0.504234719675	0.532068036728	0.396197502168	0.21728515625	0.8740234375	0.13818359375	-1.3125	-16.1875	22.25
18	12	13	19	56	32	0.507658763457	0.53121969681	0.395164462501	-0.013671875	0.716796875	0.13232421875	-9.9375	-14.625	-3.9375
18	12	13	19	56	32	0.50471901543	0.535298798563	0.394546343661	0.17626953125	0.8544921875	0.26025390625	31.6875	-12.5625	17.4375
18	12	13	19	56	32	0.496482302967	0.544702246334	0.390825692882	0.4345703125	0.94091796875	0.126953125	40.625	-17.75	45.6875
18	12	13	19	56	32	0.498453511942	0.547895998432	0.389313801025	0.20556640625	0.8828125	-0.06298828125	-3.5625	-28.3125	-6.5625
18	12	13	19	56	32	0.499979654327	0.549483194757	0.389741190682	0.26708984375	0.90673828125	0.00732421875	3.25	-16.0625	-16.75
18	12	13	19	56	32	0.493257518218	0.556066822296	0.38778183557	0.37060546875	0.99560546875	-0.041015625	23.4375	-5.875	34.25
18	12	13	19	56	32	0.49174002636	0.560227155156	0.382294908775	0.197265625	0.98828125	-0.03076171875	-10.4375	-20.3125	37.3125
18	12	13	19	56	32	0.497218061656	0.558988829934	0.380085547499	0.10498046875	0.86279296875	0.05078125	-25.25	-21.5	-12.0625
18	12	13	19	56	32	0.495337084494	0.560466433743	0.379911030671	0.33447265625	0.91162109375	0.1650390625	15.0625	-0.875	2.75
18	12	13	19	56	32	0.492580456864	0.563934428869	0.376790478342	0.38720703125	1.20263671875	0.07470703125	4.8125	-9.25	23.1875
18	12	13	19	56	32	0.49801287981	0.561248735122	0.370869746014	0.140625	1.00537109375	0.08056640625	-48.875	-14.5	9.5
18	12	13	19	56	32	0.505573577037	0.556112623492	0.371535236439	-0.00439453125	0.81201171875	0.13134765625	-29.625	-6.8125	-29.4375
18	12	13	19	56	32	0.505049557144	0.555041772191	0.375399417021	0.22119140625	0.90234375	0.1318359375	15.625	11.625	-16.875
18	12	13	19	56	32	0.50064638382	0.557291085623	0.377529612769	0.31396484375	0.91357421875	0.03369140625	22.6875	10.9375	5.6875
18	12	13	19	56	32	0.500896473939	0.557419766027	0.380586097369	0.15185546875	0.7734375	0.04248046875	12.4375	0.375	-15.625
18	12	13	19	56	32	0.496858811556	0.560766818399	0.385279216037	0.2333984375	0.81201171875	0.05859375	43.6875	2.1875	-7.1875
18	12	13	19	56	32	0.491231618544	0.566246983751	0.38789474849	0.2587890625	1.04150390625	-0.02587890625	40.875	-3.5	12.75
18	12	13	19	56	32	0.490757834203	0.569071553268	0.3853425631	0.24365234375	1.083984375	-0.03515625	-3.375	-15.5625	14.8125
18	12	13	19	56	32	0.494886194646	0.567825144152	0.382944744105	0.13232421875	0.94775390625	-0.01123046875	-27.5625	-13.6875	-3.4375
18	12	13	19	56	32	0.495457560628	0.567545201271	0.380703314727	0.1484375	0.90478515625	0.0517578125	-13.125	-2.5625	13.5
18	12	13	19	56	32	0.493308905432	0.570216752604	0.376482223299	0.32421875	1.0419921875	0.10302734375	-1.0625	-8.6875	27.75
18	12	13	19	56	32	0.494467873475	0.570093807956	0.375321929885	0.1552734375	0.9013671875	0.08056640625	-6.1875	-6.5625	4.3125
18	12	13	19	56	32	0.4960101252	0.570234628306	0.376799225063	0.0908203125	0.916015625	0.08740234375	7.0	-9.125	-7.75
18	12	13	19	56	32	0.494351283445	0.570832596959	0.377828675704	0.1962890625	0.9189453125	0.0947265625	12.4375	4.1875	5.625
18	12	13	19	56	32	0.491120237004	0.571813867792	0.376733047823	0.30029296875	0.8720703125	0.01123046875	1.125	10.75	17.625
18	12	13	19	56	32	0.492407746276	0.567730810476	0.380155627099	0.0830078125	0.69091796875	-0.005859375	-10.4375	22.375	-15.75
18	12	13	19	56	32	0.488428272262	0.566984531498	0.385517741516	0.2666015625	0.78662109375	-0.01513671875	21.875	29.5	-10.625
18	12	13	19	56	32	0.482331554733	0.566077301771	0.391810459356	0.23388671875	0.7822265625	-0.05712890625	25.6875	42.0	-1.125
18	12	13	19	56	32	0.479274526526	0.563690811573	0.398032244966	0.1806640625	0.78369140625	-0.0986328125	11.6875	35.5	-13.75
18	12	13	19	56	32	0.476712795424	0.560396949397	0.406090938279	0.201171875	0.86962890625	-0.0546875	18.8125	38.6875	-27.0
18	12	13	19	56	32	0.473349959695	0.556361686992	0.413715799718	0.17626953125	0.857421875	-0.0556640625	14.0625	46.875	-19.0625
18	12	13	19	56	32	0.471103621944	0.552652525664	0.418792685949	0.27001953125	0.9599609375	-0.0625	1.375	38.125	-17.1875
18	12	13	19	56	32	0.470172538944	0.549948666219	0.422135957333	0.25439453125	1.12109375	0.0087890625	1.4375	23.1875	-13.3125
18	12	13	19	56	33	0.47005545043	0.546109091676	0.424704041565	0.1025390625	0.96240234375	0.0419921875	-6.8125	25.0625	-5.375
18	12	13	19	56	33	0.471898910769	0.541362235107	0.428621672671	0.1494140625	1.08154296875	0.10498046875	-2.75	20.1875	-25.1875
18	12	13	19	56	33	0.471241108235	0.538569986782	0.430648448005	0.23876953125	1.25537109375	0.2451171875	9.4375	18.9375	-6.625
18	12	13	19	56	33	0.472864784251	0.535551260748	0.42757426277	0.17724609375	1.234375	0.20947265625	-23.4375	7.3125	11.6875
18	12	13	19	56	33	0.479945973586	0.528593683233	0.427391797921	0.05126953125	1.03564453125	0.14990234375	-38.0625	4.875	-27.875
18	12	13	19	56	33	0.484451028106	0.52174466275	0.431043613517	-0.048828125	0.8681640625	0.20654296875	-11.0625	17.4375	-29.625
18	12	13	19	56	33	0.48518693778	0.520893864262	0.430375279694	0.11865234375	0.9423828125	0.1904296875	-1.125	-0.5625	1.8125
18	12	13	19	56	33	0.487711204546	0.522015797406	0.428563249952	0.14892578125	0.974609375	0.13232421875	-2.3125	-21.0	-4.5625
18	12	13	19	56	33	0.487818796427	0.522854831105	0.428855713676	0.11376953125	0.919921875	0.119140625	8.4375	-6.125	0.375
18	12	13	19	56	33	0.48776521522	0.522374510306	0.429960978102	0.1201171875	0.85791015625	-0.00244140625	-2.125	4.5	-4.375
18	12	13	19	56	33	0.487349008089	0.522752618396	0.432839656358	0.17724609375	0.88720703125	0.05517578125	15.875	1.375	-15.375
18	12	13	19	56	33	0.485870128831	0.525179219656	0.433132466606	0.18701171875	1.02978515625	0.0419921875	12.5625	-6.375	4.625
18	12	13	19	56	33	0.486975135941	0.526467855038	0.429841928716	0.13623046875	0.96484375	0.0458984375	-12.75	-14.625	11.9375
18	12	13	19	56	33	0.488191747446	0.527012696606	0.429044735284	0.09326171875	0.986328125	0.15283203125	2.8125	-11.25	1.6875
18	12	13	19	56	33	0.488129893456	0.529148186366	0.4259310237	0.14990234375	0.9873046875	0.1455078125	0.0625	-14.8125	16.9375
18	12	13	19	56	33	0.490136926686	0.531581879764	0.422079308597	0.150390625	1.01123046875	0.0732421875	-8.8125	-26.9375	9.6875
18	12	13	19	56	33	0.493804165305	0.53195343642	0.420008215262	-0.0107421875	0.93505859375	0.013671875	-16.125	-22.25	1.375
18	12	13	19	56	33	0.496136807861	0.53202859465	0.41824918891	0.06884765625	0.912109375	0.07763671875	-10.625	-14.0	1.6875
18	12	13	19	56	33	0.49540294173	0.533614159266	0.418370103822	0.14453125	0.763671875	0.02392578125	7.0625	-5.1875	1.6875
18	12	13	19	56	33	0.495654977549	0.53362263716	0.420574235876	0.16796875	0.9130859375	0.0341796875	8.0625	0.0625	-14.5625
18	12	13	19	56	33	0.491851255225	0.536897945018	0.421290315657	0.23388671875	0.82958984375	0.09716796875	26.4375	0.0625	10.125
18	12	13	19	56	33	0.490011232793	0.540001167977	0.420184021743	0.1650390625	0.86865234375	0.0537109375	12.375	-10.0625	14.125
18	12	13	19	56	33	0.491225239734	0.541031377361	0.420971729429	0.0986328125	0.9140625	0.00244140625	4.25	-11.875	-7.5625
18	12	13	19	56	33	0.491135433277	0.541433170913	0.421915003083	0.1259765625	0.96337890625	0.01318359375	4.0625	-1.3125	-2.25
18	12	13	19	56	33	0.490511234464	0.542577695763	0.420255083286	0.19677734375	0.994140625	0.041015625	-3.125	-4.1875	9.9375
18	12	13	19	56	33	0.491299816802	0.543365755891	0.416588551332	0.21826171875	1.0478515625	0.08349609375	-13.375	-10.75	12.5625
18	12	13	19	56	33	0.492337744744	0.543305016857	0.41512385346	0.115234375	1.0	0.0595703125	-9.0	-5.875	6.5
18	12	13	19	56	33	0.4924543793	0.543054860267	0.415241341396	0.060546875	0.92724609375	0.10205078125	1.8125	0.125	5.75
18	12	13	19	56	33	0.492758762323	0.542931895313	0.415912078096	0.1123046875	0.95751953125	0.0791015625	3.4375	-0.875	-1.125
18	12	13	19	56	33	0.492532938144	0.543928741083	0.415561314027	0.1533203125	1.06591796875	0.08447265625	4.9375	-5.8125	5.25
18	12	13	19	56	33	0.491678134284	0.545515516585	0.413302625355	0.16259765625	1.03857421875	0.08251953125	-1.1875	-6.625	17.9375
18	12	13	19	56	33	0.49099165296	0.548001374972	0.410604282628	0.208984375	1.03759765625	0.08056640625	1.5	-13.1875	16.125
18	12	13	19	56	33	0.491175055917	0.548612079356	0.410848676696	0.1142578125	0.890625	0.05615234375	4.3125	-5.25	1.125
18	12	13	19	56	33	0.491360544204	0.548431613624	0.41317012717	0.14208984375	1.1474609375	0.0166015625	6.75	1.4375	-8.6875
18	12	13	19	56	33	0.488243375698	0.550685302606	0.412128925205	0.2255859375	1.0576171875	0.05859375	9.5	1.8125	20.5
18	12	13	19	56	33	0.488925461451	0.551185632572	0.40951322358	0.1005859375	0.814453125	0.01025390625	-13.375	-7.5	13.875
18	12	13	19	56	33	0.49129882196	0.549102273866	0.411399435956	0.06787109375	0.75390625	0.04345703125	-4.1875	1.1875	-17.4375
18	12	13	19	56	33	0.488866082295	0.548440722864	0.413726346085	0.1708984375	0.8212890625	0.041015625	9.9375	17.8125	0.9375
18	12	13	19	56	33	0.485512386116	0.55137457679	0.412020191889	0.25537109375	0.90771484375	0.009765625	7.625	-0.9375	21.0
18	12	13	19	56	33	0.485623816288	0.552033910823	0.412377388492	0.1650390625	0.7900390625	-0.091796875	-4.0	-2.4375	-3.5
18	12	13	19	56	33	0.484605364095	0.551506419524	0.415750993179	0.15771484375	0.876953125	-0.060546875	7.75	10.9375	-11.1875
18	12	13	19	56	33	0.481610134523	0.553393850391	0.415625273253	0.21337890625	0.89013671875	0.009765625	10.5	3.9375	13.8125
18	12	13	19	56	33	0.478050735261	0.55965873233	0.412068502777	0.38916015625	1.14013671875	0.02587890625	18.0	-21.6875	25.4375
18	12	13	19	56	33	0.478914422654	0.562355158796	0.407193233944	0.2392578125	1.1015625	-0.05615234375	-17.5	-21.875	19.625
18	12	13	19	56	33	0.481949498579	0.559283593653	0.407545187692	0.1064453125	1.02392578125	0.0361328125	-18.0	3.8125	-9.25
18	12	13	19	56	33	0.481120493239	0.557237881601	0.408787610152	0.24169921875	1.14892578125	0.12548828125	1.0625	16.5625	-0.6875
18	12	13	19	56	33	0.480136899351	0.55619214682	0.406279074763	0.244140625	1.20263671875	0.1083984375	-13.1875	10.125	20.4375
18	12	13	19	56	33	0.482951376171	0.552537393465	0.40604051495	0.0908203125	0.95703125	0.125	-18.5	7.1875	-4.75
18	12	13	19	56	33	0.482388243628	0.548615150415	0.41127824694	0.05224609375	0.83740234375	0.09814453125	9.3125	28.4375	-14.1875
18	12	13	19	56	33	0.47737524375	0.547873697468	0.416154508616	0.15478515625	0.990234375	-0.0068359375	21.3125	33.0625	5.6875
18	12	13	19	56	34	0.47736690278	0.546582357038	0.418588699561	0.0908203125	0.9951171875	-0.07861328125	-3.6875	10.1875	-4.5625
18	12	13	19	56	34	0.480737587592	0.544461564414	0.419699295617	0.0439453125	0.8935546875	0.01025390625	-11.75	-3.9375	-15.0
18	12	13	19	56	34	0.479699365617	0.546108948235	0.418905299177	0.1953125	1.0380859375	0.05322265625	5.3125	-4.875	10.0
18	12	13	19	56	34	0.477561421296	0.550684962032	0.415424723075	0.2822265625	1.0859375	0.0537109375	8.75	-18.8125	24.4375
18	12	13	19	56	34	0.477689860684	0.552157229715	0.414270519354	0.19189453125	0.818359375	0.0341796875	1.25	-10.1875	3.0625
18	12	13	19	56	34	0.479094220479	0.550631795508	0.417383906184	0.09326171875	0.97412109375	0.13818359375	12.5	1.5	-16.4375
18	12	13	19	56	34	0.478361967711	0.553378792812	0.413782796876	0.27392578125	1.00390625	0.2080078125	8.625	-16.75	17.375
18	12	13	19	56	34	0.47799068815	0.55508202248	0.410726515204	0.22021484375	0.79931640625	0.0390625	-6.0	-9.8125	14.1875
18	12	13	19	56	34	0.479944686134	0.554960840179	0.410544061928	0.1103515625	0.87255859375	0.0908203125	-0.3125	-10.5	-4.875
18	12	13	19	56	34	0.478127795037	0.55931124549	0.40866406074	0.17529296875	0.85888671875	0.04248046875	15.75	-18.875	18.6875
18	12	13	19	56	34	0.475119076746	0.564844801671	0.407000771293	0.26806640625	1.041015625	-0.10498046875	14.375	-18.6875	20.1875
18	12	13	19	56	34	0.47578642563	0.564595822589	0.408584263396	0.11962890625	0.8486328125	-0.0625	-0.25	0.0	-7.25
18	12	13	19	56	34	0.473050781167	0.565951850707	0.410424961621	0.1572265625	0.88232421875	-0.041015625	14.9375	6.75	7.25
18	12	13	19	56	34	0.472373150511	0.566982064233	0.410907875597	0.22802734375	0.9833984375	-0.01806640625	6.0625	-2.6875	0.0625
18	12	13	19	56	34	0.471346821476	0.568460625279	0.410185268107	0.2353515625	0.90966796875	0.00439453125	4.4375	-4.1875	6.625
18	12	13	19	56	34	0.47031245701	0.570784138286	0.408295914982	0.291015625	0.9560546875	0.00537109375	3.3125	-9.875	9.625
18	12	13	19	56	34	0.470238601051	0.572416614831	0.407552328559	0.25146484375	0.98974609375	-0.02197265625	2.6875	-9.8125	2.25
18	12	13	19	56	34	0.471520433077	0.571867305825	0.408040659563	0.14453125	0.96044921875	-0.0078125	-3.4375	-2.6875	-4.125
18	12	13	19	56	34	0.472257669001	0.571384779568	0.407617515004	0.21044921875	0.9951171875	0.01611328125	-5.375	-1.1875	-0.5
18	12	13	19	56	34	0.472619332764	0.571867561496	0.405965540774	0.2861328125	1.03125	0.0498046875	-3.5625	-6.0	3.6875
18	12	13	19	56	34	0.473661812519	0.572117547518	0.404870979696	0.18310546875	0.96435546875	0.01806640625	-5.125	-7.375	2.6875
18	12	13	19	56	34	0.476825142162	0.570945005093	0.404434637989	0.16650390625	1.041015625	0.009765625	-13.125	-8.875	-9.3125
18	12	13	19	56	34	0.47780377543	0.570337056415	0.404375320928	0.201171875	0.9287109375	0.04638671875	-3.0625	-1.5625	-4.4375
18	12	13	19	56	34	0.477074673308	0.571805979983	0.402913244435	0.26123046875	1.0068359375	0.02392578125	1.6875	-6.0625	8.875
18	12	13	19	56	34	0.479699655144	0.5709518481	0.401326534237	0.18505859375	0.93017578125	0.037109375	-14.375	-8.8125	-3.4375
18	12	13	19	56	34	0.480125546466	0.571194363569	0.400959155191	0.19921875	0.88427734375	0.09228515625	3.5625	-5.0625	-0.4375
18	12	13	19	56	34	0.478348754608	0.573688904499	0.399122432868	0.314453125	0.94873046875	0.03271484375	7.0625	-7.6875	11.6875
18	12	13	19	56	34	0.480250639304	0.573822605503	0.397848712123	0.22998046875	0.93994140625	-0.01318359375	-10.125	-11.0	-4.75
18	12	13	19	56	34	0.480484844565	0.57362761296	0.398756032716	0.16796875	0.8515625	0.00732421875	2.1875	0.6875	-4.0625
18	12	13	19	56	34	0.479091271714	0.574677579716	0.398337321851	0.20263671875	0.85791015625	-0.03662109375	0.875	1.125	9.0625
18	12	13	19	56	34	0.478861288042	0.575549150408	0.398715351624	0.2060546875	0.84765625	-0.04736328125	2.625	-3.25	-1.875
18	12	13	19	56	34	0.476963219044	0.576884999128	0.400602713922	0.17919921875	0.869140625	-0.06640625	12.875	2.5625	0.6875
18	12	13	19	56	34	0.474648618371	0.57908840567	0.400728932563	0.2080078125	0.955078125	-0.09130859375	8.125	-0.75	11.9375
18	12	13	19	56	34	0.473358389605	0.581092439593	0.399928326073	0.22265625	0.958984375	-0.09912109375	1.3125	-5.25	10.5625
18	12	13	19	56	34	0.472749475288	0.58255919847	0.399075025104	0.20166015625	0.962890625	-0.0537109375	0.3125	-5.875	9.1875
18	12	13	19	56	34	0.472438438385	0.584138999398	0.397299973572	0.2236328125	0.9833984375	-0.0126953125	-0.5	-9.0	11.25
18	12	13	19	56	34	0.473060745563	0.584886201805	0.395600863483	0.20458984375	0.98193359375	0.0107421875	-4.5	-8.875	7.8125
18	12	13	19	56	34	0.474335641167	0.584633479745	0.394130129329	0.177734375	0.935546875	0.03369140625	-8.1875	-5.875	5.0625
18	12	13	19	56	34	0.475367297363	0.584198819088	0.392721262356	0.17529296875	0.9091796875	0.052734375	-7.375	-3.5625	5.75
18	12	13	19	56	34	0.476598811498	0.583479513206	0.392363878114	0.14013671875	0.921875	0.01806640625	-6.3125	-2.0625	1.8125
18	12	13	19	56	34	0.477376736812	0.582911115785	0.392778327757	0.1572265625	0.9580078125	-0.005859375	-3.3125	0.0	-0.625
18	12	13	19	56	34	0.47782120011	0.58226065762	0.393585985987	0.15478515625	0.94287109375	-0.0205078125	-2.5625	2.75	-1.0
18	12	13	19	56	34	0.477449953297	0.582254551841	0.393398740603	0.22607421875	0.9794921875	-0.01953125	-2.5	2.375	3.9375
18	12	13	19	56	34	0.477386025413	0.582556223826	0.392541814273	0.240234375	0.98583984375	-0.01318359375	-4.0	-1.375	4.75
18	12	13	19	56	34	0.477748785805	0.58255198821	0.392111690304	0.17724609375	0.91796875	-0.02197265625	-5.0	-1.5625	3.9375
18	12	13	19	56	34	0.478655603633	0.582358214009	0.391799326667	0.181640625	0.92236328125	-0.02685546875	-6.625	-2.875	-0.3125
18	12	13	19	56	34	0.479707477918	0.581704067256	0.391627837934	0.197265625	0.87158203125	-0.017578125	-7.875	-0.875	-3.1875
18	12	13	19	56	34	0.480737969091	0.580535655666	0.392354452173	0.18994140625	0.86083984375	-0.0322265625	-7.0625	3.4375	-7.5
18	12	13	19	56	34	0.480678134205	0.579865685707	0.393087896416	0.21875	0.87158203125	-0.04345703125	-4.3125	6.25	-3.75
18	12	13	19	56	34	0.479844391812	0.580134982798	0.39310493363	0.2314453125	0.876953125	-0.03759765625	-1.1875	3.375	2.75
18	12	13	19	56	35	0.47946739659	0.580976534786	0.393157161226	0.2021484375	0.89892578125	-0.0390625	1.5	-3.0	2.3125
18	12	13	19	56	35	0.479101435544	0.582258707308	0.393096349204	0.23486328125	0.96875	-0.02783203125	4.0	-6.0	1.3125
18	12	13	19	56	35	0.478718466487	0.583764301094	0.391678745308	0.3037109375	1.056640625	-0.00048828125	0.875	-8.0625	5.4375
18	12	13	19	56	35	0.479397784192	0.584628466641	0.388633268647	0.34033203125	1.10595703125	0.03369140625	-9.625	-10.5	7.4375
18	12	13	19	56	35	0.482029971405	0.583783037421	0.385465274081	0.2958984375	1.08740234375	0.091796875	-17.75	-10.3125	1.875
18	12	13	19	56	35	0.485382649016	0.5820685288	0.38259286268	0.25	1.015625	0.16455078125	-17.4375	-9.5	-1.5625
18	12	13	19	56	35	0.489111880774	0.580122215759	0.380277925524	0.20703125	0.931640625	0.185546875	-15.5625	-10.0625	-5.125
18	12	13	19	56	35	0.492334639285	0.578520668379	0.379169697402	0.18896484375	0.8603515625	0.17333984375	-8.5	-9.125	-9.4375
18	12	13	19	56	35	0.494000737096	0.577870379104	0.378817320452	0.19384765625	0.8115234375	0.11083984375	-2.125	-5.8125	-6.5
18	12	13	19	56	35	0.494298697955	0.578350230072	0.378811770747	0.21875	0.7919921875	0.07568359375	4.625	-5.5	-4.125
18	12	13	19	56	35	0.492956243633	0.580731265717	0.379544566978	0.240234375	0.814453125	0.02880859375	17.4375	-8.3125	-1.5
18	12	13	19	56	35	0.490314864375	0.584984147911	0.380080998439	0.25927734375	0.9326171875	-0.015625	25.3125	-13.625	5.75
18	12	13	19	56	35	0.48880308401	0.589273847781	0.380397205238	0.20361328125	1.00048828125	-0.0615234375	20.5	-19.625	5.5625
18	12	13	19	56	35	0.487538601725	0.593201468833	0.380288655158	0.20751953125	1.03515625	-0.072265625	16.5625	-18.8125	7.0
18	12	13	19	56	35	0.486955704913	0.595663164232	0.379713141171	0.20556640625	1.01806640625	-0.06787109375	6.4375	-12.8125	7.0
18	12	13	19	56	35	0.487829405282	0.595869701497	0.379972228213	0.1748046875	0.94775390625	-0.02734375	-0.875	-5.5	-2.5
18	12	13	19	56	35	0.486545220978	0.596416177918	0.380763905214	0.26416015625	0.93701171875	0.00146484375	8.375	3.25	0.1875
18	12	13	19	56	35	0.484025124832	0.597798495914	0.381421564322	0.26611328125	0.9345703125	0.01171875	14.875	3.8125	6.5625
18	12	13	19	56	35	0.482943877174	0.599223968936	0.381923639975	0.220703125	0.89794921875	0.0126953125	12.9375	-4.25	2.1875
18	12	13	19	56	35	0.481961190535	0.601230715143	0.382712343548	0.2275390625	0.93994140625	0.0107421875	17.3125	-9.125	-0.4375
18	12	13	19	56	35	0.480483831391	0.603717679915	0.382458293635	0.27392578125	0.96826171875	-0.0068359375	15.125	-9.5	4.875
18	12	13	19	56	35	0.480009931648	0.605383838006	0.380882753495	0.27783203125	0.9384765625	-0.01708984375	2.9375	-9.6875	7.0
18	12	13	19	56	35	0.479894607932	0.606613153603	0.378812762252	0.28662109375	0.9140625	-0.00439453125	-1.6875	-8.6875	7.375
18	12	13	19	56	35	0.479452732497	0.607754405789	0.377397357738	0.259765625	0.87109375	-0.00146484375	1.75	-6.25	7.0
18	12	13	19	56	35	0.47921309253	0.608553627885	0.376241179768	0.24658203125	0.875	-0.01220703125	0.0	-4.9375	5.625
18	12	13	19	56	35	0.479212091816	0.609040663882	0.374958588718	0.27099609375	0.857421875	-0.021484375	-3.3125	-3.5	4.125
18	12	13	19	56	35	0.479155430746	0.608863111044	0.373985391615	0.25341796875	0.7939453125	-0.02197265625	-5.75	1.125	3.125
18	12	13	19	56	35	0.477571042727	0.608988534419	0.373804328433	0.30810546875	0.84716796875	-0.052734375	-0.125	8.25	4.375
18	12	13	19	56	35	0.475295402261	0.608844437852	0.374706366313	0.2900390625	0.89013671875	-0.0830078125	2.5	14.3125	4.875
18	12	13	19	56	35	0.474335301851	0.60801105929	0.376245373905	0.234375	0.93359375	-0.08203125	0.0625	12.75	-0.6875
18	12	13	19	56	35	0.473721348547	0.60715194614	0.378073706081	0.26953125	1.00146484375	-0.05029296875	2.9375	9.8125	-5.375
18	12	13	19	56	35	0.473354835056	0.605869773406	0.378928022699	0.31689453125	1.0400390625	-0.03564453125	-3.625	11.4375	-3.4375
18	12	13	19	56	35	0.474748499997	0.602987970104	0.379469198313	0.30126953125	1.0146484375	0.0078125	-12.875	12.25	-9.4375
18	12	13	19	56	35	0.476162008626	0.599398913563	0.38045350593	0.3046875	0.9150390625	0.03662109375	-13.375	16.9375	-13.6875
18	12	13	19	56	35	0.477382087585	0.595247425921	0.383016570719	0.27294921875	0.8544921875	0.046875	-8.375	21.8125	-19.8125
18	12	13	19	56	35	0.477026729987	0.592270039803	0.386382495306	0.3115234375	0.87841796875	0.03857421875	2.9375	22.25	-19.625
18	12	13	19	56	35	0.477383884851	0.588535406948	0.390647853606	0.18359375	0.78662109375	0.01171875	0.3125	24.1875	-20.9375
18	12	13	19	56	35	0.480323485288	0.582504386848	0.396515613221	0.076171875	0.70947265625	0.00537109375	-8.0	26.4375	-37.125
18	12	13	19	56	35	0.478432758002	0.580186701303	0.40231568104	0.2607421875	0.8740234375	0.02685546875	19.1875	26.1875	-23.6875
18	12	13	19	56	35	0.472690945622	0.582257093271	0.403655116658	0.388671875	1.130859375	-0.0166015625	23.5	17.0625	14.3125
18	12	13	19	56	35	0.472207180034	0.583056228501	0.399142030797	0.3408203125	1.02001953125	-0.02783203125	-18.6875	-3.0	20.0625
18	12	13	19	56	35	0.477076081919	0.578888121919	0.401205359065	0.10888671875	1.00244140625	-0.01611328125	-19.875	2.875	-26.375
18	12	13	19	56	35	0.477872999421	0.575718243778	0.407006917887	0.140625	1.25537109375	-0.0068359375	9.125	18.25	-24.25
18	12	13	19	56	35	0.475008320088	0.574624559922	0.407010470104	0.3212890625	1.30615234375	0.01171875	-2.25	22.25	14.5625
18	12	13	19	56	35	0.478553643681	0.569320131965	0.40689267714	0.1884765625	1.07080078125	-0.01171875	-35.0625	16.625	-12.3125
18	12	13	19	56	35	0.483435359921	0.560223451181	0.415253883023	-0.02783203125	0.91943359375	0.06103515625	-10.1875	34.3125	-52.6875
18	12	13	19	56	35	0.479586148101	0.556373646422	0.425016972028	0.10498046875	0.921875	0.130859375	39.625	45.5	-25.0
18	12	13	19	56	35	0.47273700617	0.555870357029	0.43306249952	0.1875	1.001953125	0.02978515625	45.75	40.5625	-6.0
18	12	13	19	56	35	0.469765515027	0.553085412118	0.441320773603	0.1279296875	0.99365234375	-0.072265625	25.25	35.0	-24.5
18	12	13	19	56	35	0.466404981298	0.548076210846	0.45224375166	0.06787109375	0.87744140625	-0.07275390625	28.4375	50.5625	-35.0625
18	12	13	19	56	36	0.461882096833	0.542819808	0.463102876791	0.11328125	0.8740234375	-0.072265625	29.1875	57.25	-33.125
18	12	13	19	56	36	0.45811446589	0.538261606957	0.471238331335	0.2060546875	0.9404296875	-0.08203125	17.8125	48.0	-29.4375
18	12	13	19	56	36	0.456619890211	0.53151263253	0.478349161821	0.1806640625	0.86669921875	-0.11767578125	-3.0625	49.0625	-36.0
18	12	13	19	56	36	0.456021891753	0.522981604676	0.483733568751	0.14111328125	0.83740234375	-0.05908203125	-18.6875	54.375	-30.375
18	12	13	19	56	36	0.453932653458	0.516922904684	0.487686150481	0.1650390625	0.794921875	-0.0478515625	-11.8125	47.3125	-16.625
18	12	13	19	56	36	0.452052970569	0.511687827745	0.490202188312	0.1962890625	0.78271484375	-0.0576171875	-15.875	40.875	-13.0
18	12	13	19	56	36	0.452900759337	0.504233581251	0.492880543349	0.16650390625	0.78173828125	-0.025390625	-26.4375	39.125	-27.3125
18	12	13	19	56	36	0.451391044703	0.499002270513	0.496438589123	0.111328125	0.81103515625	0.021484375	-5.25	37.875	-15.0625
18	12	13	19	56	36	0.450019672342	0.496590269114	0.49628508827	0.1640625	1.00244140625	0.02978515625	-11.5	20.9375	2.3125
18	12	13	19	56	36	0.451127055204	0.494036312383	0.49324282683	0.1728515625	1.07861328125	0.13037109375	-23.8125	7.875	4.375
18	12	13	19	56	36	0.453456591469	0.490385012231	0.488981121855	0.1220703125	1.18505859375	0.23583984375	-30.75	7.1875	7.75
18	12	13	19	56	36	0.456997962217	0.486784927031	0.483122595292	0.13427734375	1.23583984375	0.28857421875	-38.0625	-0.5	8.75
18	12	13	19	56	36	0.462427931399	0.48153299245	0.478969374034	0.04443359375	1.09765625	0.27392578125	-39.1875	-0.625	-5.875
18	12	13	19	56	36	0.467544487698	0.476211761491	0.47627279863	-0.05712890625	1.06640625	0.3037109375	-29.6875	0.8125	-5.8125
18	12	13	19	56	36	0.470477261514	0.47438366327	0.473284987776	0.013671875	1.05712890625	0.3125	-12.75	-7.9375	4.3125
18	12	13	19	56	36	0.472978512032	0.475175857035	0.469987681332	0.1220703125	0.99462890625	0.27490234375	-4.125	-19.1875	1.5
18	12	13	19	56	36	0.476297753553	0.475199027478	0.468362509677	0.1083984375	1.01611328125	0.28564453125	1.6875	-18.4375	-11.125
18	12	13	19	56	36	0.477868012514	0.476891401427	0.467003214171	0.12744140625	1.05419921875	0.21875	7.4375	-18.5625	-3.0
18	12	13	19	56	36	0.480137024575	0.476962968475	0.465853772127	0.138671875	1.017578125	0.126953125	-6.25	-12.1875	-9.4375
18	12	13	19	56	36	0.481911532579	0.475929603486	0.466712549474	0.07080078125	0.9482421875	0.1220703125	-0.1875	-2.75	-13.6875
18	12	13	19	56	36	0.482642262178	0.474951238397	0.469030370883	0.06298828125	0.92041015625	0.0595703125	4.5	3.1875	-14.875
18	12	13	19	56	36	0.482451213642	0.47439408305	0.47244083927	0.095703125	0.91796875	0.0498046875	12.9375	6.125	-17.6875
18	12	13	19	56	36	0.481467275699	0.474692064289	0.477133581914	0.08544921875	0.88818359375	0.03564453125	24.25	5.75	-19.5
18	12	13	19	56	36	0.479630644499	0.476395670695	0.480363091399	0.123046875	0.9658203125	0.00634765625	21.8125	2.0625	-9.3125
18	12	13	19	56	36	0.478796132156	0.478063654646	0.481848121779	0.15283203125	0.97607421875	0.0009765625	11.6875	-3.625	-7.9375
18	12	13	19	56	36	0.47774590053	0.47927185524	0.483605566616	0.119140625	0.82666015625	-0.021484375	10.8125	0.125	-7.25
18	12	13	19	56	36	0.477991318567	0.480860121016	0.482202964715	0.12109375	0.91259765625	0.09423828125	2.0	-10.5625	2.5
18	12	13	19	56	36	0.477811609891	0.483488216907	0.481290820643	0.14111328125	0.77392578125	0.08154296875	10.5	-13.75	0.9375
18	12	13	19	56	36	0.477772905081	0.484853735155	0.480275612262	0.107421875	0.82568359375	0.08935546875	3.625	-7.8125	2.9375
18	12	13	19	56	36	0.478615035881	0.484413840677	0.478981276184	0.08056640625	0.765625	0.1494140625	-3.125	-2.625	0.5
18	12	13	19	56	36	0.478318727808	0.485643670041	0.477097904102	0.0986328125	0.77490234375	0.13427734375	1.3125	-6.5	9.125
18	12	13	19	56	36	0.479320372561	0.485118848989	0.475536103734	0.09521484375	0.81982421875	0.11083984375	-8.5	-2.9375	0.625
18	12	13	19	56	36	0.480246559827	0.484580254	0.473776537542	0.07275390625	0.81884765625	0.13232421875	-8.3125	-2.5	3.1875
18	12	13	19	56	36	0.48061028518	0.485859521213	0.471881904334	0.0859375	0.87353515625	0.126953125	-0.125	-10.25	7.5
18	12	13	19	56	36	0.480304321326	0.489337875724	0.468951340799	0.12548828125	0.97509765625	0.0927734375	2.375	-19.125	15.375
18	12	13	19	56	36	0.481110250524	0.492097289993	0.465789434376	0.07568359375	0.96240234375	0.0556640625	-4.875	-21.125	13.875
18	12	13	19	56	36	0.481774312371	0.495935168885	0.461753791092	0.06689453125	0.935546875	0.10302734375	-0.9375	-27.125	20.0625
18	12	13	19	56	36	0.482499048822	0.500016724599	0.456130979361	0.16259765625	0.9638671875	0.169921875	-3.375	-30.0625	21.875
18	12	13	19	56	36	0.483132481143	0.503031557435	0.449682500137	0.25	1.10107421875	0.2626953125	-7.6875	-23.875	22.3125
18	12	13	19	56	36	0.482524446886	0.506147085842	0.444068988121	0.27490234375	1.03466796875	0.22314453125	-4.5625	-18.1875	23.125
18	12	13	19	56	36	0.482875433607	0.508084326803	0.440636803844	0.17041015625	0.9384765625	0.1337890625	-5.375	-15.0	13.25
18	12	13	19	56	36	0.483177620639	0.509362966679	0.438986034314	0.10888671875	0.96630859375	0.14697265625	1.4375	-10.4375	9.125
18	12	13	19	56	36	0.481594554913	0.513761897174	0.436364952228	0.158203125	1.0244140625	0.16943359375	14.8125	-19.875	22.25
18	12	13	19	56	36	0.480747205037	0.518591703148	0.43289222678	0.18115234375	1.0185546875	0.0693359375	5.625	-25.8125	21.3125
18	12	13	19	56	36	0.483068600856	0.519570372819	0.429353618704	0.123046875	1.02392578125	0.05419921875	-17.6875	-18.9375	8.4375
18	12	13	19	56	36	0.48380451182	0.521344226022	0.424351370953	0.19091796875	0.95654296875	0.166015625	-12.1875	-17.8125	19.5625
18	12	13	19	56	36	0.483686936898	0.525621935086	0.418434370575	0.30078125	0.94189453125	0.1083984375	-7.0625	-27.5	21.6875
18	12	13	19	56	36	0.484950846799	0.528349217104	0.413535807056	0.3173828125	0.9716796875	0.07275390625	-13.8125	-24.25	8.25
18	12	13	19	56	36	0.485504557112	0.530673449778	0.410304454728	0.23779296875	0.9091796875	0.1005859375	-4.375	-18.5	9.0625
18	12	13	19	56	36	0.484277574875	0.535122447559	0.407308325831	0.24560546875	0.9072265625	0.046875	5.9375	-21.625	16.6875
18	12	13	19	56	37	0.484347488744	0.539282931702	0.404813175217	0.23779296875	0.953125	0.013671875	3.4375	-26.0625	8.4375
18	12	13	19	56	37	0.484143057096	0.543531760393	0.402842180639	0.21533203125	0.8818359375	0.04248046875	9.6875	-25.8125	8.3125
18	12	13	19	56	37	0.48366555966	0.54757240481	0.401447297563	0.2333984375	0.8662109375	0.04443359375	12.25	-22.875	5.375
18	12	13	19	56	37	0.481718114573	0.55270622497	0.399926138708	0.30029296875	0.92431640625	0.04833984375	19.5	-22.5625	10.0625
18	12	13	19	56	37	0.479588654168	0.557414228059	0.39895525565	0.283203125	0.9130859375	0.0517578125	21.6875	-19.125	9.8125
18	12	13	19	56	37	0.476911988909	0.562918515515	0.397680994207	0.314453125	0.91162109375	0.04150390625	24.5625	-21.875	11.9375
18	12	13	19	56	37	0.474383377843	0.567343476203	0.398880001828	0.2890625	0.8935546875	-0.0380859375	26.3125	-14.0	0.3125
18	12	13	19	56	37	0.472614488811	0.568077366314	0.399186201321	0.318359375	0.95361328125	0.04052734375	8.0	4.4375	1.875
18	12	13	19	56	37	0.470248134589	0.567178824845	0.399991695997	0.306640625	0.86376953125	0.0390625	2.5625	18.4375	2.8125
18	12	13	19	56	37	0.467325842555	0.565478919204	0.404454157885	0.1416015625	0.89599609375	-0.05078125	11.125	28.25	-0.875
18	12	13	19	56	37	0.464875684565	0.562782800905	0.411161057147	-0.02392578125	0.85400390625	-0.09033203125	14.25	32.875	-5.5
18	12	13	19	56	37	0.463060870316	0.560483115112	0.416852449695	0.01904296875	0.89013671875	-0.0009765625	16.8125	25.3125	-6.125
18	12	13	19	56	37	0.460524552693	0.558550057216	0.420850469294	0.23193359375	0.8056640625	0.056640625	15.625	25.6875	-10.125
18	12	13	19	56	37	0.458091777951	0.555569801854	0.425741525811	0.29541015625	0.86572265625	0.12548828125	19.4375	30.375	-18.875
18	12	13	19	56	37	0.455151521888	0.552016945683	0.432689974342	0.3466796875	0.943359375	0.09716796875	25.875	37.625	-29.8125
18	12	13	19	56	37	0.453402658657	0.545999835984	0.440584328243	0.32177734375	0.92578125	0.0458984375	13.8125	47.125	-40.3125
18	12	13	19	56	37	0.453761049624	0.539215107933	0.448511728899	0.18994140625	0.9296875	0.00830078125	5.8125	41.1875	-44.125
18	12	13	19	56	37	0.454609915347	0.534081197541	0.45473199105	0.19482421875	0.94775390625	-0.072265625	-0.5	28.875	-39.125
18	12	13	19	56	37	0.455614671444	0.529352951603	0.459338210426	0.19677734375	0.9375	-0.046875	-5.0	24.6875	-32.9375
18	12	13	19	56	37	0.455895415498	0.52627262986	0.461388866749	0.2158203125	1.0458984375	0.01708984375	-5.625	17.4375	-16.125
18	12	13	19	56	37	0.454993080518	0.527508747228	0.459021728669	0.25732421875	1.1484375	0.09814453125	-0.375	-3.875	12.8125
18	12	13	19	56	37	0.456648271608	0.529897559929	0.453779341149	0.2705078125	1.123046875	0.0810546875	-13.5625	-23.875	13.1875
18	12	13	19	56	37	0.461028750666	0.529453645343	0.44979754583	0.15380859375	0.88671875	0.0087890625	-28.75	-20.1875	-2.8125
18	12	13	19	56	37	0.463662149737	0.526777824148	0.450294323145	0.013671875	0.814453125	-0.00048828125	-15.75	2.9375	-8.5625
18	12	13	19	56	37	0.463168208371	0.52725975012	0.451143414347	0.09326171875	0.92578125	-0.015625	3.75	0.25	2.375
18	12	13	19	56	37	0.463040063453	0.529938548761	0.449184264032	0.18212890625	1.029296875	0.03369140625	3.5	-16.0625	10.3125
18	12	13	19	56	37	0.465602701021	0.531341309962	0.444178140447	0.251953125	1.15380859375	0.02783203125	-22.625	-22.1875	8.625
18	12	13	19	56	37	0.468707987826	0.531088449286	0.439226810834	0.224609375	1.0458984375	0.05224609375	-29.9375	-15.375	6.25
18	12	13	19	56	37	0.471217214277	0.529692096567	0.435509692211	0.17578125	1.0009765625	0.0732421875	-27.6875	-5.5625	5.625
18	12	13	19	56	37	0.472085548116	0.531721904531	0.430883357144	0.19873046875	1.06640625	0.10009765625	-11.875	-18.9375	18.9375
18	12	13	19	56	37	0.474571022733	0.533533801892	0.426228868392	0.12255859375	0.95166015625	0.1259765625	-13.0	-26.125	14.4375
18	12	13	19	56	37	0.47641128911	0.535619354508	0.423124030251	0.14794921875	1.0	0.05322265625	-7.8125	-23.375	8.625
18	12	13	19	56	37	0.477986285095	0.535911069229	0.421953669884	0.09765625	0.9072265625	0.080078125	-4.8125	-11.0625	2.5625
18	12	13	19	56	37	0.477819955681	0.539042926497	0.418916499213	0.205078125	1.05322265625	0.06494140625	0.125	-19.625	16.0
18	12	13	19	56	37	0.478116007562	0.542511818615	0.413842273876	0.22119140625	0.9208984375	0.07958984375	-6.9375	-24.875	21.6875
18	12	13	19	56	37	0.479262948894	0.546342671365	0.408521003178	0.2333984375	0.96923828125	0.06005859375	-8.625	-31.8125	18.0
18	12	13	19	56	37	0.479161810331	0.549479568993	0.405792065615	0.18701171875	0.82275390625	0.0400390625	1.3125	-20.25	13.125
18	12	13	19	56	37	0.478907757398	0.551238332534	0.405295374602	0.16357421875	0.8701171875	-0.01025390625	2.5	-9.0	5.1875
18	12	13	19	56	37	0.476530627192	0.553622747359	0.404260579466	0.271484375	0.90576171875	0.06591796875	10.25	-3.5	13.0625
18	12	13	19	56	37	0.47488609097	0.555580102829	0.402920705204	0.224609375	0.78662109375	-0.01953125	0.875	-3.6875	12.5
18	12	13	19	56	37	0.474140818569	0.556846895958	0.403153978713	0.22509765625	0.9033203125	-0.017578125	3.75	-2.9375	1.5625
18	12	13	19	56	37	0.470610811168	0.558690110846	0.404139323054	0.2685546875	0.86279296875	0.01220703125	16.0625	7.0625	9.5625
18	12	13	19	56	37	0.467741476406	0.561314187267	0.402918111152	0.2890625	0.8583984375	0.01904296875	9.375	-2.125	15.75
18	12	13	19	56	37	0.466958793307	0.562914247304	0.402744329181	0.24169921875	0.837890625	-0.05859375	1.875	-4.8125	2.0625
18	12	13	19	56	37	0.46601673104	0.563919918543	0.403637019302	0.23193359375	0.99755859375	-0.02099609375	6.5	-0.3125	1.125
18	12	13	19	56	37	0.463725335113	0.564442302724	0.402501626923	0.3017578125	0.89208984375	0.0439453125	0.375	7.6875	13.125
18	12	13	19	56	37	0.462196924123	0.566758906561	0.402011217944	0.27587890625	0.8076171875	-0.13916015625	0.0	-4.25	5.4375
18	12	13	19	56	37	0.463275194867	0.566062471304	0.403702521587	0.2255859375	0.94140625	0.041015625	3.5625	-0.625	-13.125
18	12	13	19	56	37	0.460403525748	0.566913422663	0.402967529761	0.3291015625	0.90478515625	0.03076171875	4.5	8.75	12.4375
18	12	13	19	56	38	0.458336402098	0.570463712079	0.399617582172	0.396484375	1.064453125	0.03076171875	4.25	-13.5	19.8125
18	12	13	19	56	38	0.462236083697	0.569112537223	0.397902684487	0.13232421875	0.97216796875	0.0341796875	-20.5	-11.5625	-2.8125
18	12	13	19	56	38	0.462975790469	0.568877306153	0.396688155868	0.21533203125	1.04736328125	-0.001953125	-11.0625	-1.625	7.0625
18	12	13	19	56	38	0.465006848706	0.566089986204	0.397251847123	0.21044921875	1.0439453125	0.0224609375	-15.4375	8.25	-8.3125
18	12	13	19	56	38	0.467684866857	0.563150689327	0.396085500004	0.2216796875	0.888671875	0.12841796875	-18.5625	3.6875	-6.3125
18	12	13	19	56	38	0.469333821568	0.562968635235	0.394560257851	0.283203125	1.05810546875	0.19775390625	-0.6875	-10.1875	-1.4375
18	12	13	19	56	38	0.46718225237	0.568932032185	0.388016406888	0.42578125	1.20166015625	0.17041015625	8.6875	-32.3125	36.3125
18	12	13	19	56	38	0.468529450034	0.574674931223	0.377338335084	0.302734375	0.9677734375	0.13623046875	-18.1875	-50.0625	42.875
18	12	13	19	56	38	0.477799602014	0.574360533336	0.373242790792	-0.02783203125	0.83056640625	0.140625	-28.4375	-48.875	-11.8125
18	12	13	19	56	38	0.484015305501	0.573005761418	0.37476090489	0.056640625	0.76708984375	0.08056640625	-6.5	-22.75	-30.9375
18	12	13	19	56	38	0.483687603715	0.572013696922	0.378392157424	0.08251953125	0.9052734375	-0.0576171875	4.6875	11.4375	-5.6875
18	12	13	19	56	38	0.483606362991	0.568998929169	0.381916573676	0.07861328125	0.90478515625	-0.0751953125	-7.8125	23.375	-5.0625
18	12	13	19	56	38	0.476708863179	0.571440253147	0.382404741078	0.4169921875	0.79345703125	0.0888671875	26.75	19.25	20.0625
18	12	13	19	56	38	0.46713766233	0.580244429388	0.381987128036	0.6181640625	0.765625	0.04443359375	56.9375	-9.25	22.1875
18	12	13	19	56	38	0.464510086223	0.582682428789	0.393704343776	0.0615234375	0.96337890625	-0.14892578125	60.0	3.0625	-35.1875
18	12	13	19	56	38	0.45615731792	0.584953242022	0.404272703946	0.20947265625	1.28466796875	-0.28076171875	55.625	34.3125	-3.6875
18	12	13	19	56	38	0.448743992184	0.586260343434	0.404553207317	0.2421875	0.91455078125	-0.16748046875	8.0625	32.25	37.625
18	12	13	19	56	38	0.44820190113	0.58822303162	0.406268807561	0.25732421875	0.81494140625	-0.24609375	3.75	-6.3125	-9.25
18	12	13	19	56	38	0.449687557628	0.585381251208	0.411720181376	0.28173828125	0.974609375	-0.10791015625	3.8125	12.9375	-37.125
18	12	13	19	56	38	0.443320907327	0.586272520292	0.410055053755	0.4658203125	0.994140625	0.05322265625	10.6875	25.0625	28.75
18	12	13	19	56	38	0.440082585417	0.588526531011	0.405291035668	0.4521484375	0.85595703125	-0.01416015625	-6.75	0.625	27.4375
18	12	13	19	56	38	0.444959856763	0.585467070792	0.405224758443	0.1640625	0.90380859375	0.02392578125	-20.4375	-4.4375	-17.25
18	12	13	19	56	38	0.445774446501	0.583297358724	0.404389389028	0.27197265625	0.88916015625	0.04150390625	-13.0	9.5	-0.25
18	12	13	19	56	38	0.44747914573	0.579263005453	0.404019160495	0.1533203125	0.771484375	0.00341796875	-24.3125	17.9375	-0.6875
18	12	13	19	56	38	0.45022205218	0.574680127613	0.403283229224	0.234375	0.9052734375	0.02490234375	-29.5	16.3125	-7.5
18	12	13	19	56	38	0.449315861869	0.570175175346	0.401765657224	0.35400390625	0.91015625	0.130859375	-21.3125	32.0	7.6875
18	12	13	19	56	38	0.448939904079	0.564608309005	0.401451767387	0.30224609375	0.92041015625	0.076171875	-25.8125	37.0625	2.6875
18	12	13	19	56	38	0.452791318923	0.556497499949	0.404386962505	0.13720703125	0.9267578125	0.13525390625	-24.6875	32.3125	-25.4375
18	12	13	19	56	38	0.455533293436	0.548373456818	0.41005931466	0.0263671875	0.83203125	0.111328125	-11.5	38.1875	-28.875
18	12	13	19	56	38	0.455653817884	0.543427453532	0.413781276816	0.130859375	1.02392578125	0.1357421875	-1.125	30.0625	-9.875
18	12	13	19	56	38	0.45124016037	0.54407612465	0.416022309358	0.37109375	1.1005859375	0.0107421875	15.625	19.4375	6.0625
18	12	13	19	56	38	0.450712526131	0.541477629917	0.422329356487	0.13232421875	0.9833984375	0.00634765625	16.1875	20.8125	-21.25
18	12	13	19	56	38	0.449362701784	0.537318644907	0.433065521483	0.037109375	1.11279296875	0.0888671875	38.5	34.0	-32.25
18	12	13	19	56	38	0.442168608394	0.536657427527	0.444243944215	0.26953125	1.2109375	0.0634765625	64.25	41.0	-19.0625
18	12	13	19	56	38	0.439720349319	0.534451884875	0.453881248964	0.169921875	1.12109375	0.0830078125	46.9375	25.4375	-32.5
18	12	13	19	56	38	0.439479391197	0.532746684218	0.461758554779	0.12939453125	1.06494140625	0.09619140625	40.1875	10.5625	-34.5
18	12	13	19	56	38	0.435710197111	0.533680898479	0.468794384115	0.27587890625	1.04443359375	0.0	47.0	12.625	-22.375
18	12	13	19	56	38	0.43398678488	0.534517900871	0.472746504767	0.23486328125	1.0	-0.00634765625	28.5625	2.9375	-15.375
18	12	13	19	56	38	0.434167290061	0.536956228127	0.470668350016	0.279296875	0.947265625	0.0283203125	4.0	-16.1875	3.3125
18	12	13	19	56	38	0.43562410464	0.540974700775	0.464983106228	0.2998046875	0.935546875	0.09375	-4.0625	-33.3125	14.8125
18	12	13	19	56	38	0.435019814521	0.546658826834	0.459435126126	0.33251953125	0.85546875	0.04052734375	3.9375	-32.625	22.0
18	12	13	19	56	38	0.434102978824	0.553066238909	0.455527352498	0.2333984375	0.85888671875	-0.09228515625	8.0625	-34.1875	22.625
18	12	13	19	56	38	0.435205124781	0.557831645916	0.449793347057	0.15673828125	0.97900390625	-0.06396484375	-9.4375	-34.6875	28.9375
18	12	13	19	56	38	0.436166891267	0.562268318269	0.44361334533	0.18310546875	0.89794921875	-0.04736328125	-12.3125	-32.125	28.875
18	12	13	19	56	38	0.436682320693	0.565904640082	0.438940811868	0.18701171875	0.923828125	-0.0654296875	-8.9375	-25.0	24.0
18	12	13	19	56	38	0.436670115944	0.568208290372	0.434533765083	0.16455078125	0.95263671875	-0.025390625	-11.3125	-14.25	27.8125
18	12	13	19	56	38	0.436664533322	0.5689945177	0.430194524861	0.13232421875	0.91259765625	-0.02685546875	-18.75	-4.375	29.75
18	12	13	19	56	38	0.435516310857	0.568704340329	0.427581185361	0.1083984375	0.8125	0.0185546875	-11.0625	7.3125	26.5625
18	12	13	19	56	38	0.432830289829	0.568703964228	0.427153626883	0.1767578125	0.654296875	0.01171875	2.625	12.875	15.9375
18	12	13	19	56	38	0.429712913536	0.568881300307	0.43123888269	0.142578125	0.599609375	-0.0078125	26.125	14.125	-4.0625
18	12	13	19	56	39	0.424960178368	0.571822314127	0.437534409443	0.15576171875	0.73828125	-0.00244140625	55.125	3.6875	-6.4375
18	12	13	19	56	39	0.422627835399	0.574978944173	0.441000304846	0.2470703125	0.97802734375	-0.03955078125	37.5625	-10.1875	-5.9375
18	12	13	19	56	39	0.423493413524	0.576580972059	0.440767647601	0.30810546875	0.95654296875	-0.06005859375	5.375	-15.0	-7.125
18	12	13	19	56	39	0.425007933533	0.576260218366	0.440572635967	0.27734375	0.85693359375	-0.0576171875	-5.1875	-5.625	-10.375
18	12	13	19	56	39	0.425692576958	0.576827480966	0.440647363502	0.2587890625	0.9248046875	-0.05712890625	1.875	-7.0	-5.5
18	12	13	19	56	39	0.426430207303	0.579092954006	0.439492913338	0.29248046875	1.0380859375	-0.009765625	8.25	-19.75	0.4375
18	12	13	19	56	39	0.428310790033	0.582068076636	0.43710040864	0.3251953125	1.1025390625	-0.03271484375	3.0625	-29.875	0.0
18	12	13	19	56	39	0.430273614819	0.584217444663	0.433997077793	0.36328125	1.0888671875	-0.103515625	-9.8125	-23.3125	0.8125
18	12	13	19	56	39	0.432391035659	0.584558010799	0.430926130964	0.263671875	1.0078125	-0.1328125	-22.0	-11.3125	5.375
18	12	13	19	56	39	0.433323105303	0.584824436104	0.426852863133	0.21728515625	0.9462890625	-0.08740234375	-23.125	-4.75	19.25
