18	12	13	15	57	12	0.496061207694	0.428430369977	0.437708246632	-0.73046875	-0.0537109375	0.54296875	46.0625	32.9375	-7.0
18	12	13	15	57	12	0.49286892926	0.432015638551	0.434457094547	-0.7255859375	-0.08642578125	0.55322265625	32.6875	30.4375	-0.5625
18	12	13	15	57	12	0.49078250118	0.434813398632	0.431517508188	-0.74462890625	-0.1103515625	0.53369140625	25.625	25.3125	3.5625
18	12	13	15	57	12	0.489646936205	0.43660490335	0.428486847688	-0.77392578125	-0.0908203125	0.55029296875	20.4375	19.875	3.625
18	12	13	15	57	12	0.489918487891	0.43773457022	0.426016076427	-0.83935546875	-0.04345703125	0.5771484375	9.75	18.6875	4.9375
18	12	13	15	57	12	0.491421844599	0.438806563262	0.42488976031	-0.95703125	0.0205078125	0.60498046875	-4.1875	23.9375	6.125
18	12	13	15	57	12	0.49323764211	0.439830522095	0.425670005702	-1.0478515625	0.0244140625	0.603515625	-15.75	30.5625	5.9375
18	12	13	15	57	12	0.494522195842	0.440626478867	0.427503512673	-1.08447265625	-0.03466796875	0.56396484375	-17.4375	31.875	5.5625
18	12	13	15	57	12	0.49517952593	0.442078800235	0.428773101153	-1.0947265625	-0.080078125	0.509765625	-9.9375	29.3125	8.25
18	12	13	15	57	12	0.496109639745	0.444411206568	0.429090891659	-1.11865234375	-0.04150390625	0.44384765625	-5.375	25.3125	11.6875
18	12	13	15	57	12	0.498787469919	0.446113266965	0.42951143243	-1.1083984375	0.0087890625	0.36474609375	-14.6875	16.625	16.625
18	12	13	15	57	12	0.504643408414	0.445072536787	0.431217426275	-1.06005859375	0.04833984375	0.30712890625	-39.1875	4.125	19.875
18	12	13	15	57	12	0.514352407403	0.43982715649	0.435249438375	-1.08544921875	0.080078125	0.29541015625	-74.8125	-9.625	21.1875
18	12	13	15	57	12	0.52613851753	0.42988324582	0.442517894674	-1.16162109375	0.08740234375	0.3046875	-105.625	-20.125	19.0625
18	12	13	15	57	12	0.539562305858	0.416756948462	0.451242548327	-1.25830078125	0.06884765625	0.30322265625	-126.625	-28.625	16.0
18	12	13	15	57	12	0.553607166698	0.401807715367	0.459976142033	-1.2939453125	0.009765625	0.29052734375	-134.0	-36.4375	14.8125
18	12	13	15	57	12	0.567168460915	0.387044254268	0.466638278486	-1.2275390625	-0.0869140625	0.26953125	-122.5625	-43.8125	16.9375
18	12	13	15	57	12	0.579055089356	0.373788696871	0.470531852414	-1.10546875	-0.16162109375	0.2314453125	-97.625	-53.125	19.25
18	12	13	15	57	12	0.58980810411	0.362137170825	0.470479236933	-0.9892578125	-0.1728515625	0.19873046875	-68.8125	-65.1875	20.125
18	12	13	15	57	12	0.600344505231	0.351503050592	0.46728726434	-0.90234375	-0.1240234375	0.1845703125	-51.125	-76.9375	19.6875
18	12	13	15	57	12	0.611914864956	0.340291807694	0.462796858463	-0.865234375	-0.02587890625	0.1962890625	-53.5	-85.125	18.3125
18	12	13	15	57	12	0.624326978247	0.327208615738	0.459471452951	-0.8935546875	0.0546875	0.228515625	-71.0625	-87.3125	12.6875
18	12	13	15	57	12	0.636916354007	0.311469492525	0.458689640667	-0.92822265625	0.056640625	0.27294921875	-93.3125	-83.4375	6.125
18	12	13	15	57	12	0.648525753783	0.293164159569	0.459797129717	-0.94287109375	-0.001953125	0.3115234375	-103.4375	-76.1875	0.75
18	12	13	15	57	12	0.658444659427	0.276488163441	0.46166809454	-0.92724609375	-0.07373046875	0.318359375	-97.8125	-69.1875	-1.9375
18	12	13	15	57	12	0.666332921882	0.261967656015	0.462410755352	-0.91259765625	-0.1201171875	0.31396484375	-77.3125	-64.75	-4.875
18	12	13	15	57	12	0.672008584924	0.251102935366	0.461189542932	-0.8955078125	-0.13134765625	0.310546875	-47.5	-60.125	-7.6875
18	12	13	15	57	12	0.675729070717	0.244449004446	0.458074851028	-0.86572265625	-0.0908203125	0.2900390625	-18.8125	-53.6875	-9.6875
18	12	13	15	57	12	0.677869708115	0.240849438882	0.454354592762	-0.8603515625	-0.052734375	0.26513671875	-1.4375	-46.0	-12.125
18	12	13	15	57	13	0.678540397642	0.239262243299	0.451424375368	-0.88916015625	-0.0185546875	0.2626953125	5.6875	-35.4375	-15.625
18	12	13	15	57	13	0.677759389155	0.238717306465	0.449723629259	-0.9345703125	-0.04248046875	0.267578125	9.5	-25.125	-19.375
18	12	13	15	57	13	0.675730078919	0.239200269107	0.449286343684	-0.98046875	-0.07763671875	0.29150390625	12.4375	-14.5	-21.0
18	12	13	15	57	13	0.672423847976	0.24145490992	0.450072928654	-1.0126953125	-0.11083984375	0.302734375	17.5	-0.4375	-19.8125
18	12	13	15	57	13	0.667871398572	0.245248334808	0.451859985709	-1.01220703125	-0.12744140625	0.2939453125	22.9375	11.3125	-20.0
18	12	13	15	57	13	0.662354914679	0.249695351636	0.455079086237	-1.0703125	-0.13720703125	0.2822265625	20.9375	19.875	-21.6875
18	12	13	15	57	13	0.656177410024	0.254695222029	0.460441110708	-1.16796875	-0.16455078125	0.3115234375	14.5625	33.3125	-19.5625
18	12	13	15	57	13	0.649291763611	0.262206938943	0.467284991747	-1.15380859375	-0.2080078125	0.28759765625	17.0625	52.3125	-7.5
18	12	13	15	57	13	0.641812085421	0.271495972987	0.474690688381	-1.11279296875	-0.28564453125	0.2001953125	23.0625	60.375	3.6875
18	12	13	15	57	13	0.635279739413	0.280101722153	0.481464890901	-1.04150390625	-0.3173828125	0.1416015625	20.625	54.6875	11.125
18	12	13	15	57	13	0.630748158138	0.286992243039	0.487862398683	-0.982421875	-0.22900390625	0.12109375	5.75	46.625	13.625
18	12	13	15	57	13	0.628204089361	0.290602377521	0.496178686593	-0.9970703125	-0.09619140625	0.1240234375	-25.9375	43.25	8.4375
18	12	13	15	57	13	0.626676176907	0.29023524118	0.507469147249	-1.029296875	-0.0595703125	0.1298828125	-57.9375	44.375	-0.1875
18	12	13	15	57	13	0.624858549206	0.2873116334	0.520115238623	-1.02783203125	-0.14501953125	0.1484375	-69.375	45.3125	-5.375
18	12	13	15	57	13	0.622085388845	0.285163160978	0.531079765339	-1.0	-0.25927734375	0.19921875	-52.875	46.4375	-3.4375
18	12	13	15	57	13	0.617202769571	0.287482698248	0.538282360052	-0.958984375	-0.3154296875	0.2333984375	-10.5625	50.5	1.0625
18	12	13	15	57	13	0.609580831579	0.295787394596	0.54115787051	-0.88623046875	-0.30029296875	0.23095703125	40.4375	55.4375	3.1875
18	12	13	15	57	13	0.599934190541	0.308115555382	0.540545039316	-0.810546875	-0.2412109375	0.21044921875	77.1875	55.9375	0.8125
18	12	13	15	57	13	0.589804583914	0.321300975859	0.538411076757	-0.7373046875	-0.1796875	0.18603515625	88.8125	52.875	-1.8125
18	12	13	15	57	13	0.580349860607	0.33338987575	0.53628038234	-0.67724609375	-0.12158203125	0.18359375	80.3125	50.3125	-4.0
18	12	13	15	57	13	0.572025190126	0.343202906965	0.535648001339	-0.6494140625	-0.08740234375	0.19921875	60.125	50.375	-6.25
18	12	13	15	57	13	0.564711220779	0.350716674729	0.536817465062	-0.67236328125	-0.095703125	0.24365234375	39.1875	53.25	-7.625
18	12	13	15	57	13	0.558068354696	0.356887856274	0.539268720742	-0.72900390625	-0.13525390625	0.2900390625	25.875	57.0625	-6.25
18	12	13	15	57	13	0.551565560424	0.363153157521	0.541800097364	-0.78466796875	-0.18408203125	0.3291015625	23.75	61.375	-1.625
18	12	13	15	57	13	0.5443950063	0.370803864029	0.543662554223	-0.84619140625	-0.212890625	0.35302734375	32.25	66.875	2.875
18	12	13	15	57	13	0.536084000541	0.380196657107	0.544507044156	-0.89990234375	-0.23583984375	0.3369140625	45.5	70.0625	6.125
18	12	13	15	57	13	0.527118656336	0.390822227481	0.544209117635	-0.9306640625	-0.23974609375	0.3056640625	56.5	69.6875	8.375
18	12	13	15	57	13	0.518390392785	0.401259677637	0.543293640195	-0.9462890625	-0.228515625	0.27587890625	57.8125	65.25	8.8125
18	12	13	15	57	13	0.510521929819	0.410541666663	0.542505847948	-0.951171875	-0.23876953125	0.26953125	50.4375	60.3125	9.6875
18	12	13	15	57	13	0.504226144111	0.41822509859	0.541763860929	-0.97509765625	-0.26025390625	0.28515625	40.3125	54.0625	12.3125
18	12	13	15	57	13	0.499694859587	0.424682647247	0.540893592972	-1.0888671875	-0.2529296875	0.3154296875	29.875	49.0	14.75
18	12	13	15	57	13	0.496105159597	0.430673967288	0.53968526343	-1.216796875	-0.2177734375	0.31298828125	26.25	44.0625	14.4375
18	12	13	15	57	13	0.492554154068	0.436218654166	0.537598139904	-1.267578125	-0.2431640625	0.27490234375	31.8125	35.0	13.8125
18	12	13	15	57	13	0.490124795535	0.441173352694	0.534132264724	-1.455078125	-0.24267578125	0.32177734375	33.3125	27.125	15.375
18	12	13	15	57	13	0.486959235345	0.447345730239	0.529746703881	-1.3603515625	-0.1650390625	0.2490234375	43.125	24.5	13.8125
18	12	13	15	57	13	0.483533117986	0.452221266241	0.524488775922	-1.1650390625	-0.19091796875	0.16259765625	50.0	7.6875	9.25
18	12	13	15	57	13	0.483035114682	0.453677028991	0.519107107704	-1.05224609375	-0.18505859375	0.14892578125	34.625	-13.8125	8.5
18	12	13	15	57	13	0.486826012816	0.452828759915	0.514048229681	-1.080078125	-0.06787109375	0.1923828125	8.625	-24.75	12.1875
18	12	13	15	57	13	0.494152153522	0.449290267054	0.511181359405	-1.14501953125	0.04443359375	0.22412109375	-24.75	-28.1875	10.3125
18	12	13	15	57	13	0.504341855032	0.441718746807	0.511116869665	-1.236328125	0.0556640625	0.2744140625	-58.9375	-34.125	5.0
18	12	13	15	57	13	0.515700585073	0.430920361062	0.512831851791	-1.34814453125	0.0166015625	0.28564453125	-78.3125	-42.1875	-1.4375
18	12	13	15	57	13	0.526449682302	0.41902342829	0.514486304014	-1.40380859375	-0.04833984375	0.24169921875	-75.625	-51.8125	-5.6875
18	12	13	15	57	13	0.535659611362	0.407360100983	0.514479815881	-1.3525390625	-0.14013671875	0.15234375	-57.5625	-64.9375	-6.5625
18	12	13	15	57	13	0.543420032295	0.396990215663	0.510947892884	-1.2099609375	-0.216796875	0.0615234375	-27.5625	-82.9375	-4.1875
18	12	13	15	57	13	0.552029541363	0.38747053611	0.501673020839	-1.04931640625	-0.21533203125	0.0029296875	0.25	-102.4375	-0.25
18	12	13	15	57	13	0.561487178063	0.377763250901	0.489401477738	-0.923828125	-0.15185546875	-0.01611328125	10.9375	-118.625	3.1875
18	12	13	15	57	13	0.572634335021	0.366334606565	0.476320438127	-0.83935546875	-0.05224609375	0.02197265625	1.875	-129.5625	5.875
18	12	13	15	57	13	0.585469501719	0.351940903556	0.46443259368	-0.8125	0.013671875	0.06201171875	-20.375	-136.0625	5.5625
18	12	13	15	57	13	0.599742215437	0.334051409026	0.454659043638	-0.80224609375	0.04736328125	0.1171875	-47.3125	-139.4375	3.0
18	12	13	15	57	13	0.614568407423	0.313235183921	0.447025426156	-0.798828125	0.025390625	0.16259765625	-70.4375	-139.6875	-0.8125
18	12	13	15	57	14	0.628850202364	0.290651719272	0.440738358854	-0.77978515625	-0.0224609375	0.21337890625	-81.5	-137.375	-5.9375
18	12	13	15	57	14	0.641554533956	0.268377441329	0.434762909844	-0.7509765625	-0.06201171875	0.2568359375	-78.8125	-131.3125	-10.75
18	12	13	15	57	14	0.652291065501	0.247866942734	0.42859435407	-0.73095703125	-0.08203125	0.30126953125	-67.1875	-121.5625	-13.9375
18	12	13	15	57	14	0.660651570088	0.230349133916	0.422489852933	-0.71533203125	-0.083984375	0.34375	-52.1875	-105.9375	-16.3125
18	12	13	15	57	14	0.666395513504	0.217411688872	0.417366964768	-0.732421875	-0.0810546875	0.37353515625	-36.4375	-86.3125	-19.25
18	12	13	15	57	14	0.66989614418	0.208079813714	0.41359601576	-0.7802734375	-0.056640625	0.40966796875	-26.0625	-64.625	-21.8125
18	12	13	15	57	14	0.670872257007	0.202342055498	0.412802208547	-0.880859375	-0.037109375	0.443359375	-22.125	-37.375	-25.8125
18	12	13	15	57	14	0.668641911477	0.201111373648	0.415589481994	-1.01953125	-0.03857421875	0.43017578125	-14.1875	-6.5625	-30.875
18	12	13	15	57	14	0.663395078557	0.203797604867	0.421023024371	-1.09423828125	-0.11279296875	0.376953125	-0.6875	18.8125	-32.6875
18	12	13	15	57	14	0.656248711635	0.209533280045	0.427916640372	-1.16162109375	-0.1669921875	0.35107421875	10.25	36.4375	-31.1875
18	12	13	15	57	14	0.647123452167	0.21882074854	0.437031118422	-1.2939453125	-0.185546875	0.35546875	16.3125	60.4375	-29.0
18	12	13	15	57	14	0.636250746294	0.234077284348	0.446547434755	-1.2802734375	-0.23681640625	0.30322265625	38.4375	88.8125	-12.5
18	12	13	15	57	14	0.625633827653	0.252756066372	0.454790014619	-1.10498046875	-0.30712890625	0.19677734375	55.0	99.375	12.8125
18	12	13	15	57	14	0.616956565791	0.269170800865	0.462534314955	-0.96533203125	-0.35400390625	0.1396484375	43.5	91.0	25.625
18	12	13	15	57	14	0.609321613319	0.281619745954	0.470342818015	-0.9912109375	-0.35888671875	0.13623046875	27.3125	76.1875	19.4375
18	12	13	15	57	14	0.601215086045	0.292794798757	0.477370882026	-1.15234375	-0.2255859375	0.1611328125	25.125	67.5625	0.8125
18	12	13	15	57	14	0.593524801761	0.30292714841	0.485183941711	-1.19140625	-0.11474609375	0.12060546875	12.625	66.25	-6.375
18	12	13	15	57	14	0.586869241952	0.310128197437	0.4944594622	-1.13916015625	-0.17041015625	0.1005859375	-5.625	63.1875	-4.625
18	12	13	15	57	14	0.580521614696	0.315926808713	0.502699612936	-1.01708984375	-0.29443359375	0.13623046875	-2.5625	59.1875	0.375
18	12	13	15	57	14	0.572695517653	0.323854035668	0.506899315156	-0.841796875	-0.38232421875	0.15087890625	31.8125	55.6875	4.75
18	12	13	15	57	14	0.563020756475	0.33504129795	0.506193748205	-0.72265625	-0.34814453125	0.1669921875	72.5	51.875	3.5
18	12	13	15	57	14	0.552867664027	0.34784641392	0.502573674718	-0.6708984375	-0.2177734375	0.193359375	89.5625	49.1875	-0.6875
18	12	13	15	57	14	0.544267976235	0.359386547501	0.499405694914	-0.65673828125	-0.07666015625	0.2216796875	74.1875	48.0625	-4.0
18	12	13	15	57	14	0.538111115115	0.367204681095	0.499474053424	-0.65625	-0.01904296875	0.26416015625	35.875	48.75	-7.125
18	12	13	15	57	14	0.533889159116	0.370981857677	0.503370743709	-0.671875	-0.0615234375	0.3232421875	-0.6875	52.0	-9.1875
18	12	13	15	57	14	0.530402992594	0.373052139325	0.509284530518	-0.7099609375	-0.14111328125	0.375	-17.9375	57.1875	-7.125
18	12	13	15	57	14	0.526625622237	0.375498473343	0.5151507014	-0.74951171875	-0.2158203125	0.388671875	-15.8125	60.5625	-2.5
18	12	13	15	57	14	0.521980728055	0.379400398222	0.519600320151	-0.783203125	-0.26025390625	0.39697265625	-1.3125	62.25	1.3125
18	12	13	15	57	14	0.516264500937	0.38503150531	0.522124206788	-0.81298828125	-0.2861328125	0.390625	16.375	62.375	4.6875
18	12	13	15	57	14	0.510016845878	0.391668034945	0.522895442633	-0.81298828125	-0.3076171875	0.3583984375	30.875	57.375	7.375
18	12	13	15	57	14	0.503797136278	0.398447747228	0.522291264251	-0.82861328125	-0.2861328125	0.34765625	38.1875	50.8125	6.4375
18	12	13	15	57	14	0.498547152261	0.4047948964	0.521069666853	-0.8779296875	-0.24755859375	0.3564453125	35.625	46.3125	6.8125
18	12	13	15	57	14	0.494747773301	0.410397733491	0.520260303432	-0.9677734375	-0.20361328125	0.37939453125	24.5	44.75	8.125
18	12	13	15	57	14	0.492629751744	0.414990668084	0.520645741838	-1.08642578125	-0.171875	0.404296875	7.375	45.8125	10.0
18	12	13	15	57	14	0.49178134192	0.418474975822	0.522056077627	-1.18896484375	-0.1708984375	0.3994140625	-5.5	44.0625	10.5625
18	12	13	15	57	14	0.490980466431	0.420910156205	0.523329999898	-1.193359375	-0.2431640625	0.32568359375	-4.625	33.8125	11.0625
18	12	13	15	57	14	0.490545999811	0.422490905897	0.522406770235	-1.25146484375	-0.35888671875	0.3291015625	7.0625	17.875	15.625
18	12	13	15	57	14	0.490928100712	0.425556473724	0.518028943272	-1.44580078125	-0.236328125	0.3544921875	23.75	7.1875	17.375
18	12	13	15	57	14	0.490108581902	0.430477687192	0.511775897789	-1.33154296875	-0.09375	0.21484375	41.9375	-0.9375	11.6875
18	12	13	15	57	14	0.49066668525	0.432438545217	0.505864596013	-1.1923828125	-0.12158203125	0.1484375	32.625	-19.625	8.9375
18	12	13	15	57	14	0.494936747227	0.430544310635	0.500368905385	-1.19580078125	-0.12646484375	0.18701171875	8.6875	-38.25	11.625
18	12	13	15	57	14	0.502021791471	0.427130516318	0.495307822223	-1.30859375	-0.01025390625	0.2490234375	-10.8125	-43.6875	11.5
18	12	13	15	57	14	0.510990528409	0.421695360819	0.49274086668	-1.39697265625	0.1064453125	0.26611328125	-37.5	-43.875	5.0
18	12	13	15	57	14	0.521924412931	0.412607768848	0.493420296356	-1.43408203125	0.10302734375	0.2529296875	-69.5	-48.8125	-0.25
18	12	13	15	57	14	0.533890237158	0.399853086043	0.496352510411	-1.37744140625	-0.01708984375	0.21533203125	-90.625	-59.0625	-1.625
18	12	13	15	57	14	0.545922552867	0.385515076466	0.498679255023	-1.2177734375	-0.15380859375	0.1591796875	-88.625	-70.875	2.6875
18	12	13	15	57	14	0.557615549567	0.371336799865	0.498350586933	-1.02099609375	-0.2353515625	0.109375	-71.3125	-84.625	8.875
18	12	13	15	57	14	0.569413528042	0.358042636456	0.494093955354	-0.8544921875	-0.21484375	0.0927734375	-49.6875	-99.1875	12.6875
18	12	13	15	57	14	0.582294257679	0.344920843831	0.486099734608	-0.76708984375	-0.134765625	0.09423828125	-37.875	-110.6875	13.875
18	12	13	15	57	14	0.595836584519	0.330511688708	0.477120936405	-0.7333984375	-0.048828125	0.09912109375	-40.3125	-120.0625	12.25
18	12	13	15	57	15	0.610434530085	0.313304713821	0.469133066517	-0.72607421875	0.0166015625	0.11767578125	-59.0	-126.5625	9.1875
18	12	13	15	57	15	0.625633649343	0.292735510463	0.463152012802	-0.72412109375	0.04248046875	0.1455078125	-82.625	-128.875	3.75
18	12	13	15	57	15	0.640268128321	0.269901397849	0.458991070064	-0.7548828125	0.01611328125	0.1923828125	-98.1875	-126.3125	-3.5625
18	12	13	15	57	15	0.65320864137	0.246708029193	0.455634695181	-0.78076171875	-0.04248046875	0.23486328125	-98.9375	-120.6875	-11.0
18	12	13	15	57	15	0.663908684671	0.225351738881	0.451863196894	-0.78955078125	-0.08935546875	0.27197265625	-84.4375	-111.5625	-15.9375
18	12	13	15	57	15	0.672073857495	0.207768541541	0.446787815535	-0.783203125	-0.1240234375	0.30419921875	-58.8125	-100.25	-18.625
18	12	13	15	57	15	0.677587514373	0.195811255392	0.441002593581	-0.78564453125	-0.13134765625	0.32421875	-28.5	-87.875	-20.0
18	12	13	15	57	15	0.681058748372	0.188545480706	0.434466407144	-0.81396484375	-0.10693359375	0.3447265625	-4.0	-72.9375	-20.25
18	12	13	15	57	15	0.682584740667	0.185249457921	0.428728893718	-0.8583984375	-0.06640625	0.35986328125	9.8125	-54.875	-21.5625
18	12	13	15	57	15	0.682219308666	0.184578257977	0.425494390329	-0.94140625	-0.04345703125	0.37060546875	11.5625	-34.125	-24.5
18	12	13	15	57	15	0.679806236317	0.185973209019	0.426023301265	-1.0361328125	-0.0458984375	0.38134765625	6.625	-10.0625	-27.375
18	12	13	15	57	15	0.675418710107	0.18927104826	0.430300190336	-1.1015625	-0.1123046875	0.376953125	3.9375	15.25	-26.25
18	12	13	15	57	15	0.669458785394	0.195014662594	0.43721127642	-1.0869140625	-0.19189453125	0.369140625	7.0	39.5625	-19.125
18	12	13	15	57	15	0.66248571819	0.203128106701	0.445502419115	-1.0693359375	-0.25390625	0.36328125	12.375	58.75	-10.8125
18	12	13	15	57	15	0.654017023685	0.213326131384	0.45552300959	-1.16943359375	-0.2705078125	0.384765625	14.125	76.9375	-9.6875
18	12	13	15	57	15	0.644776670882	0.226257773472	0.465027778819	-1.18896484375	-0.27001953125	0.375	23.75	100.0625	-0.5
18	12	13	15	57	15	0.635154700318	0.242806592145	0.474443348604	-1.0732421875	-0.2880859375	0.28369140625	34.1875	114.75	15.25
18	12	13	15	57	15	0.626239392454	0.258613675032	0.484145308085	-0.99853515625	-0.35546875	0.203125	25.9375	114.125	22.0625
18	12	13	15	57	15	0.619041186093	0.271555337895	0.4939145413	-1.01171875	-0.388671875	0.19677734375	9.0625	102.75	25.625
18	12	13	15	57	15	0.611831980575	0.282783077215	0.505261884996	-1.0537109375	-0.30419921875	0.19140625	-2.5	96.25	24.625
18	12	13	15	57	15	0.605253397511	0.292067114471	0.517114439665	-1.06396484375	-0.17578125	0.11572265625	-17.0625	89.125	15.3125
18	12	13	15	57	15	0.599807403473	0.297553789756	0.529859374128	-1.060546875	-0.15673828125	0.0908203125	-37.4375	79.5	7.3125
18	12	13	15	57	15	0.595373755187	0.299945318125	0.542147805369	-0.97509765625	-0.25537109375	0.099609375	-45.3125	69.0625	7.8125
18	12	13	15	57	15	0.590468720733	0.302497723791	0.551527326912	-0.85595703125	-0.33447265625	0.11669921875	-25.3125	60.3125	7.9375
18	12	13	15	57	15	0.583874886709	0.308173144783	0.556225365103	-0.76220703125	-0.333984375	0.1669921875	16.3125	55.4375	5.1875
18	12	13	15	57	15	0.5756952671	0.317206139008	0.556896057784	-0.71875	-0.265625	0.20703125	52.875	54.1875	1.625
18	12	13	15	57	15	0.566901727505	0.327457770033	0.555793188055	-0.6982421875	-0.18115234375	0.2451171875	66.5	54.1875	-3.3125
18	12	13	15	57	15	0.558443861675	0.336995142672	0.554903612033	-0.71728515625	-0.12353515625	0.2998046875	59.5625	56.8125	-7.1875
18	12	13	15	57	15	0.55073790145	0.344920744885	0.555071536716	-0.74462890625	-0.12890625	0.35009765625	45.1875	59.125	-8.3125
18	12	13	15	57	15	0.543587531792	0.35150691619	0.556222005077	-0.775390625	-0.1826171875	0.3857421875	33.9375	61.1875	-7.0625
18	12	13	15	57	15	0.536398976201	0.357619663355	0.557456969691	-0.8056640625	-0.24658203125	0.39794921875	32.5625	61.25	-4.9375
18	12	13	15	57	15	0.529183242181	0.363897403677	0.558236439791	-0.8232421875	-0.28466796875	0.39453125	35.5	60.0625	-1.8125
18	12	13	15	57	15	0.522349950208	0.370308150025	0.558727675182	-0.82763671875	-0.2900390625	0.36669921875	35.0	58.125	1.5625
18	12	13	15	57	15	0.516543299268	0.376039615596	0.559268137917	-0.84423828125	-0.298828125	0.337890625	28.375	52.9375	4.875
18	12	13	15	57	15	0.512331336518	0.380250682214	0.56012207234	-0.85400390625	-0.30126953125	0.30517578125	17.1875	44.125	6.8125
18	12	13	15	57	15	0.510084936673	0.382639998564	0.561050704546	-0.890625	-0.2822265625	0.3017578125	4.4375	34.375	7.3125
18	12	13	15	57	15	0.510080868137	0.383369382884	0.562450065799	-0.96240234375	-0.26953125	0.3095703125	-11.375	26.9375	10.125
18	12	13	15	57	15	0.51180146948	0.382889757668	0.563988739177	-1.05908203125	-0.25830078125	0.3251953125	-22.9375	21.25	12.0
18	12	13	15	57	15	0.514540963937	0.382029880579	0.565018470126	-1.18505859375	-0.23779296875	0.3212890625	-25.0625	15.1875	12.3125
18	12	13	15	57	15	0.517355919453	0.381180712244	0.565087435381	-1.2216796875	-0.2548828125	0.2763671875	-18.6875	6.25	13.375
18	12	13	15	57	15	0.520212697649	0.380134304934	0.563121242345	-1.2138671875	-0.333984375	0.25146484375	-5.0	-7.1875	16.3125
18	12	13	15	57	15	0.523631167522	0.380073584352	0.558116726404	-1.37744140625	-0.30322265625	0.291015625	11.6875	-19.125	17.9375
18	12	13	15	57	15	0.526724677501	0.382256854599	0.550894199204	-1.357421875	-0.16552734375	0.23095703125	29.125	-25.125	17.875
18	12	13	15	57	15	0.530218337905	0.383793358898	0.543035864204	-1.318359375	-0.12744140625	0.162109375	31.0	-37.3125	15.3125
18	12	13	15	57	15	0.535858670995	0.382407401046	0.535736593613	-1.23291015625	-0.12548828125	0.13916015625	13.75	-52.25	15.3125
18	12	13	15	57	15	0.544079899803	0.378060455394	0.529309052175	-1.23046875	-0.09033203125	0.1640625	-9.0	-62.875	15.0
18	12	13	15	57	15	0.554705309884	0.370800479484	0.52498023441	-1.25146484375	0.00146484375	0.19287109375	-39.25	-66.4375	11.875
18	12	13	15	57	15	0.567100497775	0.360549202493	0.52358067699	-1.25927734375	0.0595703125	0.1923828125	-71.4375	-67.0	7.8125
18	12	13	15	57	15	0.580519567681	0.346321945854	0.524976217182	-1.2412109375	0.0107421875	0.17919921875	-99.625	-71.0625	2.75
18	12	13	15	57	15	0.593884799454	0.328498251866	0.526744688519	-1.18115234375	-0.1044921875	0.17333984375	-107.0625	-78.3125	-1.0
18	12	13	15	57	16	0.605873982186	0.311665580601	0.52725563753	-1.064453125	-0.19921875	0.13525390625	-91.625	-85.6875	-1.0
18	12	13	15	57	16	0.616882951592	0.29663116105	0.524536666269	-0.94189453125	-0.23876953125	0.10791015625	-65.125	-95.0	1.5625
18	12	13	15	57	16	0.628613518496	0.283391840604	0.517161116829	-0.84765625	-0.20849609375	0.0947265625	-42.125	-103.875	5.0625
18	12	13	15	57	16	0.640406910574	0.270824005167	0.507955233492	-0.7880859375	-0.13134765625	0.095703125	-33.125	-110.125	6.75
18	12	13	15	57	16	0.652549002873	0.257027766448	0.498796225936	-0.76123046875	-0.05322265625	0.11669921875	-40.625	-113.4375	4.9375
18	12	13	15	57	16	0.664851544689	0.240721058685	0.491146642808	-0.76513671875	-0.00146484375	0.1416015625	-58.75	-113.75	0.25
18	12	13	15	57	16	0.676693169976	0.221983679914	0.485471044826	-0.79931640625	0.00244140625	0.1767578125	-76.3125	-110.5625	-6.875
18	12	13	15	57	16	0.687011470496	0.202453540124	0.480956857455	-0.83935546875	-0.04150390625	0.21923828125	-80.375	-104.4375	-15.625
18	12	13	15	57	16	0.695033943032	0.185920206417	0.47774046475	-0.8544921875	-0.07861328125	0.25146484375	-70.3125	-94.5625	-20.875
18	12	13	15	57	16	0.701153087585	0.172434706401	0.474088624643	-0.82861328125	-0.125	0.27783203125	-50.8125	-82.1875	-20.75
18	12	13	15	57	16	0.70545874562	0.163028232354	0.469797193722	-0.81103515625	-0.1455078125	0.30712890625	-26.875	-68.375	-18.8125
18	12	13	15	57	16	0.708137717771	0.158082803743	0.465337179821	-0.80810546875	-0.12939453125	0.326171875	-5.0625	-51.8125	-16.0625
18	12	13	15	57	16	0.709261435618	0.156806594501	0.461691351034	-0.80810546875	-0.0986328125	0.322265625	8.125	-34.6875	-14.125
18	12	13	15	57	16	0.708955430828	0.157477831385	0.460042796569	-0.83984375	-0.07470703125	0.3359375	9.25	-17.25	-14.9375
18	12	13	15	57	16	0.706928840468	0.159428262071	0.461682761984	-0.95068359375	-0.0712890625	0.3583984375	2.875	2.625	-17.6875
18	12	13	15	57	16	0.702838115733	0.163151218702	0.466870060551	-1.0615234375	-0.1025390625	0.36083984375	0.25	25.6875	-18.25
18	12	13	15	57	16	0.696829735934	0.169431492244	0.474664522761	-1.10302734375	-0.1669921875	0.3515625	4.875	49.125	-13.8125
18	12	13	15	57	16	0.689592751625	0.178349267149	0.484143185156	-1.07470703125	-0.21923828125	0.3076171875	11.0625	68.5	-3.0625
18	12	13	15	57	16	0.681853625593	0.18848482641	0.494528517998	-1.09716796875	-0.2509765625	0.26904296875	11.8125	77.75	3.9375
18	12	13	15	57	16	0.673038074093	0.19928079368	0.506106076937	-1.22314453125	-0.25341796875	0.27001953125	10.25	86.9375	2.25
18	12	13	15	57	16	0.663913807288	0.212413353807	0.515773804504	-1.1728515625	-0.24658203125	0.201171875	24.9375	100.375	11.9375
18	12	13	15	57	16	0.654167161199	0.226437783919	0.526177934008	-1.02587890625	-0.3046875	0.091796875	29.125	94.5625	20.0625
18	12	13	15	57	16	0.646142987451	0.23664239206	0.536214447833	-1.00390625	-0.36865234375	0.09033203125	12.0	81.0625	22.0625
18	12	13	15	57	16	0.639790874347	0.245063953492	0.545122333409	-1.0625	-0.35693359375	0.14697265625	2.5625	71.875	24.875
18	12	13	15	57	16	0.633433406693	0.254459806562	0.552926694087	-1.1171875	-0.25	0.12939453125	7.625	70.625	20.6875
18	12	13	15	57	16	0.626924156728	0.263380170994	0.560148280235	-1.125	-0.18359375	0.08349609375	9.1875	64.75	13.25
18	12	13	15	57	16	0.621219099573	0.269715779231	0.566653381847	-1.076171875	-0.259765625	0.08935546875	4.25	54.6875	11.3125
18	12	13	15	57	16	0.615883768389	0.275530161596	0.571203201643	-0.95849609375	-0.34423828125	0.1181640625	13.75	46.625	14.125
18	12	13	15	57	16	0.609989715701	0.283388257955	0.572452826051	-0.84033203125	-0.3349609375	0.15234375	41.0	42.0	14.0
18	12	13	15	57	16	0.603422500775	0.293410070931	0.571133354213	-0.76123046875	-0.2578125	0.19140625	62.6875	40.875	11.0625
18	12	13	15	57	16	0.596773085972	0.303788447262	0.568878506828	-0.7080078125	-0.1669921875	0.22216796875	67.1875	40.9375	6.3125
18	12	13	15	57	16	0.590645346091	0.312626378286	0.567207523119	-0.68505859375	-0.11474609375	0.25927734375	56.25	41.875	1.0625
18	12	13	15	57	16	0.584988932862	0.319595372753	0.566677509671	-0.669921875	-0.11865234375	0.30078125	42.25	43.5625	-1.9375
18	12	13	15	57	16	0.57930183565	0.32569324571	0.566911331737	-0.68017578125	-0.162109375	0.3408203125	35.75	47.9375	-1.8125
18	12	13	15	57	16	0.573017420275	0.332286625051	0.567157847166	-0.70556640625	-0.21142578125	0.34619140625	39.625	51.375	0.1875
18	12	13	15	57	16	0.566054524028	0.339852446602	0.566603854491	-0.72216796875	-0.228515625	0.34375	48.9375	52.25	1.5625
18	12	13	15	57	16	0.558538613712	0.348209243932	0.565313587608	-0.7431640625	-0.234375	0.3349609375	57.0625	52.5	2.0625
18	12	13	15	57	16	0.550536013167	0.357054953107	0.563658545631	-0.76953125	-0.24365234375	0.2978515625	61.9375	51.375	2.3125
18	12	13	15	57	16	0.542611676815	0.365667779055	0.561716002444	-0.82177734375	-0.25439453125	0.279296875	62.125	48.0625	2.25
18	12	13	15	57	16	0.535180796048	0.373674365124	0.559412864482	-0.8974609375	-0.26318359375	0.29736328125	60.3125	44.8125	2.125
18	12	13	15	57	16	0.528337679297	0.381482266128	0.556842034222	-0.98681640625	-0.2548828125	0.3095703125	57.0625	43.125	3.625
18	12	13	15	57	16	0.522290763212	0.389108754876	0.554151903611	-1.115234375	-0.23974609375	0.3232421875	52.625	42.4375	5.6875
18	12	13	15	57	16	0.516313190921	0.396680391038	0.551165399458	-1.2412109375	-0.24462890625	0.30859375	53.5625	39.5	5.3125
18	12	13	15	57	16	0.509826478778	0.404418801434	0.546935840576	-1.26220703125	-0.28759765625	0.2470703125	64.125	30.4375	5.9375
18	12	13	15	57	16	0.503619630418	0.412124560002	0.540730372788	-1.189453125	-0.34130859375	0.20068359375	75.0	17.4375	11.375
18	12	13	15	57	16	0.498916983478	0.419690870858	0.532365296048	-1.2392578125	-0.3115234375	0.25048828125	78.75	7.4375	16.9375
18	12	13	15	57	16	0.49569066253	0.427572108241	0.522913668993	-1.32958984375	-0.12646484375	0.2900390625	75.6875	4.9375	14.8125
18	12	13	15	57	16	0.492698156734	0.435139390406	0.514244545402	-1.2744140625	-0.03076171875	0.22900390625	68.75	3.4375	10.4375
18	12	13	15	57	16	0.491782440319	0.438923610318	0.507530221081	-1.19677734375	-0.087890625	0.1787109375	45.0	-10.125	8.4375
18	12	13	15	57	16	0.493594130212	0.439272530621	0.501711852398	-1.1748046875	-0.14892578125	0.2021484375	24.0	-24.25	11.5625
18	12	13	15	57	17	0.497400991266	0.438499045436	0.496119187263	-1.19970703125	-0.0869140625	0.2587890625	10.9375	-27.3125	13.625
18	12	13	15	57	17	0.50337952318	0.436481989846	0.492270626221	-1.23291015625	0.02099609375	0.279296875	-12.0625	-25.875	12.8125
18	12	13	15	57	17	0.512037282183	0.431346700821	0.491895155217	-1.2763671875	0.08056640625	0.28466796875	-47.9375	-26.1875	9.4375
18	12	13	15	57	17	0.522703734543	0.42236219559	0.494871774833	-1.28955078125	0.04052734375	0.2724609375	-80.875	-31.125	5.4375
18	12	13	15	57	17	0.533939615554	0.410586624809	0.499515525113	-1.21240234375	-0.07763671875	0.22509765625	-95.125	-39.0625	5.1875
18	12	13	15	57	17	0.54469542478	0.398206292163	0.503068096261	-1.0810546875	-0.16748046875	0.1552734375	-87.125	-50.0	7.625
18	12	13	15	57	17	0.554947959431	0.386485974386	0.503554846602	-0.94189453125	-0.19921875	0.10986328125	-66.375	-64.0	10.5625
18	12	13	15	57	17	0.565146638173	0.375625057924	0.500874102263	-0.8447265625	-0.15771484375	0.078125	-48.5	-78.25	11.3125
18	12	13	15	57	17	0.576002952227	0.364266781699	0.496228038742	-0.79248046875	-0.10302734375	0.05419921875	-42.9375	-91.8125	9.625
18	12	13	15	57	17	0.588347484778	0.350237355292	0.490136975077	-0.76318359375	-0.06884765625	0.05224609375	-48.5625	-104.6875	5.25
18	12	13	15	57	17	0.601342740828	0.333936879321	0.484028414004	-0.77001953125	-0.0478515625	0.08251953125	-57.875	-113.3125	0.5625
18	12	13	15	57	17	0.614320929072	0.316163180586	0.478151034113	-0.77685546875	-0.0419921875	0.13818359375	-64.3125	-116.375	-3.4375
18	12	13	15	57	17	0.626553889841	0.298170068375	0.472250116483	-0.77880859375	-0.0654296875	0.17919921875	-63.625	-114.875	-6.0625
18	12	13	15	57	17	0.637473070026	0.280832400918	0.466263575443	-0.78857421875	-0.07958984375	0.2294921875	-57.5	-110.1875	-9.6875
18	12	13	15	57	17	0.646644373949	0.264969154929	0.459926879149	-0.8046875	-0.095703125	0.27685546875	-46.5	-103.0625	-13.5625
18	12	13	15	57	17	0.653569122963	0.252199067621	0.453738593585	-0.8251953125	-0.0947265625	0.33154296875	-31.4375	-92.0625	-17.5625
18	12	13	15	57	17	0.658214083251	0.242496712978	0.447883433132	-0.85400390625	-0.08935546875	0.3623046875	-16.4375	-77.0625	-20.75
18	12	13	15	57	17	0.660657298538	0.23590543781	0.443001725128	-0.9072265625	-0.0810546875	0.38818359375	-5.3125	-59.3125	-23.875
18	12	13	15	57	17	0.660538070547	0.232244257848	0.440318022633	-1.00537109375	-0.08251953125	0.39990234375	2.25	-38.625	-28.75
18	12	13	15	57	17	0.657801095035	0.231881447531	0.440141384086	-1.11083984375	-0.103515625	0.38427734375	10.1875	-16.375	-31.9375
18	12	13	15	57	17	0.652656534689	0.235110162875	0.441777611342	-1.13720703125	-0.14453125	0.3388671875	22.1875	5.0	-30.4375
18	12	13	15	57	17	0.646016068817	0.241096321979	0.444349676964	-1.08935546875	-0.20849609375	0.28759765625	33.5625	21.625	-24.25
18	12	13	15	57	17	0.638694101813	0.248482768395	0.448013637931	-1.1533203125	-0.20703125	0.29443359375	34.0625	32.375	-22.0
18	12	13	15	57	17	0.630318367467	0.257571754693	0.454168584519	-1.28515625	-0.16357421875	0.30908203125	26.6875	51.1875	-22.625
18	12	13	15	57	17	0.620807277203	0.26990559235	0.461500719981	-1.22265625	-0.18798828125	0.25341796875	33.5	72.3125	-11.0
18	12	13	15	57	17	0.611947261377	0.281925433902	0.469122945436	-1.06494140625	-0.3046875	0.16650390625	31.3125	74.3125	4.25
18	12	13	15	57	17	0.605359997573	0.291144100466	0.477000240072	-1.0107421875	-0.37451171875	0.1396484375	14.3125	64.0625	15.4375
18	12	13	15	57	17	0.600960923297	0.298832488367	0.484748288932	-1.05078125	-0.33154296875	0.1455078125	-0.9375	57.0625	21.8125
18	12	13	15	57	17	0.597500032425	0.305799894009	0.492942104593	-1.1044921875	-0.1806640625	0.13330078125	-14.125	56.0625	17.125
18	12	13	15	57	17	0.594749147782	0.310070368507	0.502826711764	-1.1083984375	-0.10986328125	0.1171875	-34.5625	53.75	7.75
18	12	13	15	57	17	0.592728448719	0.311043576838	0.513502671102	-1.0419921875	-0.18115234375	0.15185546875	-48.875	49.625	4.8125
18	12	13	15	57	17	0.590539666467	0.311963641893	0.522543677997	-0.91552734375	-0.267578125	0.181640625	-38.8125	47.875	9.0625
18	12	13	15	57	17	0.586805766473	0.315864347982	0.528088567872	-0.78076171875	-0.2958984375	0.1943359375	-5.3125	47.6875	12.3125
18	12	13	15	57	17	0.581185118342	0.323124765438	0.529670705416	-0.6796875	-0.275390625	0.20751953125	32.3125	46.8125	11.25
18	12	13	15	57	17	0.57428719283	0.332340712611	0.528571271113	-0.63134765625	-0.19970703125	0.23046875	55.875	45.25	5.0
18	12	13	15	57	17	0.567272587106	0.341498829875	0.52686646997	-0.615234375	-0.10400390625	0.26123046875	57.25	45.375	-2.1875
18	12	13	15	57	17	0.560551547406	0.349185039493	0.526615717663	-0.61474609375	-0.06298828125	0.28564453125	43.375	49.0	-7.5625
18	12	13	15	57	17	0.553857208539	0.355484282845	0.52828236058	-0.64404296875	-0.0859375	0.32373046875	29.5	55.75	-10.375
18	12	13	15	57	17	0.546638078409	0.361638076661	0.530890800135	-0.6884765625	-0.14208984375	0.35009765625	25.75	62.875	-10.0
18	12	13	15	57	17	0.538651670428	0.368663579534	0.533341449994	-0.748046875	-0.18310546875	0.3623046875	31.1875	68.4375	-7.75
18	12	13	15	57	17	0.529843619523	0.376951295263	0.535031582622	-0.81689453125	-0.22119140625	0.35888671875	40.8125	70.9375	-4.375
18	12	13	15	57	17	0.520451067995	0.386233652899	0.535526875875	-0.85302734375	-0.2509765625	0.34619140625	51.375	70.75	-1.375
18	12	13	15	57	17	0.510639093723	0.396315997555	0.53505406354	-0.8857421875	-0.2490234375	0.2998046875	59.3125	67.9375	0.125
18	12	13	15	57	17	0.501540792577	0.405956895635	0.534134535213	-0.93701171875	-0.244140625	0.27001953125	57.0625	61.875	2.0625
18	12	13	15	57	17	0.494265252859	0.414308784442	0.533266919515	-1.00927734375	-0.23486328125	0.2841796875	45.375	56.5625	5.3125
18	12	13	15	57	17	0.489024511457	0.421396059298	0.53284872504	-1.11083984375	-0.220703125	0.30859375	30.125	53.0625	8.9375
18	12	13	15	57	17	0.485186278008	0.427505936743	0.532734411178	-1.20849609375	-0.21337890625	0.31396484375	20.375	49.875	11.0
18	12	13	15	57	17	0.481884121347	0.432993788073	0.532056223658	-1.23779296875	-0.25439453125	0.27392578125	21.0625	40.875	13.375
18	12	13	15	57	17	0.479066544035	0.437806640383	0.529603822474	-1.15576171875	-0.318359375	0.23583984375	29.5625	26.3125	18.5625
18	12	13	15	57	17	0.477735071871	0.441967504206	0.524855485246	-1.2490234375	-0.328125	0.30029296875	35.0	13.6875	23.3125
18	12	13	15	57	18	0.477366438615	0.446726117405	0.518505037212	-1.33447265625	-0.1318359375	0.3212890625	38.5	8.9375	17.9375
18	12	13	15	57	18	0.477292958907	0.451170019468	0.51269320394	-1.25390625	-0.0244140625	0.24267578125	33.9375	4.5	12.3125
18	12	13	15	57	18	0.47951714958	0.451195362741	0.509364894761	-1.1943359375	-0.119140625	0.17724609375	7.375	-12.1875	9.6875
18	12	13	15	57	18	0.484762128893	0.447712190308	0.506674695535	-1.2314453125	-0.17138671875	0.22412109375	-13.6875	-27.75	12.125
18	12	13	15	57	18	0.491822779545	0.443360718617	0.503846741766	-1.25	-0.099609375	0.2529296875	-23.125	-32.8125	13.4375
18	12	13	15	57	18	0.500879473767	0.437277668787	0.502222314179	-1.2685546875	0.01220703125	0.25927734375	-42.5625	-37.5	9.125
18	12	13	15	57	18	0.512535307736	0.427570540751	0.503440659546	-1.3056640625	0.0517578125	0.23095703125	-75.125	-46.0625	3.5625
18	12	13	15	57	18	0.525471647942	0.414017213148	0.506855217157	-1.287109375	-0.04052734375	0.1904296875	-97.75	-57.625	0.0625
18	12	13	15	57	18	0.538355434641	0.398517305303	0.509789636069	-1.17431640625	-0.166015625	0.146484375	-96.8125	-71.1875	0.9375
18	12	13	15	57	18	0.550384819377	0.383444320209	0.509855206417	-1.02978515625	-0.22509765625	0.0908203125	-75.9375	-85.9375	3.4375
18	12	13	15	57	18	0.562902418471	0.369286448899	0.504671133802	-0.90966796875	-0.21923828125	0.05615234375	-50.1875	-103.3125	4.25
18	12	13	15	57	18	0.575691119259	0.354802001299	0.496466450811	-0.82958984375	-0.158203125	0.02978515625	-36.625	-119.4375	3.6875
18	12	13	15	57	18	0.589116462484	0.33899221225	0.486698577688	-0.7919921875	-0.09375	0.03662109375	-36.0	-132.375	1.4375
18	12	13	15	57	18	0.603360028528	0.320815408188	0.476889418603	-0.77197265625	-0.04443359375	0.05859375	-46.75	-141.6875	-1.8125
18	12	13	15	57	18	0.617925313068	0.300295588729	0.467777518704	-0.77587890625	-0.01416015625	0.10595703125	-60.3125	-145.5	-6.125
18	12	13	15	57	18	0.631864050479	0.278393733987	0.45955413795	-0.7890625	-0.02294921875	0.15185546875	-68.625	-144.3125	-11.0625
18	12	13	15	57	18	0.644437075401	0.256358753238	0.451801783683	-0.7919921875	-0.0595703125	0.205078125	-68.4375	-139.125	-15.9375
18	12	13	15	57	18	0.655157600643	0.235720016181	0.443851879251	-0.7861328125	-0.08056640625	0.267578125	-59.25	-130.5625	-19.75
18	12	13	15	57	18	0.663637286092	0.21783513971	0.435731314762	-0.79150390625	-0.0888671875	0.32470703125	-43.5	-117.375	-22.25
18	12	13	15	57	18	0.669738961644	0.203613339656	0.427612427347	-0.8037109375	-0.0986328125	0.376953125	-24.75	-100.0625	-23.3125
18	12	13	15	57	18	0.673485592499	0.194708994025	0.420547012173	-0.8173828125	-0.09814453125	0.4091796875	-8.5	-80.0	-23.6875
18	12	13	15	57	18	0.675069569505	0.189458946089	0.41560114817	-0.8828125	-0.0830078125	0.43115234375	-0.6875	-56.75	-24.8125
18	12	13	15	57	18	0.674261263847	0.187928888511	0.414127154449	-0.9990234375	-0.07568359375	0.4375	1.8125	-28.5625	-26.5
18	12	13	15	57	18	0.670981545746	0.190191803561	0.416334496819	-1.08642578125	-0.10595703125	0.41064453125	5.8125	0.0625	-25.6875
18	12	13	15	57	18	0.665855774682	0.195319321568	0.421218324418	-1.0947265625	-0.1865234375	0.37890625	11.75	24.5	-20.1875
18	12	13	15	57	18	0.659549448831	0.203675412803	0.428163925925	-1.1181640625	-0.21728515625	0.37158203125	16.1875	48.1875	-12.1875
18	12	13	15	57	18	0.651676829024	0.215455578014	0.437502998075	-1.2021484375	-0.20849609375	0.357421875	18.625	73.0	-6.8125
18	12	13	15	57	18	0.642848687974	0.230661336105	0.448382687225	-1.1787109375	-0.232421875	0.30126953125	23.875	95.6875	6.8125
18	12	13	15	57	18	0.635155404295	0.246408069108	0.456987172012	-1.013671875	-0.2958984375	0.2109375	29.125	104.5625	21.625
18	12	13	15	57	18	0.626793063933	0.260629699386	0.466997149883	-0.88818359375	-0.37744140625	0.14453125	26.625	94.4375	25.0625
18	12	13	15	57	18	0.619235388106	0.271865393654	0.475672881174	-0.939453125	-0.384765625	0.15771484375	21.0625	77.9375	18.6875
18	12	13	15	57	18	0.611828974111	0.282354432785	0.483774585875	-1.07177734375	-0.2861328125	0.17724609375	17.0625	72.0	9.5
18	12	13	15	57	18	0.60400402213	0.293212946879	0.492004488924	-1.140625	-0.18115234375	0.14404296875	14.75	73.75	3.25
18	12	13	15	57	18	0.595881482268	0.302915066731	0.500484293209	-1.12841796875	-0.22021484375	0.13037109375	12.1875	73.4375	0.4375
18	12	13	15	57	18	0.587476664474	0.311713592256	0.507823984252	-1.03173828125	-0.337890625	0.1572265625	18.625	70.8125	3.3125
18	12	13	15	57	18	0.57797549397	0.322223321646	0.51193161558	-0.88232421875	-0.3916015625	0.16552734375	45.5625	68.375	6.9375
18	12	13	15	57	18	0.567213865608	0.335152408916	0.512280853766	-0.7646484375	-0.32275390625	0.177734375	74.25	65.5	4.5
18	12	13	15	57	18	0.556599410729	0.348279004016	0.510943488016	-0.71533203125	-0.201171875	0.1904296875	79.8125	61.8125	-0.5625
18	12	13	15	57	18	0.547931934337	0.358899384416	0.510638137759	-0.69970703125	-0.10205078125	0.232421875	57.0625	58.4375	-4.3125
18	12	13	15	57	18	0.541581884045	0.365489949472	0.51319964849	-0.6953125	-0.07373046875	0.2861328125	21.875	58.125	-8.625
18	12	13	15	57	18	0.536231826739	0.369044692597	0.518469338227	-0.71044921875	-0.1298828125	0.34814453125	-3.25	61.5625	-11.375
18	12	13	15	57	18	0.530953808176	0.371771427244	0.524361899763	-0.74560546875	-0.21142578125	0.39501953125	-8.625	65.0625	-9.5
18	12	13	15	57	18	0.525156416909	0.375312274242	0.52894066817	-0.77099609375	-0.27685546875	0.42431640625	2.5625	65.3125	-5.0
18	12	13	15	57	18	0.518698019353	0.380508761196	0.531454889916	-0.7998046875	-0.29150390625	0.44091796875	19.1875	65.375	-1.5
18	12	13	15	57	18	0.511376938285	0.387042392655	0.532496110002	-0.81689453125	-0.28955078125	0.4306640625	32.9375	64.8125	-0.3125
18	12	13	15	57	18	0.504038797936	0.393684941474	0.532481772002	-0.82861328125	-0.2685546875	0.40771484375	38.9375	59.5625	-1.6875
18	12	13	15	57	18	0.497507390763	0.39942195622	0.531931899215	-0.8388671875	-0.263671875	0.3994140625	36.625	51.8125	-2.125
18	12	13	15	57	18	0.492682178523	0.404241088746	0.531378970047	-0.90625	-0.23388671875	0.40478515625	26.8125	46.375	0.3125
18	12	13	15	57	18	0.489643087999	0.408463169396	0.531392760424	-1.0	-0.19921875	0.412109375	13.5625	44.875	4.3125
18	12	13	15	57	18	0.487985382799	0.412239308996	0.531931533595	-1.1162109375	-0.17529296875	0.41796875	2.625	44.25	7.5625
18	12	13	15	57	19	0.487567124351	0.415115675102	0.532612760026	-1.19287109375	-0.17529296875	0.380859375	-4.6875	37.25	9.125
18	12	13	15	57	19	0.488175520042	0.416761996855	0.532671638335	-1.19677734375	-0.23095703125	0.33740234375	-5.375	23.875	12.5625
18	12	13	15	57	19	0.489836527047	0.418054875233	0.530366303241	-1.30712890625	-0.25634765625	0.3515625	3.3125	9.5	16.8125
18	12	13	15	57	19	0.491584005762	0.421087416905	0.525336918003	-1.40234375	-0.15185546875	0.29443359375	20.4375	-0.75	18.0625
18	12	13	15	57	19	0.492740268265	0.424746627878	0.518436249058	-1.35009765625	-0.1318359375	0.1650390625	36.625	-15.875	18.0625
18	12	13	15	57	19	0.495329848257	0.426661200162	0.510101237447	-1.2783203125	-0.15576171875	0.125	37.0625	-36.75	20.4375
18	12	13	15	57	19	0.50098616107	0.426582880083	0.501169270047	-1.26123046875	-0.09326171875	0.16796875	23.0625	-50.0	25.0
18	12	13	15	57	19	0.509587524586	0.42419850232	0.493718228096	-1.29296875	0.015625	0.20068359375	-3.8125	-55.25	25.0625
18	12	13	15	57	19	0.520889061272	0.41834703843	0.489455048318	-1.29052734375	0.0751953125	0.21240234375	-39.625	-59.0	21.3125
18	12	13	15	57	19	0.534724809756	0.407955784546	0.488826732261	-1.2548828125	0.05615234375	0.21337890625	-78.0625	-64.5625	17.5
18	12	13	15	57	19	0.549890024548	0.392351323987	0.491293684936	-1.18701171875	-0.01513671875	0.20947265625	-107.625	-72.125	14.5625
18	12	13	15	57	19	0.566049301594	0.374578883317	0.494087674833	-1.08984375	-0.09619140625	0.1865234375	-119.75	-79.0	14.625
18	12	13	15	57	19	0.58204223676	0.35639100466	0.495431715161	-0.99951171875	-0.1640625	0.14599609375	-113.875	-86.875	15.1875
18	12	13	15	57	19	0.596332234183	0.338877846897	0.495071724817	-0.91015625	-0.19287109375	0.12646484375	-95.125	-96.875	13.6875
18	12	13	15	57	19	0.610675506854	0.322092418757	0.490676701609	-0.82470703125	-0.16650390625	0.10986328125	-76.25	-106.1875	11.75
18	12	13	15	57	19	0.624777985949	0.305247626781	0.48457526675	-0.77001953125	-0.09423828125	0.11376953125	-68.625	-113.6875	9.1875
18	12	13	15	57	19	0.638638823608	0.287305069552	0.478231404278	-0.73095703125	-0.029296875	0.1279296875	-71.375	-117.1875	5.125
18	12	13	15	57	19	0.651629896418	0.268501303329	0.472486608109	-0.7568359375	-0.01416015625	0.15576171875	-75.3125	-115.375	-1.5625
18	12	13	15	57	19	0.662864119042	0.249886344692	0.466690520644	-0.796875	-0.0546875	0.181640625	-68.25	-112.4375	-10.0625
18	12	13	15	57	19	0.672268913894	0.23285871677	0.459979892419	-0.79296875	-0.07373046875	0.21875	-53.25	-107.9375	-15.5
18	12	13	15	57	19	0.679524282965	0.219610919798	0.453321373356	-0.76171875	-0.07421875	0.2548828125	-35.5	-99.3125	-17.4375
18	12	13	15	57	19	0.684981110401	0.209669409573	0.446134996963	-0.76513671875	-0.0732421875	0.2841796875	-16.75	-87.1875	-18.0625
18	12	13	15	57	19	0.688735479378	0.203068321507	0.439035298047	-0.7744140625	-0.05712890625	0.3017578125	-1.4375	-73.625	-18.1875
18	12	13	15	57	19	0.690925653167	0.198976822379	0.432988214096	-0.7958984375	-0.052734375	0.32421875	6.625	-58.1875	-18.6875
18	12	13	15	57	19	0.691613544998	0.196845263668	0.428909044277	-0.837890625	-0.0390625	0.34619140625	7.75	-40.9375	-20.1875
18	12	13	15	57	19	0.69056918334	0.196660235878	0.427562058449	-0.931640625	-0.0400390625	0.3642578125	7.25	-21.875	-22.75
18	12	13	15	57	19	0.687371365472	0.199033743812	0.428889947183	-1.02294921875	-0.07666015625	0.34765625	11.875	-1.875	-24.25
18	12	13	15	57	19	0.682387393317	0.204227926479	0.432015918596	-1.076171875	-0.1396484375	0.3388671875	21.25	17.375	-20.8125
18	12	13	15	57	19	0.67623222575	0.212165648227	0.436660830672	-1.0771484375	-0.17822265625	0.326171875	27.875	35.9375	-13.75
18	12	13	15	57	19	0.669512353661	0.22192970352	0.442821781913	-1.0654296875	-0.16162109375	0.322265625	26.5625	53.25	-7.375
18	12	13	15	57	19	0.661954368648	0.231760326211	0.451862442702	-1.1943359375	-0.1337890625	0.3046875	12.875	65.4375	-9.875
18	12	13	15	57	19	0.652803501445	0.242382674543	0.463096789665	-1.28515625	-0.17236328125	0.302734375	10.6875	81.125	-12.0625
18	12	13	15	57	19	0.642472778771	0.256232255869	0.473095811158	-1.1552734375	-0.263671875	0.2236328125	32.5	91.5625	1.1875
18	12	13	15	57	19	0.632166433608	0.269908271644	0.481952897535	-1.0556640625	-0.3671875	0.1484375	40.0	87.1875	9.9375
18	12	13	15	57	19	0.622869716669	0.282290292954	0.489262483961	-1.08984375	-0.42333984375	0.1796875	39.1875	77.875	14.9375
18	12	13	15	57	19	0.613774757043	0.296450277939	0.494511046297	-1.115234375	-0.3115234375	0.2021484375	48.6875	77.6875	16.5625
18	12	13	15	57	19	0.604695479448	0.310984502653	0.499650468836	-1.1201171875	-0.14013671875	0.14892578125	44.3125	79.0625	10.3125
18	12	13	15	57	19	0.597058646672	0.321417995643	0.507335051231	-1.16064453125	-0.08740234375	0.1455078125	12.3125	76.1875	2.5
18	12	13	15	57	19	0.591246168778	0.327330773527	0.517332768304	-1.1005859375	-0.16650390625	0.19091796875	-18.4375	74.9375	3.4375
18	12	13	15	57	19	0.5854101209	0.332165767692	0.526936249998	-0.970703125	-0.2529296875	0.208984375	-18.125	74.625	5.5625
18	12	13	15	57	19	0.578121237552	0.338498773592	0.533748967735	-0.84130859375	-0.2900390625	0.22119140625	7.8125	72.3125	4.3125
18	12	13	15	57	19	0.56964628804	0.346865943955	0.537175289943	-0.7470703125	-0.25830078125	0.236328125	35.8125	67.875	2.125
18	12	13	15	57	19	0.560734706624	0.356265209814	0.538517722493	-0.70751953125	-0.17724609375	0.25048828125	49.875	64.5	-2.0
18	12	13	15	57	19	0.552078208741	0.365305481406	0.539687730424	-0.69482421875	-0.10595703125	0.27392578125	46.625	64.875	-6.4375
18	12	13	15	57	19	0.543722618552	0.373183665226	0.54176941651	-0.68310546875	-0.09326171875	0.31005859375	36.8125	68.5625	-9.5625
18	12	13	15	57	19	0.535340203046	0.380249625468	0.544861702496	-0.70556640625	-0.1162109375	0.33984375	29.125	73.5625	-10.6875
18	12	13	15	57	19	0.526826090962	0.38716926138	0.548189679404	-0.7392578125	-0.14501953125	0.35791015625	26.8125	76.875	-9.625
18	12	13	15	57	19	0.518146857164	0.394607071689	0.551046039166	-0.7744140625	-0.173828125	0.36962890625	30.3125	78.75	-6.4375
18	12	13	15	57	19	0.508976651283	0.402713508234	0.553044422266	-0.79736328125	-0.1962890625	0.35107421875	37.8125	78.25	-4.0625
18	12	13	15	57	19	0.499526057033	0.411083576994	0.554337200632	-0.80908203125	-0.2109375	0.3125	43.5	74.5625	-3.3125
18	12	13	15	57	20	0.490747735834	0.419088800278	0.554960001766	-0.83447265625	-0.20703125	0.2890625	42.625	68.6875	-1.8125
18	12	13	15	57	20	0.483364318644	0.426049115309	0.555328775227	-0.88232421875	-0.20947265625	0.283203125	35.8125	61.875	0.8125
18	12	13	15	57	20	0.477985993937	0.432085666081	0.555442797194	-0.97705078125	-0.1953125	0.3134765625	25.625	56.6875	4.9375
18	12	13	15	57	20	0.474619877611	0.437265535392	0.555554285753	-1.12939453125	-0.17041015625	0.33935546875	13.6875	53.875	8.5
18	12	13	15	57	20	0.472487248841	0.44172461179	0.555680650232	-1.259765625	-0.1640625	0.3154296875	6.875	47.9375	9.5
18	12	13	15	57	20	0.470651592024	0.445199418003	0.554698699042	-1.2822265625	-0.2431640625	0.22998046875	13.4375	31.6875	11.25
18	12	13	15	57	20	0.469628403242	0.447898781257	0.551236562214	-1.22265625	-0.33740234375	0.1611328125	25.5625	8.125	18.1875
18	12	13	15	57	20	0.471253105006	0.450012840722	0.544617466128	-1.38720703125	-0.306640625	0.2314453125	30.375	-9.875	25.4375
18	12	13	15	57	20	0.474678807965	0.452400581797	0.536569551346	-1.4013671875	-0.09423828125	0.244140625	29.0625	-17.5	22.8125
18	12	13	15	57	20	0.479078646368	0.453504184292	0.529434090788	-1.29931640625	-0.0185546875	0.15087890625	19.0	-27.5	18.5625
18	12	13	15	57	20	0.485961480484	0.449767665121	0.523620138291	-1.203125	-0.12939453125	0.08837890625	-2.8125	-53.0	15.75
18	12	13	15	57	20	0.495618706144	0.442699812273	0.5174698757	-1.17578125	-0.162109375	0.1240234375	-16.75	-73.0	17.3125
18	12	13	15	57	20	0.507505530037	0.434019461707	0.510984521644	-1.23486328125	-0.0751953125	0.19580078125	-29.1875	-80.875	16.6875
18	12	13	15	57	20	0.520758760551	0.423772629454	0.505499772021	-1.263671875	0.02978515625	0.23388671875	-45.9375	-83.75	10.8125
18	12	13	15	57	20	0.535098840848	0.410220064941	0.502811024399	-1.2744140625	0.05126953125	0.21337890625	-71.75	-88.8125	1.875
18	12	13	15	57	20	0.549818196783	0.392953990995	0.502087531831	-1.27001953125	-0.04443359375	0.1943359375	-90.0	-98.5625	-5.375
18	12	13	15	57	20	0.564092884199	0.374027396058	0.500188399266	-1.20751953125	-0.15283203125	0.173828125	-84.125	-108.25	-7.4375
18	12	13	15	57	20	0.577036300703	0.356878702159	0.49488156612	-1.1376953125	-0.220703125	0.1240234375	-58.0625	-116.5	-5.625
18	12	13	15	57	20	0.588441869376	0.342286277716	0.48486486986	-1.05810546875	-0.23876953125	0.06982421875	-22.0	-127.875	-4.375
18	12	13	15	57	20	0.598956522753	0.329416931957	0.470717691172	-0.96923828125	-0.1923828125	0.0576171875	5.4375	-139.1875	-3.3125
18	12	13	15	57	20	0.609747374646	0.316592555785	0.454838582168	-0.89306640625	-0.08837890625	0.06396484375	11.0	-146.3125	-1.3125
18	12	13	15	57	20	0.621410674188	0.30188559027	0.439766615021	-0.84375	0.005859375	0.083984375	-5.1875	-149.0625	-0.0625
18	12	13	15	57	20	0.633872756491	0.284067771662	0.427261366918	-0.8408203125	0.0517578125	0.11181640625	-32.3125	-148.0625	-2.75
18	12	13	15	57	20	0.646428640169	0.263063680401	0.417666998837	-0.8359375	0.03076171875	0.15185546875	-57.875	-145.5	-7.6875
18	12	13	15	57	20	0.6582857923	0.240303306841	0.410047654397	-0.7939453125	-0.02294921875	0.1953125	-72.5625	-140.125	-12.3125
18	12	13	15	57	20	0.66865407362	0.217961085979	0.403450792025	-0.7607421875	-0.0673828125	0.2431640625	-73.0625	-130.5	-16.1875
18	12	13	15	57	20	0.677206818024	0.197638186279	0.397290597433	-0.74658203125	-0.08984375	0.28271484375	-64.1875	-117.6875	-18.125
18	12	13	15	57	20	0.683785816931	0.180605394296	0.391301514982	-0.7265625	-0.1025390625	0.326171875	-49.25	-101.375	-18.5
18	12	13	15	57	20	0.688237126617	0.168946467406	0.386660358027	-0.7080078125	-0.0947265625	0.35791015625	-32.8125	-82.4375	-17.9375
18	12	13	15	57	20	0.690817242046	0.161381939209	0.382824327806	-0.70751953125	-0.083984375	0.3916015625	-18.625	-60.75	-17.75
18	12	13	15	57	20	0.6915414938	0.157595775551	0.38092766662	-0.74560546875	-0.0625	0.4169921875	-10.0	-37.0625	-18.75
18	12	13	15	57	20	0.690174087583	0.157529122749	0.382134768514	-0.81884765625	-0.04443359375	0.42578125	-6.25	-9.5625	-20.5625
18	12	13	15	57	20	0.686479048231	0.161258793049	0.386789164101	-0.900390625	-0.06982421875	0.4208984375	-1.25	19.25	-21.125
18	12	13	15	57	20	0.680851108228	0.168335935141	0.39404524919	-0.9111328125	-0.1435546875	0.396484375	7.5	45.375	-17.375
18	12	13	15	57	20	0.673584625501	0.178894213242	0.402710344242	-0.896484375	-0.1943359375	0.365234375	19.1875	67.3125	-11.5625
18	12	13	15	57	20	0.665007642203	0.192330342412	0.4126770692	-0.94970703125	-0.2060546875	0.3388671875	26.5	84.75	-7.5625
18	12	13	15	57	20	0.655833998702	0.205997184329	0.422675704142	-1.06201171875	-0.1943359375	0.330078125	25.4375	102.25	-5.75
18	12	13	15	57	20	0.645588365762	0.221930537762	0.43446137728	-1.13134765625	-0.20751953125	0.3291015625	25.1875	121.125	-0.375
18	12	13	15	57	20	0.634234891573	0.240363487924	0.447034582416	-1.14306640625	-0.255859375	0.30908203125	30.5625	137.1875	7.25
18	12	13	15	57	20	0.622462449917	0.260569935154	0.459064530871	-1.11962890625	-0.3359375	0.24169921875	37.375	143.6875	16.25
18	12	13	15	57	20	0.611325219091	0.280516244702	0.469602259952	-1.11962890625	-0.4033203125	0.19921875	39.5625	137.3125	23.625
18	12	13	15	57	20	0.600707330876	0.299560209301	0.478698191024	-1.15771484375	-0.35986328125	0.16943359375	39.625	127.6875	24.375
18	12	13	15	57	20	0.590057372966	0.316727806799	0.4869636621	-1.18408203125	-0.2607421875	0.099609375	37.1875	117.375	17.125
18	12	13	15	57	20	0.580381051133	0.330565124928	0.495237338195	-1.18310546875	-0.22314453125	0.05078125	24.25	103.75	10.0
18	12	13	15	57	20	0.571312811697	0.341750046228	0.505208989574	-1.12841796875	-0.26220703125	0.0546875	8.9375	89.5625	9.6875
18	12	13	15	57	20	0.562998988245	0.351447113434	0.513254389869	-1.03125	-0.30078125	0.072265625	12.375	79.3125	10.875
18	12	13	15	57	20	0.543966123339	0.372816997459	0.519429051797	-0.853515625	-0.24609375	0.12646484375	56.4375	63.5	2.375
18	12	13	15	57	20	0.533883472652	0.383551359568	0.518563391294	-0.82275390625	-0.1845703125	0.1728515625	67.75	55.75	-4.4375
18	12	13	15	57	21	0.523780426693	0.39352201502	0.516577759131	-0.81591796875	-0.14111328125	0.22509765625	71.5	51.5	-10.8125
18	12	13	15	57	21	0.513371974766	0.403080314036	0.513860261034	-0.8271484375	-0.13330078125	0.275390625	75.0	51.0	-14.625
18	12	13	15	57	21	0.502457075319	0.412793634643	0.510330856019	-0.8466796875	-0.1484375	0.3154296875	80.9375	52.0	-14.9375
18	12	13	15	57	21	0.490735808932	0.423168080015	0.505567749425	-0.8564453125	-0.17236328125	0.3193359375	91.0625	51.75	-13.6875
18	12	13	15	57	21	0.477675466737	0.435254760197	0.499892930306	-0.8447265625	-0.19384765625	0.3193359375	103.75	48.4375	-12.5
18	12	13	15	57	21	0.463949503412	0.447896520989	0.492515266811	-0.83154296875	-0.2158203125	0.30810546875	115.1875	44.625	-10.6875
18	12	13	15	57	21	0.450269653711	0.460768010826	0.483717907775	-0.80517578125	-0.22119140625	0.2861328125	121.125	41.0625	-6.6875
18	12	13	15	57	21	0.437826068133	0.472922957743	0.474509947534	-0.77099609375	-0.203125	0.26123046875	114.8125	36.3125	-1.3125
18	12	13	15	57	21	0.42822324809	0.482361506508	0.465820956304	-0.80029296875	-0.17041015625	0.25830078125	94.9375	32.1875	4.25
18	12	13	15	57	21	0.421582880142	0.48988333517	0.458937552597	-0.8974609375	-0.13232421875	0.2646484375	69.0625	28.25	6.625
18	12	13	15	57	21	0.417186313522	0.49513026705	0.454052521769	-1.0029296875	-0.12353515625	0.26953125	46.625	22.9375	4.5625
18	12	13	15	57	21	0.413636306353	0.498536424714	0.450196457969	-1.09716796875	-0.18115234375	0.2587890625	36.875	15.5625	3.1875
18	12	13	15	57	21	0.409233649734	0.501761347422	0.44493859904	-1.173828125	-0.25927734375	0.22021484375	49.0625	5.25	4.625
18	12	13	15	57	21	0.402529899548	0.506290449848	0.435733275644	-1.212890625	-0.31982421875	0.1513671875	81.6875	-8.125	7.8125
18	12	13	15	57	21	0.394659941517	0.512459769405	0.420783426665	-1.232421875	-0.30224609375	0.10302734375	116.5	-23.0625	9.375
18	12	13	15	57	21	0.386181554312	0.518082666825	0.403027786174	-1.2314453125	-0.181640625	0.080078125	131.625	-35.9375	7.875
18	12	13	15	57	21	0.378552338473	0.521745467473	0.385022275248	-1.10498046875	-0.09326171875	0.0546875	126.4375	-47.625	5.4375
18	12	13	15	57	21	0.373407387541	0.521232280091	0.36834154688	-1.03515625	-0.09912109375	0.0107421875	105.6875	-68.0625	1.4375
18	12	13	15	57	21	0.370725073881	0.517025370571	0.354184656525	-1.12109375	-0.09326171875	0.0341796875	80.5625	-92.0625	-4.9375
18	12	13	15	57	21	0.369752551663	0.508486052808	0.341065906024	-1.2607421875	-0.0556640625	0.08447265625	63.625	-103.1875	-12.1875
