18	12	12	16	50	23	-0.0191653881952	-0.707654492788	-0.0848404127113	-1.30078125	0.0634765625	0.10595703125	75.25	24.125	-1.375
18	12	12	16	50	23	-0.0214841421404	-0.707450828265	-0.0702507034193	-1.1982421875	0.19287109375	0.13818359375	49.3125	0.25	48.75
18	12	12	16	50	23	-0.0347290735105	-0.703309515047	-0.0618287371989	-1.19873046875	0.0498046875	0.271484375	-19.3125	-21.9375	78.5625
18	12	12	16	50	23	-0.0496205531614	-0.69719013378	-0.054869467764	-1.40771484375	0.00439453125	0.43359375	-31.875	-26.0	83.6875
18	12	12	16	50	23	-0.0565168264833	-0.691018908687	-0.0419909034779	-1.60498046875	0.0126953125	0.47216796875	25.5	-27.5	77.0625
18	12	12	16	50	23	-0.060178567543	-0.686133322838	-0.0274648634831	-1.47900390625	0.16943359375	0.35595703125	45.25	-26.3125	62.25
18	12	12	16	50	23	-0.0625000208384	-0.681152570855	-0.01525879415	-1.353515625	0.14990234375	0.32177734375	41.0	-28.375	50.75
18	12	12	16	50	23	-0.0639660526173	-0.676099203094	-0.00299077917772	-1.2001953125	0.1435546875	0.27978515625	45.0	-31.8125	48.6875
18	12	12	16	50	23	-0.0681164161149	-0.671337330509	0.00622569394599	-1.1025390625	0.24609375	0.16845703125	20.3125	-34.625	42.1875
18	12	12	16	50	23	-0.0803241985306	-0.666031652254	0.00878927400335	-1.15234375	0.37353515625	0.07373046875	-40.375	-40.9375	44.0
18	12	12	16	50	23	-0.101805627639	-0.655938297501	0.000427241842608	-1.2939453125	0.365234375	-0.02685546875	-123.375	-65.75	53.6875
18	12	12	16	50	23	-0.131346758623	-0.641108899898	-0.0150755805669	-1.28759765625	0.18701171875	0.05908203125	-186.8125	-88.0625	64.0625
18	12	12	16	50	23	-0.160284804732	-0.624659060025	-0.0278331572573	-1.29150390625	-0.126953125	0.107421875	-172.625	-95.625	77.0
18	12	12	16	50	23	-0.181819841949	-0.60997230629	-0.0255731835437	-1.24658203125	-0.259765625	0.10009765625	-78.125	-98.875	101.5625
18	12	12	16	50	23	-0.197569607722	-0.598018849695	-0.0056762352543	-1.10400390625	0.01953125	0.0322265625	21.0625	-101.3125	135.375
18	12	12	16	50	23	-0.214902109659	-0.586357446036	0.018249284518	-0.98876953125	0.22607421875	-0.02587890625	32.9375	-99.625	155.1875
18	12	12	16	50	23	-0.236200584755	-0.571947204066	0.0349113008991	-1.00244140625	0.2080078125	-0.03662109375	-16.75	-102.5625	150.375
18	12	12	16	50	23	-0.25903157137	-0.55407365808	0.0492550608142	-1.00341796875	0.19287109375	-0.01806640625	-36.6875	-118.0625	150.3125
18	12	12	16	50	23	-0.282162851683	-0.53447979498	0.0631707876903	-0.9228515625	0.1806640625	0.03369140625	-41.6875	-123.5625	151.5
18	12	12	16	50	23	-0.304450799038	-0.514599977284	0.0742205636789	-0.88232421875	0.19091796875	0.0908203125	-52.6875	-118.375	140.1875
18	12	12	16	50	23	-0.326243132628	-0.495010627805	0.0839259695723	-0.85986328125	0.23779296875	0.1044921875	-56.125	-111.4375	135.5
18	12	12	16	50	23	-0.347712467858	-0.476372794739	0.0926500835893	-0.80517578125	0.2587890625	0.10498046875	-57.9375	-101.4375	133.5
18	12	12	16	50	23	-0.367743236049	-0.459175496232	0.10003836745	-0.74658203125	0.259765625	0.083984375	-56.75	-90.0625	124.4375
18	12	12	16	50	23	-0.385438265235	-0.444947736114	0.106872906164	-0.64990234375	0.32177734375	0.04638671875	-47.3125	-72.5	112.1875
18	12	12	16	50	23	-0.399593745686	-0.437130045303	0.111327171549	-0.6044921875	0.3740234375	0.03759765625	-44.4375	-52.375	94.5625
18	12	12	16	50	23	-0.411674185671	-0.431205058824	0.111875282778	-0.62158203125	0.3935546875	0.03271484375	-54.625	-38.0	74.1875
18	12	12	16	50	23	-0.42241704789	-0.425834957828	0.107908299475	-0.6337890625	0.421875	0.04345703125	-72.4375	-28.4375	54.25
18	12	12	16	50	23	-0.43164359257	-0.419314406244	0.0986334906099	-0.6396484375	0.42236328125	0.0791015625	-95.75	-25.625	30.4375
18	12	12	16	50	23	-0.440061871634	-0.408934055471	0.0844113132413	-0.6533203125	0.37548828125	0.11083984375	-115.3125	-19.25	5.5625
18	12	12	16	50	23	-0.445617125474	-0.399962884979	0.0656127119414	-0.7060546875	0.2880859375	0.16064453125	-125.0	-5.0625	-19.4375
18	12	12	16	50	23	-0.447796675289	-0.394454124627	0.0447369446622	-0.75830078125	0.1884765625	0.23583984375	-116.3125	15.8125	-39.875
18	12	12	16	50	23	-0.44384892198	-0.397584141609	0.020996153625	-0.83251953125	0.09716796875	0.31787109375	-88.5	44.9375	-58.125
18	12	12	16	50	23	-0.433219172049	-0.40935488686	-0.000366203864792	-0.94921875	0.08837890625	0.43505859375	-37.5625	82.3125	-79.8125
18	12	12	16	50	23	-0.415726533575	-0.429215825003	-0.0166022048352	-1.0751953125	0.115234375	0.4794921875	17.125	128.9375	-110.625
18	12	12	16	50	23	-0.390577171496	-0.457840188059	-0.0320445405587	-1.1044921875	0.0615234375	0.4921875	60.875	175.0625	-137.25
18	12	12	16	50	23	-0.359011946734	-0.492497007514	-0.0454715913493	-1.06884765625	-0.04296875	0.53515625	100.9375	209.5	-153.1875
18	12	12	16	50	23	-0.322137548464	-0.529470108549	-0.0554799226134	-1.052734375	-0.0673828125	0.55224609375	135.6875	222.9375	-162.875
18	12	12	16	50	23	-0.281859630207	-0.565184100416	-0.0643919250474	-1.11328125	-0.02392578125	0.5087890625	147.625	221.625	-173.25
18	12	12	16	50	23	-0.243223617128	-0.593807420588	-0.0767207243991	-1.3134765625	0.03173828125	0.388671875	114.125	191.5	-181.8125
18	12	12	16	50	23	-0.21453702575	-0.610835434908	-0.0952751912362	-1.3671875	-0.01513671875	0.20458984375	37.625	134.5625	-168.5
18	12	12	16	50	23	-0.19805188012	-0.61985050678	-0.120662116178	-1.18408203125	-0.2060546875	0.177734375	-43.8125	100.75	-142.5625
18	12	12	16	50	23	-0.18859554538	-0.627370100635	-0.145261293853	-1.1083984375	-0.45654296875	0.162109375	-67.6875	95.6875	-105.3125
18	12	12	16	50	23	-0.178162915994	-0.634892309753	-0.16681029442	-1.08740234375	-0.51611328125	0.12353515625	-47.4375	92.25	-72.0625
18	12	12	16	50	23	-0.167416780808	-0.641652430419	-0.179196379312	-1.0263671875	-0.39404296875	0.14208984375	-9.0625	75.875	-53.1875
18	12	12	16	50	23	-0.156003794529	-0.646964093118	-0.184628903932	-0.9541015625	-0.24853515625	0.1611328125	21.6875	57.125	-45.875
18	12	12	16	50	23	-0.144710650356	-0.651167409806	-0.185053855706	-0.892578125	-0.1416015625	0.17431640625	42.25	42.375	-37.3125
18	12	12	16	50	23	-0.132812415395	-0.655089914723	-0.180480842061	-0.86962890625	-0.04833984375	0.181640625	65.5	33.5	-30.0
18	12	12	16	50	24	-0.120115449335	-0.658620840333	-0.1724828556	-0.85595703125	0.056640625	0.19384765625	82.875	27.0625	-28.9375
18	12	12	16	50	24	-0.107299655191	-0.6614981018	-0.162963640137	-0.82763671875	0.14599609375	0.20458984375	89.1875	22.625	-30.9375
18	12	12	16	50	24	-0.0944825214839	-0.664002164873	-0.153076333257	-0.833984375	0.19921875	0.23779296875	90.125	22.375	-33.5625
18	12	12	16	50	24	-0.0813013698599	-0.666280595638	-0.143070879093	-0.85546875	0.21435546875	0.26318359375	91.25	24.25	-36.5
18	12	12	16	50	24	-0.0675662446812	-0.668277157194	-0.132874177661	-0.86865234375	0.22265625	0.2841796875	94.0	24.9375	-38.6875
18	12	12	16	50	24	-0.0530395852603	-0.670227486472	-0.122558673421	-0.888671875	0.2236328125	0.29052734375	97.0	26.6875	-42.5625
18	12	12	16	50	24	-0.0380239253243	-0.672346005414	-0.112606969861	-0.89501953125	0.2333984375	0.28857421875	96.75	30.0	-46.3125
18	12	12	16	50	24	-0.0233766272573	-0.674626269126	-0.10363841536	-0.89697265625	0.22802734375	0.27783203125	90.9375	33.0	-48.5
18	12	12	16	50	24	-0.0102538700759	-0.677121634658	-0.0966183114894	-0.89599609375	0.23779296875	0.2587890625	76.5625	35.875	-50.5
18	12	12	16	50	24	0.00122068962378	-0.680229292849	-0.0927724114069	-0.93115234375	0.22216796875	0.2197265625	56.3125	39.875	-55.6875
18	12	12	16	50	24	0.0103758543229	-0.683707765441	-0.0924061379109	-1.0595703125	0.2236328125	0.197265625	32.5625	42.3125	-61.25
18	12	12	16	50	24	0.0155034585291	-0.68685204263	-0.0947908310855	-1.23681640625	0.25341796875	0.171875	5.4375	37.6875	-60.6875
18	12	12	16	50	24	0.0142820103671	-0.689381654258	-0.10076751759	-1.32861328125	0.20654296875	0.10546875	-33.125	26.4375	-47.5625
18	12	12	16	50	24	0.00616446977472	-0.691519233145	-0.109922871924	-1.40478515625	0.04052734375	0.078125	-73.125	19.5625	-21.3125
18	12	12	16	50	24	-0.00683599901359	-0.693121471414	-0.117249590224	-1.623046875	-0.09375	0.0859375	-83.875	13.4375	13.3125
18	12	12	16	50	24	-0.0208134298926	-0.693862378355	-0.120730100667	-1.61669921875	-0.15625	0.068359375	-71.625	3.75	38.125
18	12	12	16	50	24	-0.0364991082148	-0.693360985484	-0.121399207758	-1.5205078125	-0.14892578125	0.09716796875	-66.0625	-6.0625	58.0625
18	12	12	16	50	24	-0.0546881019208	-0.691474895827	-0.117738112283	-1.38427734375	-0.09228515625	0.10302734375	-57.5	-20.3125	84.3125
18	12	12	16	50	24	-0.076843015104	-0.687925038314	-0.112060187237	-1.240234375	0.0458984375	0.1484375	-64.4375	-38.625	107.75
18	12	12	16	50	24	-0.104310682247	-0.681834190394	-0.106630053766	-1.16748046875	0.18408203125	0.11865234375	-87.0625	-56.3125	124.6875
18	12	12	16	50	24	-0.139461534544	-0.672161873056	-0.107113782549	-1.1806640625	0.287109375	0.1025390625	-143.6875	-72.9375	130.4375
18	12	12	16	50	24	-0.180657204418	-0.657995040822	-0.115962394728	-1.2060546875	0.2353515625	0.0830078125	-205.25	-87.375	122.6875
18	12	12	16	50	24	-0.224663713082	-0.639812470589	-0.131038574297	-1.2001953125	0.197265625	0.04541015625	-246.875	-96.625	110.5
18	12	12	16	50	24	-0.268560801923	-0.618056063699	-0.150516122169	-1.23095703125	0.06884765625	-0.005859375	-270.25	-102.875	95.375
18	12	12	16	50	24	-0.3096846049	-0.592392348278	-0.171382414379	-1.2568359375	-0.09130859375	0.00732421875	-271.0	-116.0	78.25
18	12	12	16	50	24	-0.346070046294	-0.564271177775	-0.187561420152	-1.26123046875	-0.20068359375	0.06298828125	-237.9375	-135.75	71.125
18	12	12	16	50	24	-0.377991737919	-0.536256323164	-0.196106483761	-1.1884765625	-0.255859375	0.10986328125	-189.5	-149.125	75.625
18	12	12	16	50	24	-0.404778297549	-0.511588011167	-0.195187122371	-1.08935546875	-0.236328125	0.11572265625	-126.3125	-151.75	85.625
18	12	12	16	50	24	-0.425285414027	-0.492056688847	-0.185238408664	-1.05322265625	-0.19677734375	0.06494140625	-57.125	-147.5625	89.0
18	12	12	16	50	24	-0.441522549571	-0.47631213393	-0.167844485944	-1.0380859375	-0.1259765625	0.0400390625	-4.25	-148.4375	93.875
18	12	12	16	50	24	-0.455017427163	-0.463257179365	-0.146362413191	-0.98681640625	-0.0009765625	0.02001953125	25.875	-144.3125	94.9375
18	12	12	16	50	24	-0.466306953035	-0.4518416719	-0.123900931238	-0.9287109375	0.078125	-0.0087890625	38.9375	-136.75	90.5
18	12	12	16	50	24	-0.476063721664	-0.441457551128	-0.102903004452	-0.87744140625	0.1533203125	-0.02392578125	38.1875	-125.8125	82.0625
18	12	12	16	50	24	-0.485273261508	-0.431014938092	-0.0847137827912	-0.806640625	0.18994140625	-0.04345703125	26.0	-115.375	74.5625
18	12	12	16	50	24	-0.494133426641	-0.420159894886	-0.0696400987892	-0.77978515625	0.20166015625	-0.02490234375	11.625	-106.625	66.75
18	12	12	16	50	24	-0.50074321341	-0.413277949537	-0.0592053774998	-0.73046875	0.1875	0.0009765625	1.875	-96.125	57.4375
18	12	12	16	50	24	-0.506041636864	-0.406859673301	-0.0503539199629	-0.68310546875	0.1455078125	0.03271484375	1.8125	-86.8125	48.8125
18	12	12	16	50	24	-0.509823786612	-0.401731134141	-0.0416257419453	-0.64208984375	0.15966796875	0.08447265625	9.1875	-76.75	41.3125
18	12	12	16	50	24	-0.511342766065	-0.398796088979	-0.0325921505227	-0.62255859375	0.16650390625	0.11572265625	22.1875	-66.125	32.0
18	12	12	16	50	24	-0.510068517752	-0.398679856163	-0.0241087788096	-0.6337890625	0.1796875	0.146484375	35.0625	-51.75	18.4375
18	12	12	16	50	24	-0.505679613293	-0.401369841523	-0.0163575300377	-0.62890625	0.1826171875	0.177734375	48.25	-36.0	2.125
18	12	12	16	50	24	-0.497125194638	-0.407953935047	-0.00927722892388	-0.69970703125	0.1953125	0.2314453125	66.875	-18.4375	-16.875
18	12	12	16	50	24	-0.483640973711	-0.419493237294	-0.00268553796609	-0.787109375	0.24658203125	0.27978515625	90.1875	3.4375	-39.5625
18	12	12	16	50	24	-0.466732578896	-0.433163477498	0.00305173649076	-0.83935546875	0.32177734375	0.3291015625	102.3125	32.25	-66.375
18	12	12	16	50	24	-0.444098341711	-0.450568163621	0.00549324501841	-0.9130859375	0.38232421875	0.38427734375	112.3125	56.875	-101.1875
18	12	12	16	50	24	-0.415464357691	-0.471555402897	0.00280760400379	-1.076171875	0.4873046875	0.416015625	113.25	85.5	-142.4375
18	12	12	16	50	24	-0.383058845355	-0.494936930685	-0.00640872829226	-1.10107421875	0.47119140625	0.41015625	100.75	115.75	-174.125
18	12	12	16	50	24	-0.348881721704	-0.520148711051	-0.0224002085139	-1.0244140625	0.2978515625	0.4443359375	80.6875	149.0	-194.4375
18	12	12	16	50	24	-0.311699932482	-0.547595808544	-0.0410147551651	-1.02197265625	0.10498046875	0.51123046875	84.1875	176.6875	-207.3125
18	12	12	16	50	24	-0.271545076839	-0.576598413329	-0.0591429938093	-1.1767578125	-0.0810546875	0.5341796875	98.3125	194.875	-210.1875
18	12	12	16	50	25	-0.228875895747	-0.604537532634	-0.0734844209279	-1.4130859375	-0.228515625	0.42138671875	120.9375	189.8125	-204.6875
18	12	12	16	50	25	-0.187442393068	-0.625255576224	-0.0858169992358	-1.453125	-0.201171875	0.201171875	115.5625	145.375	-199.75
18	12	12	16	50	25	-0.154720493985	-0.636947958669	-0.100400478345	-1.29052734375	-0.158203125	0.11376953125	65.5	95.125	-179.625
18	12	12	16	50	25	-0.13537430126	-0.643546723392	-0.117430187387	-1.0556640625	-0.275390625	0.0654296875	1.125	69.1875	-132.75
18	12	12	16	50	25	-0.124082464226	-0.648427004395	-0.135251717031	-1.0830078125	-0.3681640625	0.04052734375	-30.6875	55.3125	-83.6875
18	12	12	16	50	25	-0.117921170126	-0.651984440623	-0.148194928088	-1.08056640625	-0.296875	0.0556640625	-30.8125	42.125	-52.375
18	12	12	16	50	25	-0.113829250808	-0.654411381857	-0.15710267645	-1.02001953125	-0.17236328125	0.05908203125	-22.8125	29.4375	-39.875
18	12	12	16	50	25	-0.11218262262	-0.655700715349	-0.163513191512	-0.9697265625	-0.0595703125	0.08154296875	-22.0625	19.4375	-30.3125
18	12	12	16	50	25	-0.112425957661	-0.656855676628	-0.167113068445	-0.931640625	0.0849609375	0.1279296875	-18.3125	17.9375	-22.5
18	12	12	16	50	25	-0.113953479162	-0.658391097866	-0.169251739537	-0.90673828125	0.19921875	0.1494140625	-17.9375	19.5625	-18.75
18	12	12	16	50	25	-0.118472228421	-0.659623581939	-0.172733851845	-0.890625	0.291015625	0.20458984375	-36.3125	22.75	-17.9375
18	12	12	16	50	25	-0.124143694476	-0.660451778723	-0.178586258621	-0.8955078125	0.29150390625	0.2861328125	-51.4375	29.5	-21.8125
18	12	12	16	50	25	-0.127560918579	-0.661119555045	-0.185360052499	-0.8857421875	0.20556640625	0.369140625	-46.9375	37.125	-29.5625
18	12	12	16	50	25	-0.126524533236	-0.662407505649	-0.190549731193	-0.8525390625	0.158203125	0.40966796875	-22.1875	44.75	-38.3125
18	12	12	16	50	25	-0.119993719391	-0.664787177826	-0.193540225935	-0.82421875	0.158203125	0.41552734375	8.25	52.9375	-51.5
18	12	12	16	50	25	-0.109558113019	-0.668151901516	-0.195495618942	-0.8212890625	0.19189453125	0.39111328125	28.0	59.5	-65.8125
18	12	12	16	50	25	-0.0974745855881	-0.672007005213	-0.197695793813	-0.82861328125	0.22998046875	0.3466796875	33.0625	63.4375	-76.25
18	12	12	16	50	25	-0.0869123732265	-0.675462945574	-0.201351066906	-0.853515625	0.2490234375	0.2900390625	21.0	59.25	-78.25
18	12	12	16	50	25	-0.0791031390652	-0.678114101092	-0.208011958283	-0.8935546875	0.1875	0.2509765625	-2.75	54.375	-77.125
18	12	12	16	50	25	-0.0740357412008	-0.679688387479	-0.21551541812	-1.0	0.13623046875	0.24658203125	-16.8125	46.6875	-69.5625
18	12	12	16	50	25	-0.0725082673162	-0.680222760302	-0.221797174602	-1.20458984375	0.0859375	0.2001953125	-24.625	31.1875	-52.75
18	12	12	16	50	25	-0.0759853419447	-0.679168582458	-0.22710157219	-1.32568359375	-0.01025390625	0.1142578125	-38.375	8.0625	-27.1875
18	12	12	16	50	25	-0.0820324135595	-0.67536358336	-0.231692739488	-1.30224609375	-0.2958984375	0.07958984375	-43.0625	-19.5	1.375
18	12	12	16	50	25	-0.0895398532712	-0.67084698521	-0.232486231159	-1.384765625	-0.4853515625	0.1630859375	-33.0	-27.8125	32.9375
18	12	12	16	50	25	-0.0946020411377	-0.668866947631	-0.220697406938	-1.5107421875	-0.439453125	0.095703125	32.375	-34.25	71.4375
18	12	12	16	50	25	-0.097288709502	-0.668386861829	-0.198971890198	-1.5458984375	-0.1953125	0.0224609375	85.4375	-43.5625	86.875
18	12	12	16	50	25	-0.104614933201	-0.66595888924	-0.176209633694	-1.39306640625	0.064453125	0.02392578125	71.625	-59.25	106.1875
18	12	12	16	50	25	-0.118224954739	-0.661742364111	-0.154174618313	-1.27294921875	0.0849609375	0.060546875	42.6875	-71.125	128.9375
18	12	12	16	50	25	-0.136899654875	-0.65611738293	-0.132505194264	-1.16259765625	0.13671875	0.123046875	20.3125	-77.6875	147.75
18	12	12	16	50	25	-0.160337115003	-0.649466022365	-0.114866558979	-1.15234375	0.22216796875	0.0908203125	-16.625	-76.125	153.125
18	12	12	16	50	25	-0.187930297832	-0.63965882471	-0.105226318111	-1.2294921875	0.26806640625	0.16650390625	-69.5625	-82.0625	139.5
18	12	12	16	50	25	-0.218197518382	-0.625051968043	-0.102964814968	-1.38427734375	0.12841796875	0.13818359375	-114.4375	-101.125	123.4375
18	12	12	16	50	25	-0.248466669116	-0.610211190817	-0.0996063876189	-1.31640625	0.0712890625	0.06787109375	-110.8125	-101.4375	130.1875
18	12	12	16	50	25	-0.276550483562	-0.595642500348	-0.0927735014375	-1.32421875	0.0361328125	0.08544921875	-88.1875	-102.5625	135.5625
18	12	12	16	50	25	-0.302733914869	-0.581786225108	-0.083740107097	-1.22998046875	-0.02001953125	0.08251953125	-71.25	-99.0	138.0625
18	12	12	16	50	25	-0.326725184279	-0.568488392746	-0.0725716876718	-1.13916015625	-0.08203125	0.08935546875	-53.5	-97.8125	138.375
18	12	12	16	50	25	-0.349492679878	-0.556832294538	-0.0546273050106	-1.0908203125	-0.06591796875	0.0712890625	-18.0	-99.0625	158.5625
18	12	12	16	50	25	-0.370476660689	-0.546376781958	-0.0317377040458	-1.03515625	-0.0693359375	0.09375	11.375	-100.125	169.6875
18	12	12	16	50	25	-0.388609632477	-0.537168741234	-0.00628660156199	-0.95849609375	0.033203125	0.0654296875	33.25	-97.0625	166.125
18	12	12	16	50	25	-0.407150785512	-0.528118085299	0.0184929827627	-0.89501953125	0.26416015625	0.0439453125	27.625	-90.0625	167.25
18	12	12	16	50	25	-0.428220265782	-0.516232469782	0.0371091678443	-0.89599609375	0.29296875	0.02783203125	-13.875	-86.3125	161.1875
18	12	12	16	50	25	-0.450373292407	-0.501092930026	0.050536534234	-0.8828125	0.1572265625	0.0283203125	-45.875	-89.25	151.9375
18	12	12	16	50	25	-0.469962753922	-0.486808172115	0.0634754888415	-0.841796875	0.115234375	0.04443359375	-37.9375	-84.375	140.125
18	12	12	16	50	25	-0.48653090431	-0.473957153678	0.0757476919142	-0.78515625	0.1865234375	0.0546875	-28.9375	-78.0	124.0625
18	12	12	16	50	25	-0.501590279367	-0.461978197193	0.0862432544106	-0.72998046875	0.27783203125	0.02392578125	-31.5	-69.75	111.4375
18	12	12	16	50	25	-0.512820530215	-0.45294467445	0.0915532962774	-0.7197265625	0.2841796875	0.03759765625	-41.4375	-67.0625	92.25
18	12	12	16	50	25	-0.52032181696	-0.444638643584	0.0957025934302	-0.69970703125	0.23876953125	0.00146484375	-36.3125	-69.3125	68.75
18	12	12	16	50	25	-0.525033214713	-0.436530754665	0.0965592357215	-0.57861328125	0.2587890625	0.03173828125	-42.8125	-60.125	36.5
18	12	12	16	50	25	-0.526420716714	-0.427301036257	0.089293160412	-0.5732421875	0.33837890625	0.1083984375	-74.9375	-49.75	-12.875
18	12	12	16	50	25	-0.527402107242	-0.414670746048	0.0739742337666	-0.62109375	0.31787109375	0.0966796875	-111.25	-32.375	-48.8125
18	12	12	16	50	26	-0.528629451509	-0.405093369087	0.0536503045695	-0.619140625	0.33447265625	0.1494140625	-122.9375	1.1875	-55.4375
18	12	12	16	50	26	-0.526306608194	-0.401184429509	0.030395534139	-0.6962890625	0.23193359375	0.2109375	-108.5	35.4375	-74.5
18	12	12	16	50	26	-0.516957773725	-0.405753870098	0.00646960141852	-0.8642578125	0.27783203125	0.35205078125	-69.0	73.0	-106.4375
18	12	12	16	50	26	-0.499262861443	-0.417964801365	-0.0170896822988	-1.00634765625	0.37841796875	0.39599609375	-26.3125	103.625	-144.0
18	12	12	16	50	26	-0.475642912347	-0.434688672107	-0.0436397641894	-1.0810546875	0.4013671875	0.4638671875	-12.25	133.8125	-176.625
18	12	12	16	50	26	-0.448302087855	-0.45440558803	-0.0736692471125	-1.02734375	0.3251953125	0.5283203125	-9.375	164.75	-196.4375
18	12	12	16	50	26	-0.416561106899	-0.479182600771	-0.103392602943	-0.97265625	0.21875	0.5576171875	15.5625	199.75	-203.9375
18	12	12	16	50	26	-0.3803653501	-0.509208619365	-0.129819817019	-0.947265625	0.0615234375	0.4892578125	53.625	228.875	-200.8125
18	12	12	16	50	26	-0.339590962698	-0.541429085207	-0.150447829448	-1.134765625	-0.1279296875	0.42919921875	96.4375	235.4375	-194.75
18	12	12	16	50	26	-0.295283398805	-0.570852755069	-0.162961280448	-1.34912109375	-0.23974609375	0.2119140625	137.5625	204.125	-188.5625
18	12	12	16	50	26	-0.252008179109	-0.593308672589	-0.17065024674	-1.35986328125	-0.27734375	0.0009765625	144.75	155.0625	-178.625
18	12	12	16	50	26	-0.216365522251	-0.609668604165	-0.1787075456	-1.23876953125	-0.35009765625	-0.03955078125	107.8125	124.75	-152.1875
18	12	12	16	50	26	-0.190671253284	-0.624442251072	-0.188412982999	-1.080078125	-0.5107421875	-0.01171875	60.3125	124.875	-110.625
18	12	12	16	50	26	-0.171874985273	-0.6370238712	-0.195861799624	-1.14111328125	-0.49365234375	0.08935546875	41.75	109.75	-76.0
18	12	12	16	50	26	-0.156189083832	-0.644409670613	-0.202087556299	-1.11865234375	-0.41064453125	0.20361328125	35.0625	78.8125	-53.5
18	12	12	16	50	26	-0.146728779637	-0.650452830527	-0.204773317671	-1.09033203125	-0.05224609375	0.13330078125	23.5	57.875	-42.5625
18	12	12	16	50	26	-0.144654609859	-0.651556101369	-0.211976987359	-0.935546875	-0.0693359375	0.09521484375	-24.5	25.5	-34.5625
18	12	12	16	50	26	-0.144344153062	-0.65141020957	-0.215570210831	-0.94873046875	0.05078125	0.22314453125	-16.6875	17.625	-25.625
18	12	12	16	50	26	-0.146664968829	-0.651783271797	-0.217281435303	-0.9462890625	0.1240234375	0.2197265625	-19.5	16.5	-12.0
18	12	12	16	50	26	-0.151124386497	-0.652227461271	-0.217226046665	-0.876953125	0.23681640625	0.2666015625	-20.6875	16.3125	-3.625
18	12	12	16	50	26	-0.155331355187	-0.653673404343	-0.215754947185	-0.92333984375	0.2705078125	0.2255859375	-13.5625	18.375	0.75
18	12	12	16	50	26	-0.161680510516	-0.654107222046	-0.214353323115	-0.85498046875	0.2587890625	0.2802734375	-22.125	14.25	8.8125
18	12	12	16	50	26	-0.167049243673	-0.65580713309	-0.213312790149	-0.81103515625	0.3642578125	0.30419921875	-20.6875	26.9375	0.25
18	12	12	16	50	26	-0.169186775445	-0.660512007165	-0.212765187302	-0.77685546875	0.39794921875	0.1611328125	-9.25	43.0625	-11.125
18	12	12	16	50	26	-0.175351885146	-0.666312749787	-0.216977358752	-0.75537109375	0.5205078125	0.06396484375	-46.125	54.8125	-16.0625
18	12	12	16	50	26	-0.187560064992	-0.666622528423	-0.236937250992	-0.8046875	0.29248046875	0.33154296875	-138.375	50.125	-23.3125
18	12	12	16	50	26	-0.195432220936	-0.662345553278	-0.264218015125	-0.94384765625	-0.3720703125	0.52734375	-153.1875	42.25	-66.3125
18	12	12	16	50	26	-0.181270126736	-0.660506838902	-0.278252696226	-0.81494140625	-0.47509765625	0.55322265625	-7.875	70.0	-85.375
18	12	12	16	50	26	-0.159548207853	-0.667673238602	-0.276004971657	-1.0947265625	-0.2490234375	0.28466796875	93.6875	85.375	-57.75
18	12	12	16	50	26	-0.138552898266	-0.67579633903	-0.268804829939	-1.251953125	0.10205078125	0.16650390625	114.0625	64.1875	-45.5
18	12	12	16	50	26	-0.128481554317	-0.678907519559	-0.260808399809	-1.43017578125	0.02294921875	0.10693359375	74.125	26.9375	-24.25
18	12	12	16	50	26	-0.126888504255	-0.678203491718	-0.255058710573	-1.43017578125	-0.12841796875	0.1181640625	30.75	-3.5	4.125
18	12	12	16	50	26	-0.131410237387	-0.677559240701	-0.245791465841	-1.55078125	-0.11572265625	0.060546875	21.6875	-19.875	41.1875
18	12	12	16	50	26	-0.142578105348	-0.675353910818	-0.236328092426	-1.5771484375	0.00830078125	0.04443359375	-4.0625	-38.125	59.375
18	12	12	16	50	26	-0.163757261384	-0.670348863878	-0.230590731834	-1.46435546875	0.13916015625	0.01025390625	-60.1875	-60.375	76.625
18	12	12	16	50	26	-0.189205743167	-0.662281135195	-0.229732392671	-1.38037109375	0.041015625	0.03662109375	-100.1875	-71.9375	88.75
18	12	12	16	50	26	-0.216489864064	-0.65117856208	-0.22912403431	-1.30224609375	0.02587890625	0.158203125	-109.625	-89.25	91.0
18	12	12	16	50	26	-0.247006182832	-0.63780939229	-0.229977587574	-1.18408203125	0.11376953125	0.12109375	-131.5	-99.125	95.4375
18	12	12	16	50	26	-0.278261067045	-0.623050882298	-0.232118192141	-1.15869140625	0.07861328125	0.109375	-142.8125	-100.1875	94.875
18	12	12	16	50	26	-0.308536940604	-0.60663672654	-0.234744426026	-1.23779296875	0.13232421875	0.13330078125	-143.75	-105.625	86.5625
18	12	12	16	50	26	-0.338924395762	-0.587700883629	-0.239743386738	-1.265625	0.06201171875	0.1259765625	-158.75	-110.9375	77.5625
18	12	12	16	50	26	-0.366213019351	-0.568484677039	-0.243409586862	-1.287109375	-0.02783203125	0.07568359375	-142.4375	-113.75	70.5
18	12	12	16	50	26	-0.389401872871	-0.549618160691	-0.242735305393	-1.30126953125	-0.052734375	0.08935546875	-108.25	-122.5625	65.4375
18	12	12	16	50	26	-0.409360876063	-0.530759233375	-0.236632192709	-1.2646484375	-0.06689453125	0.10791015625	-72.8125	-139.1875	64.4375
18	12	12	16	50	26	-0.427346662385	-0.512181261174	-0.22728348625	-1.146484375	-0.044921875	0.0654296875	-51.6875	-146.0	64.375
18	12	12	16	50	26	-0.444516526755	-0.494443001956	-0.217650135165	-1.05224609375	-0.017578125	0.0439453125	-48.0625	-139.5625	65.3125
18	12	12	16	50	26	-0.460180528203	-0.478062874988	-0.205799567785	-1.00927734375	-0.06982421875	0.0654296875	-30.875	-137.5	68.875
18	12	12	16	50	26	-0.475095666036	-0.462766616121	-0.190795099182	-0.95703125	0.005859375	0.015625	-14.3125	-140.4375	75.4375
18	12	12	16	50	26	-0.489433889262	-0.447686441918	-0.174802177185	-0.93896484375	0.060546875	0.00244140625	-8.8125	-140.8125	76.875
18	12	12	16	50	26	-0.503786657944	-0.43255828021	-0.159973931484	-0.90087890625	0.10205078125	0.046875	-15.4375	-134.5	76.5
18	12	12	16	50	27	-0.516528862854	-0.41863068301	-0.14580969554	-0.859375	0.1103515625	0.00439453125	-11.5625	-125.25	71.3125
18	12	12	16	50	27	-0.528564404883	-0.404052697497	-0.134033190892	-0.8544921875	0.09912109375	0.01318359375	-22.25	-119.75	63.3125
18	12	12	16	50	27	-0.539671217084	-0.389708292364	-0.123473747134	-0.79052734375	0.0908203125	0.07470703125	-23.9375	-112.75	57.625
18	12	12	16	50	27	-0.548266551976	-0.377188833487	-0.113217683838	-0.75244140625	0.0712890625	0.08251953125	-14.0625	-102.5625	46.9375
18	12	12	16	50	27	-0.554148288744	-0.370307045689	-0.10437202046	-0.75244140625	0.1650390625	0.11474609375	-2.75	-93.5	44.0625
18	12	12	16	50	27	-0.557611323414	-0.365047430532	-0.0960683256408	-0.7734375	0.06640625	0.072265625	9.8125	-88.3125	36.6875
18	12	12	16	50	27	-0.558774822792	-0.363035788745	-0.0865475367251	-0.74755859375	0.0849609375	0.09814453125	29.8125	-75.5625	29.875
18	12	12	16	50	27	-0.556022900528	-0.365900909842	-0.0776967236413	-0.73046875	0.09326171875	0.10302734375	50.5625	-50.5	13.5625
18	12	12	16	50	27	-0.549988232451	-0.373291313913	-0.0711060138503	-0.75732421875	0.1494140625	0.1572265625	60.9375	-20.8125	-4.4375
18	12	12	16	50	27	-0.540902121602	-0.383734105	-0.0664073017719	-0.8505859375	0.18359375	0.20361328125	68.5	-2.8125	-19.5
18	12	12	16	50	27	-0.529166831824	-0.395623922017	-0.0632314691776	-0.9404296875	0.1826171875	0.287109375	74.625	8.3125	-34.0
18	12	12	16	50	27	-0.512155655073	-0.411445747926	-0.060731125825	-1.048828125	0.20556640625	0.39794921875	98.0625	28.625	-58.125
18	12	12	16	50	27	-0.489501762566	-0.430908035376	-0.0581664812625	-1.0888671875	0.267578125	0.47802734375	122.9375	68.0	-94.875
18	12	12	16	50	27	-0.46155272012	-0.454289459912	-0.0593267976668	-1.08349609375	0.39404296875	0.48681640625	129.4375	100.0	-126.0
18	12	12	16	50	27	-0.431960125911	-0.476028970183	-0.067812307459	-1.01123046875	0.28759765625	0.5341796875	99.125	116.25	-151.0
18	12	12	16	50	27	-0.401290128592	-0.497721824893	-0.0800749275609	-0.859375	0.09814453125	0.619140625	86.4375	134.0	-160.9375
18	12	12	16	50	27	-0.366215758827	-0.522223672087	-0.093018802742	-0.736328125	-0.04541015625	0.65185546875	103.1875	157.875	-175.4375
18	12	12	16	50	27	-0.327083482514	-0.549126719944	-0.107054381103	-0.919921875	-0.01318359375	0.50927734375	112.3125	179.0	-189.625
18	12	12	16	50	27	-0.29040377185	-0.570919899513	-0.124266935579	-1.263671875	0.0341796875	0.3134765625	79.375	160.0625	-191.625
18	12	12	16	50	27	-0.261902424281	-0.582276655241	-0.146301587276	-1.25634765625	-0.03515625	0.16748046875	15.375	110.125	-181.875
18	12	12	16	50	27	-0.240470821519	-0.587444583026	-0.170892969607	-1.1748046875	-0.279296875	0.21240234375	-27.6875	82.625	-162.5
18	12	12	16	50	27	-0.222101781473	-0.592637619705	-0.19134077629	-1.05810546875	-0.5390625	0.22705078125	-20.6875	79.5625	-129.75
18	12	12	16	50	27	-0.20019706773	-0.597356311546	-0.204591637509	-1.03369140625	-0.58154296875	0.25439453125	30.0625	67.125	-97.5625
18	12	12	16	50	27	-0.176758720872	-0.602053875236	-0.204590895153	-1.02880859375	-0.4296875	0.28466796875	92.3125	45.625	-74.75
18	12	12	16	50	27	-0.154785705771	-0.607851279092	-0.19421455669	-0.984375	-0.1328125	0.23193359375	129.8125	30.9375	-54.625
18	12	12	16	50	27	-0.134767051572	-0.611700811077	-0.181398404562	-0.97607421875	0.00341796875	0.21875	132.3125	14.375	-42.9375
18	12	12	16	50	27	-0.117432077438	-0.613466637386	-0.169739400912	-0.9326171875	0.11376953125	0.22607421875	116.0	3.0	-39.6875
18	12	12	16	50	27	-0.103697244567	-0.614126942223	-0.158689132357	-0.88037109375	0.1943359375	0.24169921875	96.3125	0.1875	-43.5
18	12	12	16	50	27	-0.0909413051509	-0.615043981212	-0.150022636283	-0.87646484375	0.17626953125	0.21630859375	81.4375	4.0625	-45.625
18	12	12	16	50	27	-0.0795289996872	-0.616090347539	-0.14257846759	-0.8564453125	0.18994140625	0.234375	70.375	8.4375	-44.3125
18	12	12	16	50	27	-0.0681150677894	-0.618650830747	-0.135253575467	-0.84521484375	0.2353515625	0.21337890625	69.0	19.1875	-46.1875
18	12	12	16	50	27	-0.057557968511	-0.621906830497	-0.130558318818	-0.8759765625	0.24462890625	0.20703125	53.3125	26.5	-51.75
18	12	12	16	50	27	-0.047789624561	-0.625781635535	-0.128781746901	-0.89111328125	0.19140625	0.20751953125	37.75	34.5	-54.625
18	12	12	16	50	27	-0.0385132183142	-0.630310626832	-0.127502556352	-0.87255859375	0.1884765625	0.22265625	33.25	41.75	-53.875
18	12	12	16	50	27	-0.0305184405331	-0.63490563685	-0.127200860142	-0.8330078125	0.203125	0.2314453125	23.875	44.6875	-52.8125
18	12	12	16	50	27	-0.0239260589854	-0.639777934401	-0.129396033288	-0.8447265625	0.16064453125	0.2431640625	7.4375	49.625	-53.25
18	12	12	16	50	27	-0.0185549270801	-0.645638219254	-0.132447999223	-0.91455078125	0.14990234375	0.2548828125	-1.4375	58.6875	-50.875
18	12	12	16	50	27	-0.013671770744	-0.651789463282	-0.134398389189	-1.01708984375	0.0869140625	0.1943359375	2.625	56.1875	-42.375
18	12	12	16	50	27	-0.0110471480488	-0.65642031638	-0.134457829566	-1.134765625	0.1015625	0.19970703125	3.3125	42.5	-29.375
18	12	12	16	50	27	-0.0119018690805	-0.659790793642	-0.133606109832	-1.17724609375	0.06201171875	0.189453125	-4.5	29.875	-10.0625
18	12	12	16	50	27	-0.016418802035	-0.662672615961	-0.132265962861	-1.1337890625	-0.08984375	0.17626953125	-14.6875	22.875	19.0
18	12	12	16	50	27	-0.0234989835432	-0.66560107932	-0.127626946984	-1.1943359375	-0.14794921875	0.21875	-10.25	22.5	47.0
18	12	12	16	50	27	-0.031432075179	-0.668801320022	-0.117427791543	-1.4326171875	-0.05126953125	0.220703125	10.0625	19.5625	65.0625
18	12	12	16	50	27	-0.0399785193423	-0.671394981321	-0.105714191604	-1.52099609375	0.091796875	0.19384765625	14.0625	12.375	65.3125
18	12	12	16	50	27	-0.0530386961362	-0.672535549741	-0.0971664030481	-1.4580078125	0.21484375	0.18505859375	-16.6875	2.8125	65.6875
18	12	12	16	50	27	-0.0722045759911	-0.671996941388	-0.0929565251348	-1.3544921875	0.22412109375	0.1708984375	-58.5	-8.0	76.75
18	12	12	16	50	27	-0.0969872806277	-0.669633389406	-0.092592639844	-1.20947265625	0.17333984375	0.1728515625	-96.3125	-16.0	91.5
18	12	12	16	50	27	-0.125184175274	-0.666204423753	-0.0964974066839	-1.11474609375	0.1572265625	0.1787109375	-127.6875	-19.5	100.125
18	12	12	16	50	27	-0.157347240972	-0.660760756696	-0.104125055507	-1.1416015625	0.21044921875	0.14599609375	-160.1875	-26.0	101.0625
18	12	12	16	50	28	-0.193416443306	-0.651842099876	-0.117490266129	-1.22705078125	0.25048828125	0.08935546875	-202.4375	-37.4375	94.3125
18	12	12	16	50	28	-0.233884184627	-0.638237713634	-0.136839337665	-1.3232421875	0.19677734375	0.0244140625	-249.0625	-53.5	89.1875
18	12	12	16	50	28	-0.277219709257	-0.619380363176	-0.159300625531	-1.37060546875	0.06494140625	-0.02587890625	-280.0625	-73.625	88.5625
18	12	12	16	50	28	-0.321041501411	-0.596185054331	-0.181028344712	-1.353515625	-0.064453125	-0.0576171875	-285.375	-93.375	92.5625
18	12	12	16	50	28	-0.363216996536	-0.570429515985	-0.199216984825	-1.26953125	-0.177734375	-0.06005859375	-269.6875	-108.375	96.9375
18	12	12	16	50	28	-0.401973933921	-0.544245607162	-0.211729058119	-1.1650390625	-0.24072265625	-0.0185546875	-235.4375	-118.4375	102.125
18	12	12	16	50	28	-0.435980462648	-0.519599842997	-0.216983136597	-1.0869140625	-0.25830078125	0.00439453125	-186.5	-125.5625	105.8125
18	12	12	16	50	28	-0.464889325209	-0.497786180439	-0.214714539331	-1.0166015625	-0.2490234375	0.04052734375	-132.25	-129.625	108.0625
18	12	12	16	50	28	-0.489064433406	-0.479421081293	-0.205562088071	-0.97412109375	-0.18603515625	0.07177734375	-80.5625	-131.8125	108.6875
18	12	12	16	50	28	-0.508651943304	-0.464952064325	-0.190301986948	-0.94091796875	-0.08642578125	0.07763671875	-32.25	-131.1875	107.625
18	12	12	16	50	28	-0.52445564844	-0.45365749271	-0.171014165824	-0.908203125	0.01611328125	0.07763671875	3.125	-127.8125	104.0
18	12	12	16	50	28	-0.537713231427	-0.444269535932	-0.15014467075	-0.86865234375	0.1025390625	0.0693359375	21.1875	-122.875	98.3125
18	12	12	16	50	28	-0.549196260124	-0.435731507116	-0.129578090714	-0.828125	0.16162109375	0.07080078125	26.4375	-116.5	91.625
18	12	12	16	50	28	-0.559276976157	-0.427499284187	-0.110414935051	-0.7861328125	0.17529296875	0.06982421875	24.6875	-109.125	83.1875
18	12	12	16	50	28	-0.567927712409	-0.419552401408	-0.093199958823	-0.72998046875	0.1650390625	0.0703125	21.5	-100.75	73.1875
18	12	12	16	50	28	-0.573316449634	-0.415170711211	-0.0795916800088	-0.68701171875	0.15869140625	0.0908203125	22.625	-91.0	62.0
18	12	12	16	50	28	-0.576648324183	-0.412222987037	-0.0675034977293	-0.66015625	0.17578125	0.119140625	26.5	-78.4375	49.0625
18	12	12	16	50	28	-0.577522637863	-0.411138500174	-0.0573738405825	-0.646484375	0.19482421875	0.1396484375	30.1875	-63.375	33.0625
18	12	12	16	50	28	-0.57574432756	-0.411620878306	-0.0496825911835	-0.62109375	0.1845703125	0.1611328125	33.4375	-48.5625	14.4375
18	12	12	16	50	28	-0.570965675525	-0.414110326931	-0.0432725455849	-0.58935546875	0.166015625	0.2041015625	44.25	-34.125	-3.625
18	12	12	16	50	28	-0.562244808769	-0.420768097227	-0.037718985217	-0.6103515625	0.19140625	0.25244140625	64.4375	-13.4375	-22.625
18	12	12	16	50	28	-0.548931234043	-0.432724310581	-0.0339954077565	-0.66357421875	0.25537109375	0.28466796875	83.75	15.4375	-45.8125
18	12	12	16	50	28	-0.530823858326	-0.449219684636	-0.0337525116309	-0.7119140625	0.310546875	0.3349609375	95.4375	47.875	-74.9375
18	12	12	16	50	28	-0.507447607611	-0.468995359259	-0.0369263654805	-0.83251953125	0.39794921875	0.421875	107.5	82.125	-111.875
18	12	12	16	50	28	-0.476509760132	-0.49280643055	-0.0465706349405	-0.98046875	0.50537109375	0.44287109375	112.0	117.875	-162.25
18	12	12	16	50	28	-0.440056611886	-0.517997290579	-0.0647572905979	-1.1083984375	0.48779296875	0.4326171875	95.8125	150.375	-208.0625
18	12	12	16	50	28	-0.400518342751	-0.542976406143	-0.0906384850632	-1.16943359375	0.37255859375	0.4482421875	72.375	178.125	-237.3125
18	12	12	16	50	28	-0.359622718979	-0.56696120784	-0.120667704586	-1.16796875	0.20166015625	0.44091796875	56.5625	195.375	-248.875
18	12	12	16	50	28	-0.316527232543	-0.588743093928	-0.150756317852	-1.2314453125	-0.09912109375	0.41845703125	58.5	193.6875	-252.75
18	12	12	16	50	28	-0.27166720317	-0.607116079518	-0.176696596984	-1.33544921875	-0.25048828125	0.2802734375	75.375	172.1875	-248.125
18	12	12	16	50	28	-0.229917988236	-0.618770524219	-0.200010949681	-1.39404296875	-0.123046875	0.0947265625	65.1875	130.125	-239.0
18	12	12	16	50	28	-0.20239149807	-0.621578714217	-0.227537848252	-1.25048828125	-0.02392578125	0.0234375	-15.4375	85.5	-206.9375
18	12	12	16	50	28	-0.195493421764	-0.619866122834	-0.258664102852	-1.0390625	-0.169921875	-0.02783203125	-115.3125	61.125	-133.0625
18	12	12	16	50	28	-0.203981270717	-0.617498059796	-0.287417056794	-1.13232421875	-0.3330078125	-0.03466796875	-167.0625	48.5625	-55.25
18	12	12	16	50	28	-0.217039808888	-0.615353023962	-0.309202382403	-1.23095703125	-0.4140625	-0.04638671875	-154.8125	33.5625	-11.1875
18	12	12	16	50	28	-0.226801208403	-0.613205527672	-0.323539614033	-1.1552734375	-0.42578125	0.02734375	-107.75	19.4375	-1.875
18	12	12	16	50	28	-0.230037804022	-0.61156242937	-0.331964875583	-1.03125	-0.32373046875	0.10498046875	-53.625	16.3125	-5.1875
18	12	12	16	50	28	-0.231327130054	-0.611948761456	-0.33106025156	-0.9560546875	-0.05712890625	0.15673828125	-2.875	7.875	2.125
18	12	12	16	50	28	-0.233695434729	-0.611672929448	-0.325794262362	-0.88134765625	0.02783203125	0.26025390625	12.5625	-3.9375	12.5625
18	12	12	16	50	28	-0.236202798991	-0.610465218478	-0.317134300661	-0.85546875	0.00732421875	0.35595703125	27.625	-14.5	23.0625
18	12	12	16	50	28	-0.23394517119	-0.611260341629	-0.301205170838	-0.796875	0.0	0.3974609375	80.8125	-15.75	31.5625
18	12	12	16	50	28	-0.225520939481	-0.616627348193	-0.281367126118	-0.7373046875	0.134765625	0.33056640625	125.625	-8.25	33.0
18	12	12	16	50	28	-0.215882300262	-0.622439270023	-0.263489932211	-0.69775390625	0.3134765625	0.2646484375	120.125	2.25	20.8125
18	12	12	16	50	28	-0.210817291774	-0.626592448567	-0.248476315811	-0.7177734375	0.42138671875	0.25	84.3125	7.1875	1.8125
18	12	12	16	50	28	-0.209528997193	-0.62797665369	-0.241510702561	-0.74169921875	0.38916015625	0.25634765625	32.9375	6.625	-11.125
18	12	12	16	50	28	-0.21141885642	-0.626444325143	-0.242606799732	-0.73095703125	0.20361328125	0.26953125	-15.5625	4.5	-17.3125
18	12	12	16	50	28	-0.21251629826	-0.62381650905	-0.24748810725	-0.7744140625	0.0341796875	0.30322265625	-28.625	8.125	-24.3125
18	12	12	16	50	28	-0.21032226095	-0.622299992061	-0.250848662943	-0.888671875	-0.04052734375	0.3515625	-8.5	16.375	-27.375
18	12	12	16	50	28	-0.204894253952	-0.622434197738	-0.251158729524	-1.03515625	-0.07470703125	0.3427734375	18.1875	20.6875	-26.8125
18	12	12	16	50	28	-0.1988502686	-0.622856657785	-0.249081628655	-1.244140625	-0.064453125	0.33251953125	31.4375	14.875	-24.0
18	12	12	16	50	28	-0.193845459902	-0.623344988029	-0.24493130686	-1.3798828125	-0.02197265625	0.27099609375	36.875	5.3125	-17.0
18	12	12	16	50	29	-0.19116093116	-0.623043034891	-0.241331520372	-1.41748046875	-0.1220703125	0.22021484375	26.1875	-4.875	-3.375
18	12	12	16	50	29	-0.191402768658	-0.622547270509	-0.236384860655	-1.61328125	-0.18896484375	0.23681640625	21.625	-11.25	17.0
18	12	12	16	50	29	-0.192507198488	-0.622566082619	-0.228335266184	-1.708984375	-0.18212890625	0.18798828125	32.8125	-19.8125	32.625
18	12	12	16	50	29	-0.19701721689	-0.620958229443	-0.220881446074	-1.57421875	-0.138671875	0.166015625	16.375	-32.625	41.6875
18	12	12	16	50	29	-0.206847679879	-0.616087483241	-0.215575687617	-1.3701171875	-0.16748046875	0.2275390625	-13.5	-47.875	56.125
18	12	12	16	50	29	-0.221807080047	-0.608962365887	-0.210271158713	-1.21630859375	-0.13232421875	0.259765625	-34.6875	-62.125	74.5625
18	12	12	16	50	29	-0.244311325703	-0.600006156131	-0.207203834815	-1.22705078125	0.02978515625	0.29541015625	-76.25	-68.875	89.8125
18	12	12	16	50	29	-0.275630191258	-0.587087424648	-0.212520887059	-1.26513671875	0.193359375	0.27685546875	-151.5625	-76.9375	98.125
18	12	12	16	50	29	-0.31647196857	-0.56775742558	-0.22760346592	-1.26708984375	0.23779296875	0.25	-239.375	-88.75	102.6875
18	12	12	16	50	29	-0.362182937631	-0.54168749098	-0.251342995815	-1.26953125	0.14306640625	0.2197265625	-307.875	-97.5625	94.25
18	12	12	16	50	29	-0.407773121038	-0.510921837481	-0.278440499652	-1.3203125	0.0361328125	0.244140625	-334.375	-101.6875	83.8125
18	12	12	16	50	29	-0.449041115485	-0.47925388593	-0.303409458349	-1.32958984375	-0.05029296875	0.2861328125	-316.75	-100.0	75.125
18	12	12	16	50	29	-0.484066626998	-0.449215782967	-0.323240052526	-1.25537109375	-0.0810546875	0.29736328125	-273.875	-97.8125	65.875
18	12	12	16	50	29	-0.512883269104	-0.421878990366	-0.336673106317	-1.11279296875	-0.06298828125	0.31103515625	-220.8125	-99.4375	55.9375
18	12	12	16	50	29	-0.537270797768	-0.397200766997	-0.344041291266	-0.99267578125	0.021484375	0.298828125	-175.375	-103.6875	50.125
18	12	12	16	50	29	-0.55840259521	-0.374567354553	-0.346918827322	-0.87939453125	0.095703125	0.23681640625	-141.125	-109.0625	44.8125
18	12	12	16	50	29	-0.5778142675	-0.351864291976	-0.346920491863	-0.74658203125	0.1337890625	0.17578125	-124.0	-118.6875	38.6875
18	12	12	16	50	29	-0.595814056453	-0.327935763708	-0.34459804986	-0.60986328125	0.14794921875	0.140625	-113.5	-131.125	29.875
18	12	12	16	50	29	-0.612098224802	-0.30327211876	-0.340013880783	-0.51904296875	0.1875	0.1005859375	-101.25	-142.0	19.5625
18	12	12	16	50	29	-0.625919290769	-0.278260950426	-0.333925347616	-0.5009765625	0.2099609375	0.04931640625	-89.1875	-147.75	5.25
18	12	12	16	50	29	-0.637754928104	-0.251708424108	-0.326842534214	-0.474609375	0.173828125	0.01611328125	-84.1875	-156.6875	-9.1875
18	12	12	16	50	29	-0.64719845182	-0.225030242537	-0.316885549024	-0.4296875	0.1396484375	0.02099609375	-65.5	-166.0625	-22.4375
18	12	12	16	50	29	-0.652626647643	-0.201226041081	-0.303029206541	-0.46142578125	0.1103515625	0.03564453125	-28.75	-167.75	-40.25
18	12	12	16	50	29	-0.653302704612	-0.18194089709	-0.283805827396	-0.521484375	0.03173828125	-0.0068359375	22.9375	-168.625	-60.1875
18	12	12	16	50	29	-0.649709383876	-0.16924792123	-0.256160665489	-0.6171875	-0.05419921875	-0.01708984375	92.8125	-174.25	-72.25
18	12	12	16	50	29	-0.642654372283	-0.165470225402	-0.217839629089	-0.77001953125	-0.07177734375	-0.01416015625	176.25	-178.5	-73.125
18	12	12	16	50	29	-0.630841991775	-0.173823335195	-0.169367891561	-1.02294921875	-0.03369140625	-0.00830078125	267.875	-165.625	-71.625
18	12	12	16	50	29	-0.613522913093	-0.195189641471	-0.112670443451	-1.22412109375	-0.0078125	-0.009765625	354.125	-137.0625	-67.4375
18	12	12	16	50	29	-0.592468963583	-0.228454860481	-0.0513306272147	-1.1943359375	-0.02001953125	0.08349609375	416.8125	-91.8125	-47.9375
18	12	12	16	50	29	-0.569445101676	-0.271356154561	0.0117184844075	-1.07373046875	0.18701171875	0.3740234375	456.5625	-37.875	-19.9375
18	12	12	16	50	29	-0.54419088742	-0.319580920427	0.0681764492203	-1.00634765625	0.4951171875	0.61376953125	447.0	23.6875	-14.0
18	12	12	16	50	29	-0.519797526047	-0.364212287215	0.104984939502	-0.859375	0.8291015625	0.77490234375	347.375	81.9375	-34.6875
18	12	12	16	50	29	-0.500189755816	-0.397832437878	0.113526900039	-0.625	0.921875	0.91796875	180.0	121.1875	-75.4375
18	12	12	16	50	29	-0.48456529542	-0.420172250116	0.0932631025824	-0.46533203125	0.71240234375	1.00146484375	12.5	148.0	-134.1875
18	12	12	16	50	29	-0.470762122332	-0.434995675594	0.0482785996064	-0.4375	0.43115234375	0.91015625	-121.375	176.5625	-190.125
18	12	12	16	50	29	-0.457257247901	-0.445111733708	-0.013793398028	-0.51416015625	0.216796875	0.81884765625	-209.6875	203.5	-227.0
18	12	12	16	50	29	-0.445142771297	-0.45387106093	-0.0864894154569	-0.86376953125	0.0390625	0.65673828125	-264.875	237.9375	-228.0
18	12	12	16	50	29	-0.43548141668	-0.463007992562	-0.158811863518	-1.3798828125	-0.11181640625	0.35595703125	-273.875	253.0	-191.375
18	12	12	16	50	29	-0.427612361238	-0.470275941099	-0.220825224516	-1.38134765625	-0.017578125	-0.06787109375	-244.625	223.6875	-150.25
18	12	12	16	50	29	-0.420096500703	-0.476919084191	-0.272089234365	-1.3681640625	-0.13671875	-0.28076171875	-202.0	196.1875	-117.0
18	12	12	16	50	29	-0.413626517986	-0.485158210339	-0.313958212855	-1.24951171875	-0.39697265625	-0.2333984375	-163.3125	186.0	-76.8125
18	12	12	16	50	29	-0.400263215106	-0.500115398685	-0.342219555825	-1.1064453125	-0.49365234375	-0.15283203125	-67.75	188.5625	-60.5
18	12	12	16	50	29	-0.378645864943	-0.521339938482	-0.357345509226	-1.029296875	-0.42236328125	-0.111328125	30.75	187.8125	-55.6875
18	12	12	16	50	29	-0.352345693383	-0.544967035548	-0.365406836356	-1.01123046875	-0.298828125	-0.0390625	81.375	186.0	-55.5625
18	12	12	16	50	29	-0.323669278653	-0.568603243435	-0.369384588801	-1.00439453125	-0.248046875	0.0693359375	106.8125	181.5	-55.1875
18	12	12	16	50	29	-0.293140731672	-0.592140616007	-0.36900455209	-1.03662109375	-0.23779296875	0.18017578125	131.1875	175.875	-51.3125
18	12	12	16	50	29	-0.26128552557	-0.614793062151	-0.363700174462	-1.1083984375	-0.19482421875	0.296875	155.8125	163.9375	-45.625
18	12	12	16	50	29	-0.231619883232	-0.634559137277	-0.353868796569	-1.18798828125	-0.0556640625	0.3759765625	164.5625	136.625	-33.125
18	12	12	16	50	29	-0.207573451272	-0.650551431081	-0.341541027144	-1.21337890625	0.11181640625	0.40673828125	151.25	104.4375	-15.5625
18	12	12	16	50	29	-0.189880203096	-0.663573631649	-0.329528517041	-1.22265625	0.16455078125	0.4072265625	121.875	83.375	0.3125
18	12	12	16	50	30	-0.181144531911	-0.672029124284	-0.316758800748	-1.15478515625	0.20458984375	0.3701171875	86.5	67.8125	4.9375
18	12	12	16	50	30	-0.176931975873	-0.677761156286	-0.308822282828	-1.04931640625	0.23486328125	0.3447265625	47.4375	56.375	-1.25
18	12	12	16	50	30	-0.176330079001	-0.681089425953	-0.306212532485	-0.98095703125	0.19970703125	0.3330078125	9.75	49.875	-8.1875
18	12	12	16	50	30	-0.178706504768	-0.682661289558	-0.307609557387	-0.97314453125	0.173828125	0.318359375	-20.375	44.875	-13.1875
18	12	12	16	50	30	-0.184201476851	-0.682241255216	-0.311702101484	-0.9892578125	0.16943359375	0.28759765625	-43.8125	33.375	-15.5
18	12	12	16	50	30	-0.192507401446	-0.679574320766	-0.31750903688	-1.01513671875	0.14794921875	0.275390625	-62.5	18.9375	-15.3125
18	12	12	16	50	30	-0.202212141612	-0.674996702109	-0.323612669733	-1.0751953125	0.091796875	0.26123046875	-68.6875	4.25	-12.4375
18	12	12	16	50	30	-0.211114704715	-0.669414883294	-0.32799376211	-1.1337890625	-0.00537109375	0.20556640625	-57.375	-11.3125	-6.75
18	12	12	16	50	30	-0.218626985336	-0.663388247799	-0.328917036286	-1.1435546875	-0.10693359375	0.17822265625	-35.5	-27.3125	5.375
18	12	12	16	50	30	-0.223997388746	-0.658015217457	-0.324216383928	-1.1259765625	-0.1767578125	0.1728515625	-1.3125	-40.5625	22.4375
18	12	12	16	50	30	-0.22704192043	-0.654454438917	-0.31273193556	-1.1845703125	-0.17529296875	0.1650390625	39.5	-48.75	40.4375
18	12	12	16	50	30	-0.229423994159	-0.652506496821	-0.295278873035	-1.3779296875	-0.0712890625	0.15576171875	68.9375	-55.4375	55.125
18	12	12	16	50	30	-0.232719765492	-0.65018716543	-0.275320970924	-1.5263671875	0.0302734375	0.083984375	75.9375	-71.0	61.125
18	12	12	16	50	30	-0.238831652753	-0.645937996701	-0.255738467937	-1.5732421875	0.05029296875	0.0595703125	61.75	-87.625	69.0625
18	12	12	16	50	30	-0.247242844986	-0.640719670861	-0.236256986655	-1.5634765625	0.02685546875	0.0712890625	50.375	-94.8125	82.0
18	12	12	16	50	30	-0.257633960156	-0.634898946587	-0.216129318387	-1.373046875	0.048828125	0.07763671875	43.75	-99.875	94.3125
18	12	12	16	50	30	-0.271918070774	-0.627456289014	-0.196782011263	-1.20654296875	0.0810546875	0.0986328125	22.75	-102.625	107.6875
18	12	12	16	50	30	-0.290341537522	-0.618219346976	-0.179075482676	-1.134765625	0.07666015625	0.11083984375	-3.0625	-106.875	119.5
18	12	12	16	50	30	-0.311632133138	-0.606846513865	-0.163445133675	-1.15087890625	0.1123046875	0.10009765625	-26.4375	-112.875	123.625
18	12	12	16	50	30	-0.335933768194	-0.592400645729	-0.151487574974	-1.201171875	0.18017578125	0.06103515625	-58.5625	-120.5625	121.375
18	12	12	16	50	30	-0.363284561639	-0.574162948814	-0.144776710384	-1.23095703125	0.2138671875	0.02587890625	-98.875	-127.3125	115.0
18	12	12	16	50	30	-0.392825337289	-0.552433518926	-0.143067524954	-1.2734375	0.20654296875	0.00927734375	-135.125	-131.125	107.5
18	12	12	16	50	30	-0.422964880861	-0.527943177409	-0.145382733941	-1.30517578125	0.14208984375	-0.01171875	-160.3125	-132.875	98.5625
18	12	12	16	50	30	-0.452128704547	-0.501809153453	-0.14928547669	-1.2802734375	0.05322265625	-0.01318359375	-168.1875	-133.5625	91.5625
18	12	12	16	50	30	-0.478698653787	-0.475830001903	-0.152221655303	-1.21484375	-0.0400390625	0.0029296875	-155.875	-132.625	85.25
18	12	12	16	50	30	-0.501530113529	-0.452091219534	-0.151612608252	-1.12548828125	-0.10498046875	0.02880859375	-123.8125	-129.6875	82.125
18	12	12	16	50	30	-0.520088258258	-0.432684621851	-0.14557100058	-1.0263671875	-0.1357421875	0.05615234375	-77.5625	-123.375	81.8125
18	12	12	16	50	30	-0.534659666153	-0.418572601652	-0.133664916538	-0.931640625	-0.12060546875	0.06884765625	-27.25	-114.8125	83.8125
18	12	12	16	50	30	-0.546016791577	-0.409421041572	-0.117003598195	-0.85888671875	-0.04931640625	0.072265625	14.375	-105.375	85.6875
18	12	12	16	50	30	-0.553463847459	-0.406553009255	-0.101073680127	-0.79931640625	0.03076171875	0.06640625	38.5625	-95.75	86.5625
18	12	12	16	50	30	-0.560055233664	-0.405820319162	-0.0845942190342	-0.76416015625	0.11865234375	0.0615234375	45.3125	-85.5	85.125
18	12	12	16	50	30	-0.566358360412	-0.405465954114	-0.0703141320396	-0.751953125	0.18505859375	0.06396484375	34.4375	-74.75	79.4375
18	12	12	16	50	30	-0.572765272673	-0.404121789255	-0.0600597856255	-0.740234375	0.22607421875	0.06494140625	12.75	-65.0	69.625
18	12	12	16	50	30	-0.57899620755	-0.401256701289	-0.0545059680942	-0.724609375	0.2294921875	0.0791015625	-10.8125	-55.8125	56.4375
18	12	12	16	50	30	-0.584595579167	-0.397217376198	-0.053039628137	-0.6787109375	0.20068359375	0.10205078125	-27.375	-45.5625	41.75
18	12	12	16	50	30	-0.58872489869	-0.39348013911	-0.0541973574577	-0.6298828125	0.171875	0.1337890625	-31.8125	-33.5	27.5625
18	12	12	16	50	30	-0.590566179421	-0.391717004912	-0.057005871391	-0.61181640625	0.1748046875	0.16943359375	-25.4375	-18.375	11.75
18	12	12	16	50	30	-0.589453435324	-0.392867235782	-0.0613988564854	-0.6005859375	0.18310546875	0.185546875	-15.375	-0.625	-5.8125
18	12	12	16	50	30	-0.585366934521	-0.397202378257	-0.0673803665636	-0.591796875	0.18408203125	0.20654296875	-3.5625	19.5625	-22.6875
18	12	12	16	50	30	-0.577582914306	-0.40570576259	-0.0748300383535	-0.62353515625	0.19775390625	0.24560546875	13.4375	43.0625	-41.25
18	12	12	16	50	30	-0.565113063702	-0.419364063149	-0.0840437076053	-0.71435546875	0.25390625	0.28564453125	33.125	70.375	-64.25
18	12	12	16	50	30	-0.547171416965	-0.436394381629	-0.0952743538073	-0.8779296875	0.34521484375	0.3212890625	52.25	103.3125	-97.9375
18	12	12	16	50	30	-0.521288985854	-0.458302188827	-0.111630670311	-1.0576171875	0.4033203125	0.35498046875	66.8125	140.5	-144.125
18	12	12	16	50	30	-0.487669178925	-0.48443432705	-0.133788590764	-1.17333984375	0.3603515625	0.3798828125	76.5625	182.5625	-186.1875
18	12	12	16	50	30	-0.447022429427	-0.514161243241	-0.159424165164	-1.2607421875	0.2685546875	0.4228515625	91.1875	220.625	-215.5
18	12	12	16	50	30	-0.401604683278	-0.545706302917	-0.186337248944	-1.37158203125	0.1962890625	0.46337890625	102.0625	247.75	-228.25
18	12	12	16	50	30	-0.35520508349	-0.574187186508	-0.213123050094	-1.38818359375	0.076171875	0.4375	96.5625	245.6875	-229.625
18	12	12	16	50	30	-0.31311361411	-0.593756186756	-0.239443412895	-1.36767578125	-0.0654296875	0.31396484375	66.6875	201.0625	-221.9375
18	12	12	16	50	30	-0.283748831614	-0.600578297072	-0.267269549073	-1.25341796875	-0.18359375	0.21337890625	-4.0625	129.8125	-194.75
18	12	12	16	50	30	-0.269528484298	-0.600457705735	-0.29681091919	-1.1474609375	-0.4912109375	0.23486328125	-78.375	92.75	-142.4375
18	12	12	16	50	31	-0.257627918457	-0.600521461668	-0.322935161468	-1.22216796875	-0.765625	0.02587890625	-70.8125	82.0625	-83.375
18	12	12	16	50	31	-0.245176694619	-0.601680820402	-0.334775745578	-1.3046875	-0.79833984375	0.01318359375	-2.875	48.625	-43.5625
18	12	12	16	50	31	-0.233397527598	-0.603696376953	-0.335325841167	-1.22216796875	-0.53125	-0.04638671875	47.625	16.5	-25.1875
18	12	12	16	50	31	-0.221860772196	-0.605890477466	-0.328122011368	-1.08740234375	-0.35546875	-0.04833984375	83.0625	-4.75	-12.9375
18	12	12	16	50	31	-0.208864994926	-0.608528345824	-0.313053348619	-0.970703125	-0.32177734375	-0.0390625	125.0625	-16.375	-3.0
18	12	12	16	50	31	-0.190855835112	-0.611995989341	-0.290647741223	-0.908203125	-0.1708984375	-0.04052734375	177.9375	-23.3125	-1.5625
18	12	12	16	50	31	-0.169677528943	-0.615172595043	-0.263427415439	-0.85498046875	0.07666015625	-0.0380859375	210.4375	-29.6875	-4.0
18	12	12	16	50	31	-0.148797831156	-0.617102079909	-0.23528123015	-0.8212890625	0.2802734375	0.01318359375	210.75	-33.625	-3.6875
18	12	12	16	50	31	-0.130432524429	-0.617250406901	-0.2088019027	-0.8154296875	0.380859375	0.08203125	190.6875	-37.5625	-1.875
18	12	12	16	50	31	-0.115054216265	-0.61537220604	-0.184269856183	-0.8095703125	0.390625	0.16357421875	168.9375	-44.5	2.4375
18	12	12	16	50	31	-0.101928166812	-0.612118314344	-0.160765743342	-0.77392578125	0.3642578125	0.23193359375	155.0625	-48.6875	8.3125
18	12	12	16	50	31	-0.0881339128065	-0.608819792413	-0.136900530765	-0.7236328125	0.30126953125	0.28076171875	158.125	-45.1875	8.25
18	12	12	16	50	31	-0.0720238008629	-0.606281706755	-0.112430373889	-0.68505859375	0.25927734375	0.30517578125	168.125	-34.8125	2.75
18	12	12	16	50	31	-0.0534046830339	-0.605151351178	-0.0875836801755	-0.65185546875	0.2216796875	0.3017578125	177.9375	-20.25	-4.9375
18	12	12	16	50	31	-0.032957807636	-0.6056302318	-0.0628639664168	-0.666015625	0.201171875	0.30029296875	183.5	-3.75	-11.6875
18	12	12	16	50	31	-0.0115964365815	-0.607836378502	-0.0391227149935	-0.7333984375	0.21826171875	0.3056640625	181.25	13.5625	-18.1875
18	12	12	16	50	31	0.00897212961504	-0.611691721101	-0.0184935732881	-0.865234375	0.24169921875	0.29052734375	163.8125	29.875	-25.1875
18	12	12	16	50	31	0.0267945827217	-0.616763686566	-0.00299073930151	-1.00146484375	0.23583984375	0.2529296875	130.8125	40.1875	-30.75
18	12	12	16	50	31	0.0393671851527	-0.622856006951	0.00830067779964	-1.18310546875	0.19873046875	0.21923828125	90.625	45.0625	-34.125
18	12	12	16	50	31	0.0468751882447	-0.629885342038	0.0137940007074	-1.48095703125	0.16162109375	0.17138671875	46.75	44.5	-31.1875
18	12	12	16	50	31	0.049743372714	-0.636593101113	0.0140380070236	-1.54638671875	-0.00927734375	0.08837890625	9.875	35.75	-17.9375
18	12	12	16	50	31	0.0493149610964	-0.642315161607	0.0126339071126	-1.34619140625	-0.1796875	0.08154296875	-6.9375	30.9375	3.125
18	12	12	16	50	31	0.0457771373216	-0.646983540812	0.0140383221119	-1.08935546875	-0.21533203125	0.068359375	-5.75	27.0625	31.4375
18	12	12	16	50	31	0.037903491801	-0.650035728955	0.0181277569483	-0.88427734375	-0.18798828125	0.08251953125	-9.75	19.75	60.1875
18	12	12	16	50	31	0.0256346253411	-0.65179086671	0.0227049538736	-0.78271484375	-0.1484375	0.11767578125	-24.625	13.875	80.25
18	12	12	16	50	31	0.00964343040722	-0.651786033663	0.0269161570227	-0.86572265625	-0.11279296875	0.14794921875	-39.8125	3.0625	94.8125
18	12	12	16	50	31	-0.00939958760435	-0.649914342929	0.0316167946692	-1.00927734375	-0.04296875	0.14794921875	-50.875	-10.3125	102.3125
18	12	12	16	50	31	-0.0307628341768	-0.645897442973	0.0338757400161	-1.1943359375	0.0537109375	0.1357421875	-70.3125	-25.0625	102.875
18	12	12	16	50	31	-0.0551759207134	-0.639589018977	0.032287679267	-1.34814453125	0.13720703125	0.0908203125	-99.3125	-39.8125	102.0
18	12	12	16	50	31	-0.0830719061746	-0.631004677467	0.0253305224559	-1.46044921875	0.17236328125	0.0498046875	-137.125	-52.6875	97.75
18	12	12	16	50	31	-0.114500464271	-0.619559814932	0.0107420478207	-1.54248046875	0.17333984375	0.0830078125	-184.8125	-63.9375	86.6875
18	12	12	16	50	31	-0.143983862703	-0.603828890939	-0.0135499862315	-1.455078125	-0.34423828125	-0.0068359375	-222.125	-85.25	50.8125
