18	12	13	20	13	02	-0.364726764531	-0.621427027518	0.0471166436107	0.9677734375	0.283203125	0.1240234375	34.9375	38.9375	-43.125
18	12	13	20	13	02	-0.370207856315	-0.618111633491	0.0436974654008	0.93603515625	0.265625	0.0673828125	-15.1875	33.6875	-41.8125
18	12	13	20	13	02	-0.378824878116	-0.612821105391	0.0458959736335	0.90283203125	0.23095703125	0.01904296875	-53.8125	32.1875	-36.625
18	12	13	20	13	02	-0.388765954958	-0.605974437485	0.0508386248792	0.87109375	0.1806640625	0.02001953125	-72.0	34.3125	-33.4375
18	12	13	20	13	02	-0.398047092058	-0.598352298456	0.0556606789262	0.88037109375	0.1142578125	0.04296875	-69.1875	39.625	-33.375
18	12	13	20	13	02	-0.4051299473	-0.590972172296	0.0581634287099	0.90869140625	0.08447265625	0.06787109375	-50.4375	47.6875	-33.0625
18	12	13	20	13	02	-0.409279033802	-0.58425711163	0.0574919251181	0.9169921875	0.10888671875	0.08837890625	-25.875	55.125	-27.875
18	12	13	20	13	02	-0.410813892417	-0.578288758082	0.0545636041927	0.93017578125	0.17919921875	0.095703125	-7.625	61.3125	-19.375
18	12	13	20	13	02	-0.411224562423	-0.572284464505	0.0511436900134	0.931640625	0.22802734375	0.1044921875	-3.125	64.375	-11.9375
18	12	13	20	13	02	-0.411659860793	-0.565643230516	0.0492527068436	0.92724609375	0.24072265625	0.1328125	-10.0625	63.9375	-5.3125
18	12	13	20	13	02	-0.412217077457	-0.558452214796	0.0493146873831	0.93017578125	0.22412109375	0.17138671875	-19.0625	60.625	0.5
18	12	13	20	13	02	-0.412386233134	-0.551231679394	0.0509608560998	0.91748046875	0.19921875	0.2099609375	-22.625	55.5	6.125
18	12	13	20	13	02	-0.411605082071	-0.545144809172	0.0528543892457	0.91064453125	0.18603515625	0.24267578125	-17.1875	47.25	9.875
18	12	13	20	13	02	-0.409708296594	-0.540927250516	0.0545016399312	0.9169921875	0.18994140625	0.2685546875	-8.75	36.5	11.75
18	12	13	20	13	02	-0.407091316001	-0.538678853827	0.0559063936217	0.9169921875	0.23828125	0.2900390625	-1.5625	24.0	14.125
18	12	13	20	13	02	-0.403552783529	-0.538680711953	0.0573713878581	0.9365234375	0.2744140625	0.31884765625	5.0	9.5	16.5625
18	12	13	20	13	02	-0.399685158568	-0.541701857909	0.0596262635396	1.033203125	0.306640625	0.345703125	8.9375	-11.1875	15.0625
18	12	13	20	13	03	-0.396451186111	-0.54750055274	0.0642036095734	1.14404296875	0.375	0.36279296875	1.25	-35.25	14.3125
18	12	13	20	13	03	-0.392977601568	-0.554587275268	0.0715281486315	1.12841796875	0.4638671875	0.375	-8.875	-53.9375	27.5
18	12	13	20	13	03	-0.388644105508	-0.563192180532	0.0818422967158	1.0654296875	0.48779296875	0.3466796875	-17.0	-73.0625	41.4375
18	12	13	20	13	03	-0.385362449981	-0.571818307551	0.0958218318769	0.93408203125	0.50927734375	0.26318359375	-37.8125	-85.3125	51.75
18	12	13	20	13	03	-0.382117130241	-0.579919656851	0.110954950132	0.8017578125	0.529296875	0.2236328125	-44.5	-88.5	60.6875
18	12	13	20	13	03	-0.378102812167	-0.588668542913	0.124691532729	0.7978515625	0.42724609375	0.193359375	-33.1875	-89.75	52.8125
18	12	13	20	13	03	-0.374748236344	-0.598193398111	0.135861494153	0.908203125	0.296875	0.09765625	-22.6875	-83.9375	29.1875
18	12	13	20	13	03	-0.3721216093	-0.607528046412	0.142208192499	0.9296875	0.26025390625	0.01904296875	-6.125	-67.125	8.0
18	12	13	20	13	03	-0.369114921894	-0.616595247337	0.143727784567	0.89453125	0.28564453125	0.01416015625	14.4375	-53.5625	-2.0
18	12	13	20	13	03	-0.366802970241	-0.625396012655	0.143181325821	0.8935546875	0.322265625	0.0263671875	20.0625	-49.5	-9.625
18	12	13	20	13	03	-0.366562705273	-0.632726534394	0.144403489956	0.88818359375	0.333984375	0.04638671875	2.9375	-49.5625	-10.25
18	12	13	20	13	03	-0.368562445101	-0.637950528008	0.14915824074	0.845703125	0.32421875	0.060546875	-22.75	-49.9375	-4.25
18	12	13	20	13	03	-0.373093700965	-0.64102783269	0.156854377798	0.79296875	0.28662109375	0.0869140625	-46.3125	-49.3125	-3.25
18	12	13	20	13	03	-0.37992836836	-0.642612978388	0.16527646932	0.77197265625	0.24951171875	0.1328125	-59.625	-48.375	-10.6875
18	12	13	20	13	03	-0.388529439068	-0.643093732242	0.173513854111	0.76806640625	0.22607421875	0.17529296875	-66.875	-46.125	-18.6875
18	12	13	20	13	03	-0.397994501114	-0.642674757972	0.18145033765	0.767578125	0.2216796875	0.19873046875	-70.375	-42.375	-22.125
18	12	13	20	13	03	-0.408128757691	-0.641458537958	0.189141770612	0.76025390625	0.23828125	0.21533203125	-72.875	-39.4375	-23.5625
18	12	13	20	13	03	-0.418437651117	-0.639679845589	0.196829262668	0.76806640625	0.2421875	0.23681640625	-74.625	-38.125	-23.5625
18	12	13	20	13	03	-0.428630067708	-0.637482707847	0.204763473894	0.77734375	0.23291015625	0.25341796875	-75.0625	-38.1875	-22.6875
18	12	13	20	13	03	-0.438204832055	-0.635152881226	0.212816190721	0.78271484375	0.2265625	0.26220703125	-73.5	-38.4375	-20.1875
18	12	13	20	13	03	-0.446979853076	-0.632936654321	0.220560511881	0.7734375	0.2353515625	0.2529296875	-68.875	-38.0	-17.5
18	12	13	20	13	03	-0.454695018861	-0.631019033557	0.227530608096	0.74951171875	0.2490234375	0.244140625	-61.25	-36.0625	-14.5625
18	12	13	20	13	03	-0.46078762728	-0.629661715317	0.233079198488	0.74267578125	0.26220703125	0.26904296875	-47.75	-34.8125	-11.5625
18	12	13	20	13	03	-0.464883457344	-0.629304625007	0.237354833348	0.80126953125	0.2548828125	0.30419921875	-31.0625	-36.125	-10.5
18	12	13	20	13	03	-0.467258227081	-0.630273734465	0.24058672037	0.89697265625	0.2607421875	0.29150390625	-17.6875	-38.1875	-11.5
18	12	13	20	13	03	-0.469038353913	-0.631874310744	0.243277407768	0.9775390625	0.31689453125	0.283203125	-12.5625	-38.875	-10.8125
18	12	13	20	13	03	-0.470757932773	-0.63347550684	0.246090494612	1.05810546875	0.37158203125	0.2802734375	-13.0625	-39.5625	-8.5
18	12	13	20	13	03	-0.473376732481	-0.634383413796	0.250237829187	1.12109375	0.40478515625	0.24853515625	-23.9375	-39.8125	-6.8125
18	12	13	20	13	03	-0.477323230978	-0.633867673819	0.256208019901	1.20751953125	0.4580078125	0.24658203125	-39.375	-40.0	-1.8125
18	12	13	20	13	03	-0.482275251869	-0.632414092618	0.263353291802	1.31982421875	0.4296875	0.23828125	-49.75	-39.9375	-5.5625
18	12	13	20	13	03	-0.488373097602	-0.629355583913	0.272383046063	1.37158203125	0.435546875	0.216796875	-65.1875	-37.9375	-1.125
18	12	13	20	13	03	-0.494194183844	-0.625722955757	0.281245745233	1.38330078125	0.419921875	0.14990234375	-65.9375	-29.3125	0.8125
18	12	13	20	13	03	-0.500274645167	-0.620567596933	0.290021363161	1.21923828125	0.42626953125	0.0615234375	-71.0	-13.625	10.1875
18	12	13	20	13	03	-0.504749899324	-0.613939448283	0.297356893532	0.97802734375	0.39111328125	0.03125	-59.3125	7.0	27.0
18	12	13	20	13	03	-0.505965829409	-0.607342095108	0.300649900563	0.7890625	0.298828125	0.0517578125	-26.0	29.6875	36.3125
18	12	13	20	13	03	-0.503881867918	-0.602326811348	0.29740992519	0.693359375	0.21728515625	0.1259765625	19.75	49.9375	31.5
18	12	13	20	13	03	-0.497838845336	-0.6006169029	0.286484680643	0.69140625	0.1845703125	0.21826171875	75.0	63.375	20.625
18	12	13	20	13	03	-0.486489355424	-0.6036105539	0.269519131044	0.74853515625	0.22412109375	0.283203125	127.4375	68.9375	15.6875
18	12	13	20	13	03	-0.471359176381	-0.609050009207	0.248282937915	0.78271484375	0.2958984375	0.30859375	163.1875	71.125	14.25
18	12	13	20	13	03	-0.45358170733	-0.615679798647	0.224898895521	0.8251953125	0.2890625	0.310546875	182.625	69.25	13.1875
18	12	13	20	13	03	-0.436322241404	-0.621251097391	0.201102501808	0.8408203125	0.33154296875	0.30126953125	178.1875	71.1875	9.1875
18	12	13	20	13	03	-0.423071114897	-0.624048203956	0.180226341935	0.80322265625	0.36279296875	0.26806640625	143.0625	70.0	3.0
18	12	13	20	13	03	-0.412079363822	-0.625259638975	0.162463753924	0.75634765625	0.31396484375	0.2626953125	118.125	63.75	1.9375
18	12	13	20	13	03	-0.402619011182	-0.626174178373	0.146656583882	0.759765625	0.20849609375	0.28271484375	103.375	54.5625	-2.5
18	12	13	20	13	03	-0.39377969671	-0.627655052847	0.130975082012	0.7998046875	0.14111328125	0.27880859375	101.0	47.1875	-9.9375
18	12	13	20	13	03	-0.384506185961	-0.630162915881	0.113887070318	0.84326171875	0.109375	0.2509765625	109.0	43.125	-17.5
18	12	13	20	13	03	-0.375652877099	-0.632903385137	0.095698409633	0.89111328125	0.13671875	0.18310546875	111.5	43.0	-25.25
18	12	13	20	13	03	-0.368570544125	-0.634607802254	0.0776933768292	0.93017578125	0.19287109375	0.12255859375	101.375	46.3125	-31.6875
18	12	13	20	13	03	-0.363020368943	-0.634919451599	0.0631684737485	0.94384765625	0.2421875	0.0537109375	76.9375	51.4375	-32.125
18	12	13	20	13	04	-0.360647050325	-0.632612400849	0.0528550254834	0.92236328125	0.26708984375	0.0146484375	42.1875	56.625	-26.25
18	12	13	20	13	04	-0.360887308687	-0.627722978157	0.0466901388712	0.91015625	0.2548828125	0.01171875	11.4375	61.875	-20.625
18	12	13	20	13	04	-0.363021936189	-0.62070159567	0.043577280168	0.912109375	0.20849609375	0.02880859375	-11.5625	67.0	-18.5
18	12	13	20	13	04	-0.366615073824	-0.611960936447	0.0427219163771	0.9140625	0.1845703125	0.0400390625	-28.1875	71.6875	-16.5625
18	12	13	20	13	04	-0.37131254418	-0.601948656024	0.0430878790584	0.92333984375	0.19873046875	0.0517578125	-40.25	76.375	-14.8125
18	12	13	20	13	04	-0.376624609736	-0.59096679567	0.0444918717384	0.95361328125	0.197265625	0.09033203125	-47.4375	79.0	-14.0625
18	12	13	20	13	04	-0.382312053939	-0.579510369118	0.0471786746001	1.009765625	0.19384765625	0.1240234375	-54.75	78.6875	-12.875
18	12	13	20	13	04	-0.387743770241	-0.56791370724	0.0513289014281	1.04248046875	0.1923828125	0.1611328125	-59.625	75.75	-7.4375
18	12	13	20	13	04	-0.39194953543	-0.556797821821	0.0563328279667	1.03857421875	0.20361328125	0.197265625	-58.0	70.8125	1.4375
18	12	13	20	13	04	-0.39458177161	-0.546616294902	0.0610335300248	0.982421875	0.21728515625	0.21484375	-50.125	66.0625	10.0
18	12	13	20	13	04	-0.395727042172	-0.537441754067	0.0643880366274	0.90283203125	0.22998046875	0.23974609375	-37.8125	61.6875	14.6875
18	12	13	20	13	04	-0.395729529592	-0.53060958209	0.0652428851224	0.93994140625	0.25146484375	0.35107421875	-17.125	49.1875	9.75
18	12	13	20	13	04	-0.395798362608	-0.529216284067	0.0654883027106	1.14697265625	0.28369140625	0.45361328125	-2.4375	16.4375	-5.875
18	12	13	20	13	04	-0.395069780101	-0.530686194651	0.0676251068054	1.19287109375	0.435546875	0.53125	-5.125	-9.8125	6.3125
18	12	13	20	13	04	-0.390314524297	-0.535271052086	0.0735463646252	1.08642578125	0.48681640625	0.49169921875	-4.9375	-36.6875	39.0625
18	12	13	20	13	04	-0.384262339893	-0.540567271988	0.0840421286584	0.89697265625	0.533203125	0.28662109375	-24.5	-46.5	66.0625
18	12	13	20	13	04	-0.377847306831	-0.545013156194	0.0941719260926	0.72412109375	0.5224609375	0.1806640625	-25.1875	-39.5	72.5
18	12	13	20	13	04	-0.371501896657	-0.549532294645	0.101496246779	0.6337890625	0.35888671875	0.17138671875	-8.75	-35.8125	55.9375
18	12	13	20	13	04	-0.365220627552	-0.555521081548	0.106624404468	0.7060546875	0.185546875	0.13134765625	7.125	-37.3125	34.1875
18	12	13	20	13	04	-0.358801233962	-0.564170540355	0.106804245524	0.880859375	0.1171875	0.07275390625	34.125	-35.125	7.375
18	12	13	20	13	04	-0.352092303589	-0.573820738142	0.10143480821	0.91748046875	0.15625	0.0595703125	59.75	-28.125	-8.3125
18	12	13	20	13	04	-0.344895424576	-0.583166834511	0.0945395527637	0.82861328125	0.248046875	0.064453125	65.5625	-26.125	-3.125
18	12	13	20	13	04	-0.340008123176	-0.591520145363	0.0903880865954	0.77880859375	0.31201171875	0.08056640625	43.375	-32.375	-0.4375
18	12	13	20	13	04	-0.340008731726	-0.598051617695	0.0917919821424	0.75341796875	0.3134765625	0.10791015625	0.125	-41.6875	-3.6875
18	12	13	20	13	04	-0.345691260699	-0.602213218454	0.100033187904	0.7294921875	0.298828125	0.15478515625	-51.5625	-52.1875	-6.3125
18	12	13	20	13	04	-0.355938592725	-0.604460874888	0.113641574015	0.7333984375	0.28369140625	0.20361328125	-93.0	-62.0625	-9.3125
18	12	13	20	13	04	-0.368196993811	-0.606337996604	0.130544235001	0.7646484375	0.25830078125	0.26953125	-113.625	-73.375	-13.75
18	12	13	20	13	04	-0.380960225503	-0.60885280513	0.148307168852	0.83203125	0.22998046875	0.3134765625	-118.625	-84.5625	-17.8125
18	12	13	20	13	04	-0.392997229714	-0.612292003182	0.165584948628	0.8681640625	0.21826171875	0.34326171875	-113.1875	-92.625	-20.5
18	12	13	20	13	04	-0.403784199155	-0.614953082026	0.181141400104	0.86767578125	0.2509765625	0.40185546875	-99.5	-96.875	-17.4375
18	12	13	20	13	04	-0.412281933785	-0.619918223754	0.19652817569	0.80517578125	0.31640625	0.3740234375	-90.25	-101.0	-14.9375
18	12	13	20	13	04	-0.417278527251	-0.627352052305	0.209951460252	0.7822265625	0.29345703125	0.3603515625	-65.1875	-110.8125	-12.9375
18	12	13	20	13	04	-0.417274576943	-0.637294300489	0.220935200897	0.796875	0.255859375	0.4052734375	-31.125	-117.6875	-5.375
18	12	13	20	13	04	-0.413068374015	-0.649264385752	0.228627974152	0.8720703125	0.2568359375	0.4267578125	2.625	-118.25	-2.625
18	12	13	20	13	04	-0.405567619678	-0.663556231925	0.232171440972	0.96875	0.2451171875	0.33642578125	35.375	-117.5625	-8.8125
18	12	13	20	13	04	-0.394941191388	-0.678864297915	0.231984464297	1.064453125	0.27734375	0.28564453125	64.375	-109.6875	-10.25
18	12	13	20	13	04	-0.384639669414	-0.691826507903	0.228330213151	1.14208984375	0.34033203125	0.19873046875	77.125	-94.0	-12.625
18	12	13	20	13	04	-0.376930102163	-0.702532772992	0.223741216731	1.306640625	0.462890625	0.11328125	66.0625	-75.125	-15.25
18	12	13	20	13	04	-0.374802315897	-0.709139897152	0.221182802933	1.4912109375	0.53662109375	0.0263671875	27.875	-55.375	-18.6875
18	12	13	20	13	04	-0.379322509506	-0.710245541933	0.224358736113	1.6396484375	0.54443359375	-0.00146484375	-29.25	-40.9375	-12.5
18	12	13	20	13	04	-0.387865086735	-0.706884883488	0.23155942393	1.6240234375	0.41357421875	-0.0595703125	-68.875	-21.5	-9.8125
18	12	13	20	13	04	-0.398302989009	-0.699441044137	0.241386503452	1.29345703125	0.36181640625	-0.09130859375	-91.875	3.6875	9.875
18	12	13	20	13	04	-0.405380293998	-0.690342743965	0.248281697679	0.9345703125	0.27001953125	-0.0166015625	-65.0	31.5625	25.0
18	12	13	20	13	04	-0.407208815842	-0.681732984556	0.247852967796	0.734375	0.17138671875	0.11181640625	-9.4375	58.25	23.8125
18	12	13	20	13	04	-0.403408203538	-0.675723998422	0.237406643232	0.625	0.10693359375	0.2568359375	59.8125	76.4375	8.8125
18	12	13	20	13	04	-0.392803000221	-0.674893656999	0.219593722001	0.59228515625	0.1279296875	0.34912109375	119.875	83.0	1.3125
18	12	13	20	13	04	-0.376627471608	-0.676293795639	0.196400454324	0.6181640625	0.18798828125	0.38818359375	166.75	86.4375	1.125
18	12	13	20	13	04	-0.357537982299	-0.678577549881	0.169125597294	0.71484375	0.22802734375	0.39453125	194.0	89.8125	-5.4375
18	12	13	20	13	04	-0.339638900581	-0.6799491449	0.139700528918	0.849609375	0.25634765625	0.31103515625	193.25	94.5	-20.1875
18	12	13	20	13	04	-0.327257707808	-0.678623359402	0.111751000186	0.94140625	0.3427734375	0.16650390625	158.6875	99.5625	-36.375
18	12	13	20	13	05	-0.322866771876	-0.673686848387	0.0892918879499	0.8984375	0.4013671875	0.0908203125	98.125	98.0625	-41.0625
18	12	13	20	13	05	-0.324084900175	-0.665808319398	0.0753756782892	0.8671875	0.3154296875	0.095703125	37.625	90.75	-36.875
18	12	13	20	13	05	-0.329028822464	-0.65640975433	0.0674414484923	0.89013671875	0.17822265625	0.09716796875	-2.0	84.125	-40.5
18	12	13	20	13	05	-0.335921380418	-0.646514386403	0.06194771096	0.919921875	0.09814453125	0.09423828125	-19.75	79.9375	-47.25
18	12	13	20	13	05	-0.343191020931	-0.636761856905	0.0565779968706	0.91943359375	0.09765625	0.0849609375	-21.8125	79.5625	-50.3125
18	12	13	20	13	05	-0.350377758906	-0.626969294067	0.0503504008182	0.92578125	0.1259765625	0.07958984375	-19.0	82.9375	-52.5
18	12	13	20	13	05	-0.357834208727	-0.616795584752	0.0443707094908	0.92919921875	0.16650390625	0.05029296875	-23.4375	87.4375	-51.1875
18	12	13	20	13	05	-0.365959515533	-0.605517737426	0.0402213677012	0.96044921875	0.20556640625	0.0205078125	-37.0	92.8125	-45.5625
18	12	13	20	13	05	-0.375470035896	-0.592683601851	0.0386944087708	0.97509765625	0.236328125	0.0	-57.4375	97.9375	-40.8125
18	12	13	20	13	05	-0.387680155696	-0.575722120384	0.0388778745557	0.97265625	0.23828125	0.0185546875	-78.5625	101.625	-32.6875
18	12	13	20	13	05	-0.399635957204	-0.557280990414	0.0414405642855	0.943359375	0.21435546875	0.05859375	-90.1875	103.9375	-22.75
18	12	13	20	13	05	-0.409899642413	-0.538801971891	0.0441881091582	0.94287109375	0.16552734375	0.11767578125	-85.0625	103.75	-14.8125
18	12	13	20	13	05	-0.41592821666	-0.523648437115	0.047909559806	0.966796875	0.125	0.1884765625	-67.5	98.4375	-10.9375
18	12	13	20	13	05	-0.419305529953	-0.510856955707	0.0496208727586	0.96337890625	0.1279296875	0.25244140625	-44.25	89.375	-6.125
18	12	13	20	13	05	-0.419294887738	-0.500529457691	0.0488261878006	0.88525390625	0.1591796875	0.28955078125	-18.0625	81.1875	5.0
18	12	13	20	13	05	-0.415818043203	-0.492597596754	0.0451034102344	0.7734375	0.20361328125	0.32275390625	9.1875	73.0	16.75
18	12	13	20	13	05	-0.409833892532	-0.488565943368	0.0386336342476	0.75732421875	0.234375	0.4189453125	38.75	53.75	18.5
18	12	13	20	13	05	-0.403356076659	-0.490447788172	0.0329569195636	0.91748046875	0.26904296875	0.49853515625	50.5	16.375	10.5625
18	12	13	20	13	05	-0.396223380489	-0.496316779134	0.0296618242326	1.00439453125	0.37744140625	0.57421875	48.4375	-15.4375	17.8125
18	12	13	20	13	05	-0.386771242539	-0.505787168521	0.0305169040981	0.94775390625	0.45361328125	0.564453125	42.6875	-49.0	42.125
18	12	13	20	13	05	-0.375398893188	-0.516684608963	0.037838938998	0.77978515625	0.53515625	0.44287109375	17.0	-72.4375	78.0625
18	12	13	20	13	05	-0.363016348825	-0.527801846779	0.0490694593906	0.634765625	0.55224609375	0.302734375	-0.3125	-81.125	99.375
18	12	13	20	13	05	-0.351365459196	-0.539163186822	0.0617651284881	0.5830078125	0.46728515625	0.2451171875	-6.6875	-87.8125	95.75
18	12	13	20	13	05	-0.341664618622	-0.551985496752	0.0756203041216	0.7275390625	0.28173828125	0.19873046875	-11.0	-99.3125	72.625
18	12	13	20	13	05	-0.336467562249	-0.565092174653	0.0870921841699	1.04931640625	0.1484375	0.06787109375	-11.875	-103.875	33.875
18	12	13	20	13	05	-0.332267562295	-0.579576188749	0.0944801958913	1.1396484375	0.130859375	0.04736328125	2.9375	-89.25	3.9375
18	12	13	20	13	05	-0.323534834834	-0.593482877556	0.0968590422338	1.01025390625	0.15869140625	0.12939453125	40.3125	-81.875	16.0625
18	12	13	20	13	05	-0.312541339192	-0.608604224647	0.0974059709724	1.005859375	0.2333984375	0.08203125	56.1875	-85.3125	23.5625
18	12	13	20	13	05	-0.3047256812	-0.622756028634	0.0989305686412	0.98779296875	0.361328125	0.02490234375	36.3125	-84.5	21.625
18	12	13	20	13	05	-0.302052167681	-0.63364429276	0.104976708105	0.884765625	0.4541015625	0.015625	-6.9375	-80.3125	25.625
18	12	13	20	13	05	-0.305279391071	-0.640708326162	0.116875256677	0.78369140625	0.46435546875	0.02783203125	-58.625	-75.9375	27.75
18	12	13	20	13	05	-0.3132173136	-0.644500162046	0.13262299736	0.73291015625	0.40625	0.05419921875	-94.875	-70.0625	22.3125
18	12	13	20	13	05	-0.322196483285	-0.645796739845	0.150203740361	0.7333984375	0.30859375	0.10400390625	-107.125	-63.625	14.875
18	12	13	20	13	05	-0.33086409182	-0.646469740003	0.164608089954	0.7744140625	0.205078125	0.19677734375	-92.375	-59.875	6.8125
18	12	13	20	13	05	-0.338484899144	-0.651153153438	0.180899610722	0.80224609375	0.11376953125	0.35791015625	-24.1875	-63.1875	-3.0625
18	12	13	20	13	05	-0.336485084694	-0.65673490138	0.183043491565	0.796875	0.1513671875	0.40625	9.875	-70.1875	-1.375
18	12	13	20	13	05	-0.326707037698	-0.671906926586	0.181876886295	0.83203125	0.279296875	0.43017578125	39.875	-81.25	4.6875
18	12	13	20	13	05	-0.321391034189	-0.680682530252	0.180957921832	0.9248046875	0.32568359375	0.412109375	39.5	-88.375	3.75
18	12	13	20	13	05	-0.317677452283	-0.689369226424	0.181512534695	0.99072265625	0.3642578125	0.35791015625	26.0625	-92.375	2.6875
18	12	13	20	13	05	-0.315230825901	-0.697474903853	0.183035284972	1.04248046875	0.3603515625	0.2978515625	15.8125	-90.75	0.3125
18	12	13	20	13	05	-0.3148706906	-0.70487334866	0.184076371942	1.109375	0.35595703125	0.2021484375	6.3125	-81.5625	-10.5625
18	12	13	20	13	05	-0.318531161492	-0.710118808959	0.185662347817	1.11767578125	0.423828125	0.1044921875	-15.875	-64.9375	-16.125
18	12	13	20	13	05	-0.326095991654	-0.712064745392	0.188590045707	1.228515625	0.5146484375	0.091796875	-40.5	-47.6875	-15.3125
18	12	13	20	13	05	-0.336775035647	-0.710901706272	0.192495190727	1.4482421875	0.427734375	0.1005859375	-61.1875	-31.4375	-26.375
18	12	13	20	13	05	-0.349407719627	-0.706444428766	0.198353727299	1.62158203125	0.37451171875	0.1220703125	-80.0	-15.75	-25.875
18	12	13	20	13	05	-0.361680161277	-0.699801675531	0.204093563839	1.521484375	0.30419921875	0.00390625	-82.25	11.1875	-21.375
18	12	13	20	13	05	-0.373581932308	-0.689976105987	0.211112547599	1.06494140625	0.32861328125	-0.05517578125	-89.625	39.75	5.5625
18	12	13	20	13	05	-0.381579926147	-0.678262591054	0.214715000029	0.771484375	0.271484375	0.02880859375	-59.3125	67.0	21.3125
18	12	13	20	13	06	-0.384812045528	-0.666844791347	0.210441226484	0.69921875	0.1279296875	0.19677734375	-4.5	87.8125	9.3125
18	12	13	20	13	06	-0.382731805171	-0.657925188924	0.198476133059	0.76123046875	0.0537109375	0.31982421875	53.1875	93.0625	-5.125
18	12	13	20	13	06	-0.373454842653	-0.65469032475	0.17943409665	0.859375	0.09912109375	0.38818359375	113.375	93.0625	-5.3125
18	12	13	20	13	06	-0.358387638055	-0.653971992807	0.154109125696	0.90234375	0.154296875	0.3994140625	164.9375	96.25	-7.625
18	12	13	20	13	06	-0.341292479599	-0.653350499662	0.125360292042	0.93212890625	0.23779296875	0.3330078125	184.6875	102.0625	-11.75
18	12	13	20	13	06	-0.325367503296	-0.650857072809	0.0961271464436	0.955078125	0.333984375	0.2099609375	177.3125	110.875	-16.9375
18	12	13	20	13	06	-0.313705321818	-0.645476164114	0.0701869883444	0.892578125	0.392578125	0.099609375	141.625	114.375	-21.1875
18	12	13	20	13	06	-0.307785178429	-0.637419869821	0.0506566920674	0.84765625	0.35595703125	0.0615234375	88.5625	109.9375	-23.375
18	12	13	20	13	06	-0.307109724179	-0.627341187368	0.0369239632608	0.8408203125	0.27197265625	0.07470703125	42.5625	103.5	-27.3125
18	12	13	20	13	06	-0.30827884374	-0.616923886859	0.0275259866416	0.83642578125	0.18115234375	0.09375	17.0	99.25	-28.8125
18	12	13	20	13	06	-0.309494673752	-0.606172569455	0.0194082639032	0.81689453125	0.11181640625	0.11669921875	12.375	97.875	-29.375
18	12	13	20	13	06	-0.310531814711	-0.595613203569	0.0103754733689	0.806640625	0.087890625	0.12451171875	17.5625	98.5625	-34.375
18	12	13	20	13	06	-0.312125277214	-0.585067052674	0.000183100475487	0.8125	0.12255859375	0.12841796875	19.625	99.4375	-40.3125
18	12	13	20	13	06	-0.314809659665	-0.574445233961	-0.00897189220062	0.83984375	0.1630859375	0.12353515625	10.6875	97.875	-41.875
18	12	13	20	13	06	-0.318958913993	-0.563457461536	-0.0152582718137	0.8740234375	0.1943359375	0.11376953125	-8.6875	95.4375	-39.5
18	12	13	20	13	06	-0.32444703038	-0.551852906075	-0.0180044909635	0.89794921875	0.2158203125	0.11279296875	-30.5	92.625	-34.5
18	12	13	20	13	06	-0.330906310711	-0.539935103442	-0.0171495155496	0.921875	0.21484375	0.10400390625	-50.375	89.375	-29.0625
18	12	13	20	13	06	-0.338123030075	-0.527752678892	-0.0131831361907	0.94580078125	0.203125	0.111328125	-67.1875	85.1875	-24.4375
18	12	13	20	13	06	-0.345631089612	-0.515547556764	-0.006530553874	0.94921875	0.19775390625	0.11865234375	-79.9375	80.25	-18.375
18	12	13	20	13	06	-0.352579591837	-0.503510755177	0.00158682177389	0.92138671875	0.19091796875	0.1376953125	-84.625	75.875	-10.625
18	12	13	20	13	06	-0.357894044842	-0.492043279249	0.0097041529894	0.87744140625	0.15869140625	0.20263671875	-76.0625	69.625	-2.9375
18	12	13	20	13	06	-0.360933893357	-0.482384425616	0.0164782129196	0.82861328125	0.13916015625	0.2666015625	-58.5	58.875	3.375
18	12	13	20	13	06	-0.361863116014	-0.475322979848	0.0213614590327	0.78564453125	0.14697265625	0.30615234375	-38.125	46.1875	8.4375
18	12	13	20	13	06	-0.36076033934	-0.471045220611	0.0226428837583	0.76416015625	0.19970703125	0.43359375	-10.125	31.0625	9.75
18	12	13	20	13	06	-0.358383101752	-0.474467001536	0.021178292968	1.0107421875	0.2265625	0.65478515625	25.8125	-12.375	-4.5625
18	12	13	20	13	06	-0.357153570638	-0.486417286054	0.0229476661927	1.30419921875	0.369140625	0.69921875	20.4375	-67.5	-13.0
18	12	13	20	13	06	-0.351234429703	-0.499662254731	0.032529617903	1.0146484375	0.5234375	0.599609375	-6.75	-96.0625	48.625
18	12	13	20	13	06	-0.339465191038	-0.512615630983	0.049924941796	0.681640625	0.58447265625	0.39404296875	-23.125	-107.9375	97.9375
18	12	13	20	13	06	-0.328659889553	-0.5255506609	0.0679901795659	0.4990234375	0.54443359375	0.3486328125	-28.6875	-113.875	93.625
18	12	13	20	13	06	-0.320843289015	-0.54006891088	0.0851391265315	0.47265625	0.3896484375	0.38818359375	-30.8125	-128.1875	69.375
18	12	13	20	13	06	-0.313042573658	-0.558154481596	0.0990579249458	0.66455078125	0.18603515625	0.34814453125	-9.6875	-146.5	48.8125
18	12	13	20	13	06	-0.306874476457	-0.579692477604	0.106075544965	1.08642578125	0.03076171875	0.1669921875	19.9375	-153.9375	7.4375
18	12	13	20	13	06	-0.300882919936	-0.600179033398	0.104912320359	1.125	0.04736328125	0.046875	52.4375	-130.5625	-18.125
18	12	13	20	13	06	-0.28788826722	-0.619353431366	0.100092592377	0.9580078125	0.21533203125	-0.0224609375	90.9375	-111.1875	9.3125
18	12	13	20	13	06	-0.27507162146	-0.637541193204	0.0949659292194	0.96826171875	0.3779296875	-0.0615234375	89.625	-106.5625	10.4375
18	12	13	20	13	06	-0.270135176209	-0.651962031692	0.0961280846204	0.96484375	0.47900390625	-0.04638671875	28.4375	-102.25	2.875
18	12	13	20	13	06	-0.272394630773	-0.662096561647	0.107297728187	0.939453125	0.4912109375	0.00390625	-45.375	-100.5	13.1875
18	12	13	20	13	06	-0.281047712863	-0.669082752685	0.123770849443	0.9365234375	0.421875	0.05517578125	-96.6875	-96.375	18.5
18	12	13	20	13	06	-0.291861715976	-0.673015295288	0.143489522012	0.9501953125	0.33837890625	0.13037109375	-120.5625	-88.4375	13.375
18	12	13	20	13	06	-0.303398310093	-0.6757036192	0.161250922403	0.935546875	0.22607421875	0.17626953125	-116.9375	-79.6875	2.5625
18	12	13	20	13	06	-0.312178323488	-0.677271330547	0.173330682054	0.9326171875	0.13134765625	0.29638671875	-80.875	-72.375	-6.625
18	12	13	20	13	06	-0.316151230638	-0.679969278097	0.179742350237	0.9169921875	0.115234375	0.37646484375	-35.375	-68.375	-8.875
18	12	13	20	13	06	-0.314436009474	-0.685021306355	0.181264547387	0.8876953125	0.12841796875	0.3896484375	10.625	-69.5625	-5.6875
18	12	13	20	13	06	-0.307917968261	-0.691701552884	0.179074592444	0.83984375	0.177734375	0.39501953125	47.6875	-69.0	1.875
18	12	13	20	13	06	-0.298146094262	-0.699254821282	0.173943985394	0.81689453125	0.2216796875	0.39111328125	74.4375	-66.0	6.5625
18	12	13	20	13	06	-0.286054738317	-0.707416358401	0.165944705245	0.8544921875	0.23974609375	0.388671875	95.875	-63.1875	5.0625
18	12	13	20	13	06	-0.271409593049	-0.718103276774	0.157462727697	0.89306640625	0.2548828125	0.35693359375	105.3125	-59.875	3.4375
18	12	13	20	13	06	-0.256831343604	-0.728075355952	0.148007606521	0.94873046875	0.30126953125	0.28857421875	108.1875	-53.1875	0.875
18	12	13	20	13	06	-0.24724180107	-0.734584625445	0.136651294148	1.0302734375	0.37548828125	0.1884765625	94.1875	-41.0	-9.3125
18	12	13	20	13	06	-0.244248136513	-0.738420340748	0.126823495171	1.21435546875	0.50927734375	0.1494140625	58.375	-28.5625	-18.25
18	12	13	20	13	07	-0.249439615721	-0.738980882592	0.120966312298	1.44482421875	0.52294921875	0.07177734375	3.6875	-14.375	-32.4375
18	12	13	20	13	07	-0.262375498234	-0.735554664973	0.122246597572	1.5986328125	0.52197265625	0.02392578125	-60.625	-1.8125	-30.5625
18	12	13	20	13	07	-0.278545098819	-0.728770163233	0.129385541082	1.44775390625	0.39990234375	-0.08349609375	-103.5625	21.375	-22.3125
18	12	13	20	13	07	-0.295455492595	-0.717430141594	0.140007209257	1.0947265625	0.34716796875	-0.08349609375	-123.75	48.5	-0.625
18	12	13	20	13	07	-0.307797589788	-0.703607101938	0.146055846195	0.9599609375	0.20458984375	0.05126953125	-87.4375	77.375	3.9375
18	12	13	20	13	07	-0.313460307527	-0.689905630118	0.142570731772	0.9462890625	0.05322265625	0.1962890625	-20.3125	99.9375	-12.625
18	12	13	20	13	07	-0.311933009451	-0.680320339727	0.128471724691	0.9609375	0.06103515625	0.29443359375	52.625	109.8125	-20.6875
18	12	13	20	13	07	-0.302418508568	-0.673132942683	0.106014318745	0.99267578125	0.12890625	0.31982421875	121.0625	117.5625	-21.0
18	12	13	20	13	07	-0.288022540215	-0.666925682758	0.0772088394517	1.015625	0.18310546875	0.2998046875	165.9375	125.0	-26.3125
18	12	13	20	13	07	-0.272753454162	-0.659637353454	0.0462014689641	0.98779296875	0.2509765625	0.22802734375	175.3125	132.1875	-30.1875
18	12	13	20	13	07	-0.259448879237	-0.650117492739	0.0172721789753	0.8828125	0.33447265625	0.12744140625	155.125	137.625	-29.3125
18	12	13	20	13	07	-0.249864181904	-0.63839260936	-0.00756794297903	0.779296875	0.330078125	0.10546875	121.0	137.0	-30.1875
18	12	13	20	13	07	-0.244128803337	-0.62551902635	-0.0279527479821	0.76611328125	0.24365234375	0.12255859375	86.6875	129.9375	-34.3125
18	12	13	20	13	07	-0.24211185571	-0.612206711526	-0.0452243219261	0.82763671875	0.158203125	0.1279296875	60.25	121.1875	-42.8125
18	12	13	20	13	07	-0.242413990008	-0.598589228097	-0.0610307124895	0.8505859375	0.11669921875	0.119140625	45.6875	116.75	-50.75
18	12	13	20	13	07	-0.24400087351	-0.584491337069	-0.0761663557129	0.8486328125	0.10888671875	0.115234375	38.125	115.75	-55.5
18	12	13	20	13	07	-0.24700622884	-0.569817186174	-0.090269882	0.86279296875	0.12646484375	0.09033203125	27.6875	115.25	-59.6875
18	12	13	20	13	07	-0.252131521517	-0.554371970453	-0.101743705245	0.88720703125	0.15576171875	0.08154296875	8.125	113.1875	-61.375
18	12	13	20	13	07	-0.259697280879	-0.538131827381	-0.109005721187	0.9345703125	0.18701171875	0.08203125	-20.0	109.25	-60.25
18	12	13	20	13	07	-0.269701775695	-0.52109385854	-0.111261900225	0.97265625	0.20751953125	0.068359375	-51.8125	104.625	-56.625
18	12	13	20	13	07	-0.28081886703	-0.503288932305	-0.108457971466	0.9658203125	0.22021484375	0.06005859375	-80.125	101.0	-46.8125
18	12	13	20	13	07	-0.291492905791	-0.484722918299	-0.101558667344	0.9296875	0.21875	0.06787109375	-99.375	100.0625	-32.25
18	12	13	20	13	07	-0.301123317451	-0.466088118235	-0.0923387878603	0.9208984375	0.19287109375	0.10302734375	-107.0	97.0	-21.0
18	12	13	20	13	07	-0.309306724111	-0.448397099851	-0.082514343133	0.92822265625	0.18115234375	0.15380859375	-103.875	90.8125	-13.1875
18	12	13	20	13	07	-0.313212494604	-0.435824322675	-0.071894839954	0.91748046875	0.1787109375	0.2255859375	-87.875	83.0625	-3.625
18	12	13	20	13	07	-0.314073206479	-0.425762667781	-0.0640841171401	0.87841796875	0.17578125	0.31591796875	-59.75	71.25	6.1875
18	12	13	20	13	07	-0.311866740441	-0.418914541367	-0.0595659371175	0.81982421875	0.18115234375	0.38525390625	-29.0625	55.75	14.875
18	12	13	20	13	07	-0.307366657674	-0.415640774178	-0.0589587353679	0.77294921875	0.23193359375	0.466796875	1.9375	37.375	19.5625
18	12	13	20	13	07	-0.302412076361	-0.419592941469	-0.0613978907808	0.9296875	0.28466796875	0.6015625	32.9375	-1.0	9.375
18	12	13	20	13	07	-0.298562035318	-0.431486833544	-0.0623123135853	1.12548828125	0.40185546875	0.68798828125	36.0625	-50.8125	3.8125
18	12	13	20	13	07	-0.291420356635	-0.44735313385	-0.0587723148564	0.98486328125	0.53369140625	0.626953125	23.125	-84.8125	41.8125
18	12	13	20	13	07	-0.280391301486	-0.464287468524	-0.0473625707342	0.71875	0.6171875	0.482421875	-0.4375	-108.75	84.125
18	12	13	20	13	07	-0.269022480321	-0.482079984587	-0.0319799863177	0.55517578125	0.61669921875	0.37890625	-17.4375	-122.1875	96.5625
18	12	13	20	13	07	-0.259875607262	-0.500953260782	-0.0149529177499	0.49755859375	0.54443359375	0.35498046875	-28.625	-137.0625	87.375
18	12	13	20	13	07	-0.253093888154	-0.522116762276	0.00183091792733	0.63916015625	0.37109375	0.296875	-28.9375	-155.3125	68.25
18	12	13	20	13	07	-0.250533968098	-0.544339211075	0.0156240428339	0.98486328125	0.21337890625	0.08984375	-25.9375	-160.1875	31.625
18	12	13	20	13	07	-0.251024119411	-0.563934564394	0.0233752097579	1.07568359375	0.1669921875	-0.02783203125	-11.4375	-137.5	-2.0
18	12	13	20	13	07	-0.246255518749	-0.582041854352	0.0262428433859	0.91552734375	0.1650390625	-0.0166015625	26.0625	-119.5	9.9375
18	12	13	20	13	07	-0.238082773244	-0.600486133287	0.0252669233846	0.94140625	0.24462890625	-0.017578125	54.5625	-115.5	13.75
18	12	13	20	13	07	-0.23204519166	-0.617708938662	0.0241688311145	0.9521484375	0.35888671875	-0.0009765625	45.8125	-111.875	5.625
18	12	13	20	13	07	-0.228748039876	-0.632657999295	0.0281357647767	0.90185546875	0.41943359375	0.04541015625	11.625	-109.375	13.4375
18	12	13	20	13	07	-0.228442344505	-0.64529011714	0.0368632583706	0.859375	0.3994140625	0.109375	-22.0625	-105.4375	19.25
18	12	13	20	13	07	-0.23106187126	-0.656201067033	0.0478479944712	0.85546875	0.3798828125	0.16943359375	-43.75	-101.8125	15.3125
18	12	13	20	13	07	-0.236866177898	-0.664946407679	0.0587130283788	0.9033203125	0.3662109375	0.22216796875	-57.5	-97.75	10.5625
18	12	13	20	13	07	-0.243765715092	-0.672156189362	0.0702489579548	0.943359375	0.32666015625	0.27099609375	-64.3125	-94.1875	6.8125
18	12	13	20	13	07	-0.249869047355	-0.678625778588	0.0811738722477	0.958984375	0.24951171875	0.326171875	-57.875	-94.125	3.5
18	12	13	20	13	07	-0.253103576443	-0.685399846503	0.0900846102795	0.92919921875	0.18505859375	0.37255859375	-36.875	-95.75	4.0
18	12	13	20	13	07	-0.252002993564	-0.693084522867	0.0953326897427	0.8876953125	0.1806640625	0.38330078125	-3.1875	-95.5	7.875
18	12	13	20	13	07	-0.247297534854	-0.701551126146	0.0964899808992	0.86279296875	0.2158203125	0.376953125	28.125	-91.4375	8.8125
18	12	13	20	13	08	-0.240951404185	-0.710159711019	0.0949036052453	0.84326171875	0.2734375	0.32275390625	45.5625	-84.25	9.125
18	12	13	20	13	08	-0.234368960025	-0.718121141575	0.0919165765096	0.8662109375	0.3193359375	0.27978515625	51.0	-75.8125	8.5625
18	12	13	20	13	08	-0.229475883253	-0.724802018487	0.0884336582003	0.921875	0.35009765625	0.236328125	44.5	-64.8125	3.125
18	12	13	20	13	08	-0.227277898818	-0.729559613984	0.0855038496898	0.984375	0.36865234375	0.1865234375	28.9375	-50.625	-2.25
18	12	13	20	13	08	-0.228753389757	-0.731913193695	0.0839820342331	1.02734375	0.39990234375	0.125	5.375	-33.375	-6.1875
18	12	13	20	13	08	-0.234973910631	-0.7314097	0.0851398974883	1.0361328125	0.4228515625	0.06787109375	-28.3125	-15.1875	-7.9375
18	12	13	20	13	08	-0.245712802803	-0.727678526531	0.0898993935738	1.1220703125	0.44189453125	0.09326171875	-63.75	-1.5	-7.1875
18	12	13	20	13	08	-0.259812969872	-0.721153406627	0.0961253059781	1.3466796875	0.35205078125	0.15185546875	-86.0625	9.6875	-20.4375
18	12	13	20	13	08	-0.276597242332	-0.714197027751	0.104486866477	1.466796875	0.33251953125	0.17626953125	-109.25	16.0625	-24.375
18	12	13	20	13	08	-0.293994719434	-0.704745074798	0.114009162529	1.43896484375	0.35498046875	0.125	-119.5625	31.5	-17.8125
18	12	13	20	13	08	-0.311993805235	-0.691793775889	0.126152424769	1.1904296875	0.38134765625	0.03759765625	-136.75	51.375	-1.5
18	12	13	20	13	08	-0.327553938534	-0.675736390432	0.138662669713	0.94580078125	0.33154296875	0.0419921875	-131.125	74.6875	17.5625
18	12	13	20	13	08	-0.337874764726	-0.658477391009	0.146233369993	0.82373046875	0.216796875	0.11572265625	-91.5	96.9375	25.1875
18	12	13	20	13	08	-0.341348143004	-0.643270056724	0.145010403679	0.81103515625	0.12646484375	0.24951171875	-26.0	110.6875	19.5625
18	12	13	20	13	08	-0.337265841956	-0.631259609728	0.134149533228	0.87255859375	0.0791015625	0.40087890625	47.625	117.0625	13.6875
18	12	13	20	13	08	-0.322188142715	-0.624846032414	0.10967457709	0.9169921875	0.15185546875	0.24072265625	152.3125	122.75	7.375
18	12	13	20	13	08	-0.299608006889	-0.620455285807	0.0768397801329	0.93701171875	0.1884765625	0.2392578125	216.6875	128.375	8.1875
18	12	13	20	13	08	-0.276113636342	-0.614297911093	0.0416855909863	0.9755859375	0.361328125	0.13427734375	225.0625	139.0	5.6875
18	12	13	20	13	08	-0.259384403786	-0.604091018511	0.0113518821422	0.8671875	0.52685546875	0.03466796875	172.875	144.875	-5.125
18	12	13	20	13	08	-0.252244092243	-0.589566399967	-0.00701864761866	0.74853515625	0.5615234375	0.10888671875	81.0625	139.75	-6.375
18	12	13	20	13	08	-0.244372743259	-0.547519450494	-0.0296616266793	0.73095703125	0.05615234375	0.26220703125	12.9375	100.6875	-7.375
18	12	13	20	13	08	-0.24168140451	-0.536886695826	-0.0372897318574	0.7548828125	0.0263671875	0.25537109375	31.875	91.0625	-18.125
18	12	13	20	13	08	-0.239239269277	-0.52821833561	-0.0480309451329	0.77294921875	0.07763671875	0.2431640625	47.125	82.9375	-28.6875
18	12	13	20	13	08	-0.238027408399	-0.520974861051	-0.0588965254117	0.7783203125	0.16015625	0.22509765625	43.5625	73.9375	-32.875
18	12	13	20	13	08	-0.238573732011	-0.514437960379	-0.066280653099	0.794921875	0.20947265625	0.2080078125	20.9375	64.3125	-30.0
18	12	13	20	13	08	-0.241019820481	-0.50865008455	-0.0685402021778	0.826171875	0.21630859375	0.2021484375	-7.5	53.625	-25.25
18	12	13	20	13	08	-0.244921658137	-0.503636561911	-0.0661587534066	0.8642578125	0.20068359375	0.21923828125	-31.8125	41.9375	-20.875
18	12	13	20	13	08	-0.249560702212	-0.500097919766	-0.0601167257713	0.91748046875	0.18505859375	0.2138671875	-48.625	29.75	-16.375
18	12	13	20	13	08	-0.254622821251	-0.49783277875	-0.0513273712061	0.94677734375	0.19580078125	0.19189453125	-61.625	19.6875	-10.875
18	12	13	20	13	08	-0.25949932542	-0.496722720978	-0.0408290330918	0.9609375	0.2138671875	0.18115234375	-68.75	11.625	-4.1875
18	12	13	20	13	08	-0.263786858792	-0.496507657629	-0.029479188523	0.94580078125	0.21435546875	0.18994140625	-69.875	3.5625	2.0625
18	12	13	20	13	08	-0.266716035399	-0.497300287513	-0.0185541589843	0.90966796875	0.21533203125	0.21875	-61.6875	-4.1875	9.0
18	12	13	20	13	08	-0.267504771984	-0.499976977434	-0.0097651753405	0.94384765625	0.21875	0.298828125	-41.4375	-15.125	12.5
18	12	13	20	13	08	-0.266835416507	-0.506877432317	-0.00378403381139	1.11181640625	0.24169921875	0.37548828125	-16.5625	-36.875	7.0
18	12	13	20	13	08	-0.264944618449	-0.517499520809	0.00122066168371	1.2275390625	0.33837890625	0.4560546875	-3.9375	-62.0	11.0
18	12	13	20	13	08	-0.259996451625	-0.530795572719	0.00744590776954	1.1435546875	0.42578125	0.46435546875	1.0625	-85.3125	35.0
18	12	13	20	13	08	-0.251577013704	-0.545144562446	0.0167229747101	0.9755859375	0.451171875	0.43310546875	2.5	-101.6875	58.9375
18	12	13	20	13	08	-0.243213360186	-0.560458792119	0.0264879795034	0.83203125	0.43310546875	0.3642578125	1.375	-111.5625	58.5625
18	12	13	20	13	08	-0.236498288569	-0.576079315045	0.0353374216984	0.74365234375	0.41748046875	0.32763671875	0.4375	-115.75	46.9375
18	12	13	20	13	08	-0.231382225443	-0.592401973133	0.0407711228161	0.85498046875	0.3359375	0.26318359375	11.5	-117.875	24.75
18	12	13	20	13	08	-0.23015302603	-0.607149907968	0.0430888454992	1.02783203125	0.2626953125	0.05224609375	9.875	-103.25	-4.625
18	12	13	20	13	08	-0.231559187587	-0.621132802338	0.0441878892496	1.01220703125	0.32177734375	-0.126953125	-1.4375	-78.625	-15.8125
18	12	13	20	13	08	-0.234611128854	-0.632424692295	0.0452255063685	0.9658203125	0.43994140625	-0.1689453125	-11.875	-62.0	-12.3125
18	12	13	20	13	08	-0.241083014313	-0.640731515003	0.0499865794235	0.9306640625	0.45556640625	-0.158203125	-43.125	-52.6875	-10.375
18	12	13	20	13	08	-0.250847273442	-0.645794403963	0.0602399656659	0.9033203125	0.36279296875	-0.08740234375	-79.75	-47.8125	-7.5
18	12	13	20	13	08	-0.262254147844	-0.648097927845	0.0727500452012	0.88916015625	0.234375	0.0361328125	-95.0	-44.0625	-11.0
18	12	13	20	13	08	-0.27403849287	-0.64884258746	0.0840425400181	0.8642578125	0.158203125	0.15087890625	-90.25	-40.3125	-19.6875
18	12	13	20	13	08	-0.284901834177	-0.648963411056	0.092464926902	0.8447265625	0.13134765625	0.2275390625	-74.4375	-35.8125	-26.5
18	12	13	20	13	09	-0.294668183229	-0.648599582264	0.098690648774	0.8134765625	0.15087890625	0.26953125	-61.3125	-30.9375	-26.875
18	12	13	20	13	09	-0.304245908746	-0.647491443507	0.104243131823	0.76904296875	0.18115234375	0.3037109375	-58.375	-27.25	-24.6875
18	12	13	20	13	09	-0.314376166223	-0.645841310613	0.110468037442	0.72265625	0.1923828125	0.32763671875	-63.625	-27.5625	-22.8125
18	12	13	20	13	09	-0.324805794853	-0.644240881336	0.117850430263	0.71044921875	0.1767578125	0.3427734375	-69.125	-33.625	-21.5625
18	12	13	20	13	09	-0.334642614902	-0.643468372955	0.126154711837	0.724609375	0.1494140625	0.37060546875	-68.875	-43.9375	-20.8125
18	12	13	20	13	09	-0.342934834558	-0.644185296095	0.134268844283	0.7431640625	0.14111328125	0.38818359375	-59.5	-55.0625	-19.0
18	12	13	20	13	09	-0.348859464159	-0.646879191851	0.141289303626	0.7548828125	0.1484375	0.3828125	-43.0625	-65.375	-16.5625
18	12	13	20	13	09	-0.352516978635	-0.651326384348	0.147024480875	0.7578125	0.203125	0.38037109375	-27.1875	-73.1875	-11.6875
18	12	13	20	13	09	-0.354059372742	-0.657277259965	0.151792046201	0.8095703125	0.2568359375	0.38671875	-12.75	-81.25	-6.75
18	12	13	20	13	09	-0.354483462708	-0.664412357962	0.156429255324	0.92529296875	0.2939453125	0.373046875	-6.25	-89.125	-5.625
18	12	13	20	13	09	-0.354777537774	-0.671837456703	0.161428967385	1.02099609375	0.33935546875	0.33154296875	-7.5625	-91.3125	-4.0
18	12	13	20	13	09	-0.355332293172	-0.67874449199	0.167107492048	1.083984375	0.36328125	0.24755859375	-13.0625	-86.6875	-1.625
18	12	13	20	13	09	-0.356984877086	-0.684124378057	0.173457175701	1.08447265625	0.3671875	0.16943359375	-23.25	-75.4375	-0.25
18	12	13	20	13	09	-0.359549871432	-0.687545289709	0.179561317561	1.15234375	0.39599609375	0.13232421875	-28.5625	-60.0625	1.5
18	12	13	20	13	09	-0.362650395224	-0.689475179207	0.183949560957	1.318359375	0.36865234375	0.10302734375	-26.5625	-42.375	-7.6875
18	12	13	20	13	09	-0.366930263131	-0.688940254529	0.189629462334	1.35595703125	0.38330078125	0.08154296875	-39.375	-27.875	-0.375
18	12	13	20	13	09	-0.371201905798	-0.686253572639	0.194633817427	1.375	0.3779296875	0.05908203125	-39.1875	-7.5	4.5
18	12	13	20	13	09	-0.376519422591	-0.681201698093	0.199093265763	1.216796875	0.37255859375	0.02783203125	-45.1875	15.1875	8.6875
18	12	13	20	13	09	-0.381754749627	-0.673670491827	0.203053245725	0.9736328125	0.35546875	0.05078125	-44.8125	35.25	20.0625
18	12	13	20	13	09	-0.384871114274	-0.664949379958	0.203238314388	0.8857421875	0.2919921875	0.15576171875	-20.8125	54.375	20.125
18	12	13	20	13	09	-0.384319168829	-0.656888552344	0.197316797336	0.88037109375	0.2001953125	0.29345703125	22.3125	66.1875	10.125
18	12	13	20	13	09	-0.377920085299	-0.651106503548	0.185542160741	0.876953125	0.19140625	0.37890625	74.25	69.625	11.6875
18	12	13	20	13	09	-0.364853149467	-0.65005869772	0.167961837961	0.8935546875	0.24072265625	0.39599609375	125.8125	73.5625	11.9375
18	12	13	20	13	09	-0.349107965812	-0.650366168477	0.145136143829	0.92333984375	0.28955078125	0.36962890625	157.8125	78.3125	2.1875
18	12	13	20	13	09	-0.333109914347	-0.650107513306	0.120598239419	0.90380859375	0.3232421875	0.27734375	163.875	84.0	-3.125
18	12	13	20	13	09	-0.31835668938	-0.648004787413	0.0971671490592	0.82080078125	0.32470703125	0.17724609375	150.0625	89.4375	-3.1875
18	12	13	20	13	09	-0.305951473388	-0.644005574944	0.0760453891565	0.732421875	0.28076171875	0.11962890625	128.25	91.75	-4.875
18	12	13	20	13	09	-0.295950315977	-0.638713148423	0.0566999058657	0.701171875	0.22216796875	0.119140625	109.5	91.3125	-9.75
18	12	13	20	13	09	-0.287640697512	-0.633017041077	0.0376563357448	0.72998046875	0.15869140625	0.14453125	101.4375	88.625	-18.9375
18	12	13	20	13	09	-0.280384373001	-0.627355457134	0.0176994924184	0.79638671875	0.1103515625	0.1513671875	101.375	86.25	-29.875
18	12	13	20	13	09	-0.273181430898	-0.621737988507	-0.0015258122816	0.86083984375	0.12646484375	0.14990234375	99.1875	85.4375	-38.8125
18	12	13	20	13	09	-0.267810218023	-0.615694958847	-0.0198965658787	0.900390625	0.185546875	0.13623046875	87.0625	85.125	-43.25
18	12	13	20	13	09	-0.265246248643	-0.608796900648	-0.034971491135	0.93896484375	0.23046875	0.11962890625	60.5625	83.875	-44.0
18	12	13	20	13	09	-0.266404960742	-0.600677577005	-0.0448585672727	0.9599609375	0.255859375	0.10205078125	22.5	81.375	-42.875
18	12	13	20	13	09	-0.270927816568	-0.591353821745	-0.0487047527869	0.96044921875	0.25439453125	0.09326171875	-17.4375	77.8125	-37.5625
18	12	13	20	13	09	-0.277751529317	-0.581136027721	-0.0469937766588	0.96484375	0.2255859375	0.08154296875	-50.875	75.1875	-31.75
18	12	13	20	13	09	-0.286361925771	-0.570099477542	-0.0413796644656	0.97265625	0.20556640625	0.0693359375	-75.5625	74.5	-27.625
18	12	13	20	13	09	-0.296129632722	-0.558264169519	-0.0328354786488	0.96435546875	0.19482421875	0.0654296875	-93.6875	74.625	-23.625
18	12	13	20	13	09	-0.307654279808	-0.54323164939	-0.023740828178	0.94091796875	0.1962890625	0.07470703125	-104.875	75.625	-17.3125
18	12	13	20	13	09	-0.317916302499	-0.527988852548	-0.0140373871328	0.916015625	0.1767578125	0.111328125	-103.9375	75.25	-9.3125
18	12	13	20	13	09	-0.324324477969	-0.51572108371	-0.00353986069292	0.89697265625	0.14794921875	0.166015625	-90.625	72.5	-1.1875
18	12	13	20	13	09	-0.327869176817	-0.504864823274	0.0044554076522	0.86962890625	0.13427734375	0.23193359375	-66.6875	67.125	5.0625
18	12	13	20	13	09	-0.328468212827	-0.496852419292	0.00848329275047	0.91943359375	0.15576171875	0.3544921875	-33.0	55.625	6.1875
18	12	13	20	13	09	-0.327921124911	-0.494719642385	0.00915469360445	1.12548828125	0.2099609375	0.44970703125	-3.375	27.6875	-5.0625
18	12	13	20	13	09	-0.32670145376	-0.497589567066	0.00958194063895	1.2568359375	0.353515625	0.5146484375	5.375	-1.8125	-3.0625
18	12	13	20	13	09	-0.322919522227	-0.503268641142	0.0136711345641	1.13232421875	0.47802734375	0.4873046875	-3.75	-28.5625	28.125
18	12	13	20	13	09	-0.316514196102	-0.509498748372	0.0223989028094	0.85888671875	0.53662109375	0.39306640625	-20.8125	-43.8125	65.0625
18	12	13	20	13	09	-0.309364807211	-0.515831791388	0.0324683522265	0.63134765625	0.53125	0.3232421875	-25.5625	-51.6875	77.8125
18	12	13	20	13	09	-0.304909122735	-0.52284957055	0.0430266075917	0.54150390625	0.45947265625	0.3291015625	-31.875	-64.375	62.3125
18	12	13	20	13	10	-0.303394632518	-0.532084974108	0.0541972306731	0.64208984375	0.328125	0.3173828125	-36.75	-80.8125	36.4375
18	12	13	20	13	10	-0.303814943708	-0.54427916191	0.0642661984179	0.88720703125	0.2119140625	0.19677734375	-31.25	-88.375	7.5
18	12	13	20	13	10	-0.30455513433	-0.557659371218	0.0698218584517	1.02294921875	0.18701171875	0.08544921875	-10.875	-80.125	-13.5625
18	12	13	20	13	10	-0.302112365061	-0.571083919167	0.070859081987	0.9609375	0.22900390625	0.05419921875	18.25	-71.1875	-8.5
18	12	13	20	13	10	-0.2988154323	-0.58456989595	0.0705536437376	0.90087890625	0.32763671875	0.0498046875	25.8125	-73.0	-2.0
18	12	13	20	13	10	-0.299177013993	-0.596767205798	0.0722004095376	0.884765625	0.3955078125	0.07958984375	2.0	-76.25	-7.8125
18	12	13	20	13	10	-0.304430148639	-0.606174866938	0.0790370975317	0.880859375	0.3837890625	0.13623046875	-40.0	-78.9375	-11.625
18	12	13	20	13	10	-0.313272039275	-0.613239324106	0.0906310107779	0.873046875	0.34228515625	0.18994140625	-74.0625	-82.6875	-12.125
18	12	13	20	13	10	-0.323159840436	-0.619160827427	0.103630861012	0.85693359375	0.29931640625	0.23095703125	-84.1875	-84.625	-13.875
18	12	13	20	13	10	-0.332626483898	-0.62460540114	0.115900494114	0.84130859375	0.25048828125	0.27197265625	-78.4375	-85.5625	-16.875
18	12	13	20	13	10	-0.340990926799	-0.630164904099	0.126521244184	0.82861328125	0.20947265625	0.28173828125	-66.625	-84.875	-21.0625
18	12	13	20	13	10	-0.347529441955	-0.636282829713	0.134580684846	0.81982421875	0.1767578125	0.2978515625	-47.5625	-84.3125	-24.625
18	12	13	20	13	10	-0.350998891461	-0.643772614698	0.13952068612	0.82666015625	0.1513671875	0.31884765625	-19.9375	-86.375	-26.0
18	12	13	20	13	10	-0.350994989393	-0.652859224749	0.141838350782	0.8466796875	0.150390625	0.326171875	7.0	-89.4375	-23.8125
18	12	13	20	13	10	-0.348130537469	-0.663059284548	0.142206197809	0.845703125	0.18359375	0.3154296875	27.5625	-90.8125	-18.0625
18	12	13	20	13	10	-0.343681039806	-0.673507418622	0.141415196098	0.82275390625	0.2490234375	0.2880859375	38.8125	-88.875	-11.3125
18	12	13	20	13	10	-0.338596088084	-0.683600357359	0.139942471156	0.8359375	0.29296875	0.27587890625	43.5625	-85.0625	-7.4375
18	12	13	20	13	10	-0.333848146298	-0.693024808267	0.138543929085	0.904296875	0.30224609375	0.24365234375	40.8125	-80.8125	-8.625
18	12	13	20	13	10	-0.330117512371	-0.701186929124	0.137625252431	0.98388671875	0.3173828125	0.216796875	33.0625	-74.5	-9.0
18	12	13	20	13	10	-0.327622130587	-0.707793190838	0.137200922049	1.0498046875	0.3408203125	0.18701171875	23.875	-64.8125	-8.6875
18	12	13	20	13	10	-0.327250519398	-0.712297801546	0.137808965461	1.09130859375	0.369140625	0.1474609375	8.125	-52.3125	-7.875
18	12	13	20	13	10	-0.32962910598	-0.71412519331	0.140310556313	1.05029296875	0.3974609375	0.1025390625	-14.125	-36.6875	-2.5625
18	12	13	20	13	10	-0.334209242549	-0.712971579886	0.144400852423	1.10400390625	0.43603515625	0.1435546875	-31.875	-23.1875	3.5
18	12	13	20	13	10	-0.34024972382	-0.709794491125	0.147939969603	1.28173828125	0.3623046875	0.216796875	-37.4375	-12.375	-7.8125
18	12	13	20	13	10	-0.347462632875	-0.704690595322	0.152461207961	1.431640625	0.3662109375	0.302734375	-46.5625	-6.875	-6.875
18	12	13	20	13	10	-0.352890573007	-0.699311688952	0.155144904287	1.4228515625	0.2802734375	0.25	-34.0625	8.1875	-10.1875
18	12	13	20	13	10	-0.357591811907	-0.692601447606	0.158746595455	1.07177734375	0.32080078125	0.09716796875	-38.875	28.75	11.0
18	12	13	20	13	10	-0.360146670621	-0.684589934648	0.159414184657	0.80615234375	0.322265625	0.05517578125	-21.0	55.125	20.8125
18	12	13	20	13	10	-0.361373464233	-0.675324671801	0.15532772614	0.73583984375	0.24560546875	0.1435546875	2.1875	75.375	11.1875
18	12	13	20	13	10	-0.359176285343	-0.666902169914	0.146294911804	0.826171875	0.1669921875	0.23486328125	38.3125	83.0625	-0.0625
18	12	13	20	13	10	-0.351173382174	-0.660601440503	0.131644244934	0.919921875	0.1669921875	0.31396484375	87.9375	85.375	-0.625
18	12	13	20	13	10	-0.33738252824	-0.65840859527	0.110223018452	1.0126953125	0.20556640625	0.34326171875	139.25	87.9375	-3.0625
18	12	13	20	13	10	-0.320920533453	-0.656672502744	0.0849603238051	1.025390625	0.31298828125	0.2890625	164.0	93.125	-5.9375
18	12	13	20	13	10	-0.304974968724	-0.653221350862	0.0597499488455	0.974609375	0.4208984375	0.17724609375	158.125	101.3125	-5.4375
18	12	13	20	13	10	-0.292473211363	-0.647139703691	0.0373525887634	0.8681640625	0.44189453125	0.1025390625	128.5	107.0	-8.25
18	12	13	20	13	10	-0.284154770113	-0.638737934709	0.0189192394191	0.7890625	0.34521484375	0.0927734375	93.125	107.375	-12.3125
18	12	13	20	13	10	-0.278062314447	-0.629485230731	0.00268541304558	0.78515625	0.22021484375	0.1455078125	74.8125	103.375	-17.3125
18	12	13	20	13	10	-0.271231410558	-0.620646312773	-0.0128779990161	0.80517578125	0.12060546875	0.18212890625	77.6875	99.4375	-23.875
18	12	13	20	13	10	-0.263837394546	-0.612508001773	-0.0302714197767	0.8359375	0.09716796875	0.18017578125	89.3125	96.875	-33.0
18	12	13	20	13	10	-0.257377757105	-0.604840780865	-0.0493149698223	0.8544921875	0.15185546875	0.142578125	91.625	96.25	-42.9375
18	12	13	20	13	10	-0.253398519198	-0.596633892986	-0.0671945495272	0.8447265625	0.21728515625	0.10693359375	75.625	95.375	-48.1875
18	12	13	20	13	10	-0.252786730115	-0.58753690266	-0.0811700509544	0.8466796875	0.25439453125	0.07763671875	44.375	93.375	-49.5
18	12	13	20	13	10	-0.255658177411	-0.577351720771	-0.0898984233293	0.8623046875	0.26220703125	0.07568359375	7.3125	90.25	-48.75
18	12	13	20	13	10	-0.261340252433	-0.566318589986	-0.0931352697833	0.8974609375	0.23388671875	0.0830078125	-26.625	86.5625	-47.125
18	12	13	20	13	10	-0.269027411968	-0.554838521371	-0.0919136303141	0.9443359375	0.21875	0.08349609375	-54.0625	83.25	-44.8125
18	12	13	20	13	10	-0.278056396306	-0.543174259684	-0.0872740664436	0.9970703125	0.2138671875	0.08837890625	-73.6875	80.375	-42.125
18	12	13	20	13	10	-0.287767488305	-0.531408593992	-0.0796472051406	1.021484375	0.22607421875	0.0908203125	-90.0625	77.4375	-36.375
18	12	13	20	13	10	-0.297047298733	-0.519695448676	-0.069760645665	1.02197265625	0.228515625	0.111328125	-99.0	74.8125	-26.375
18	12	13	20	13	10	-0.304983634981	-0.5083467472	-0.0586530464713	0.9833984375	0.205078125	0.15185546875	-98.5	69.5	-16.25
18	12	13	20	13	10	-0.311945056825	-0.497732721269	-0.0473013928857	0.9228515625	0.19775390625	0.20458984375	-94.3125	61.375	-8.9375
18	12	13	20	13	10	-0.319187248696	-0.487813322911	-0.0360687694033	0.828125	0.2265625	0.2646484375	-93.0	50.6875	-6.875
18	12	13	20	13	10	-0.327689312003	-0.479357768014	-0.0250848029862	0.8056640625	0.26171875	0.38330078125	-91.125	33.0625	-13.125
18	12	13	20	13	10	-0.33859790418	-0.475001349718	-0.0127554004999	0.94091796875	0.3232421875	0.5087890625	-95.4375	0.0625	-26.0625
18	12	13	20	13	11	-0.348183254039	-0.474578962911	0.000732374942764	0.97607421875	0.400390625	0.63671875	-90.3125	-31.5625	-16.125
18	12	13	20	13	11	-0.353197666804	-0.47868140673	0.0145258414894	0.8544921875	0.41650390625	0.66455078125	-70.75	-63.375	8.75
18	12	13	20	13	11	-0.355336587037	-0.486802579561	0.0285026084071	0.6953125	0.46484375	0.5908203125	-59.0625	-90.0625	26.4375
18	12	13	20	13	11	-0.354894458967	-0.49843904495	0.0438201584761	0.56298828125	0.52685546875	0.51806640625	-48.4375	-108.3125	31.8125
18	12	13	20	13	11	-0.35379619338	-0.512659655751	0.057979365829	0.50341796875	0.51708984375	0.48681640625	-36.25	-123.9375	27.4375
18	12	13	20	13	11	-0.352941302473	-0.53011380828	0.0709788578206	0.66845703125	0.44091796875	0.42138671875	-25.9375	-142.75	14.625
18	12	13	20	13	11	-0.354364172785	-0.54881891865	0.0824571128887	1.0068359375	0.400390625	0.2080078125	-24.9375	-147.25	-8.1875
18	12	13	20	13	11	-0.357521396782	-0.564539590343	0.0911197414468	1.0556640625	0.41796875	0.00244140625	-24.5	-122.5625	-21.4375
18	12	13	20	13	11	-0.358930738774	-0.577548304883	0.0988112338165	0.99951171875	0.4443359375	-0.107421875	-19.75	-100.9375	-9.625
18	12	13	20	13	11	-0.359355875101	-0.591399189831	0.105463137258	0.916015625	0.45751953125	-0.11181640625	-18.875	-87.0	-1.6875
18	12	13	20	13	11	-0.360876652822	-0.60201036757	0.113029521567	0.82373046875	0.39990234375	-0.03125	-28.8125	-78.5625	0.625
18	12	13	20	13	11	-0.365044340246	-0.609790671025	0.122190063396	0.80810546875	0.2890625	0.05224609375	-45.625	-74.25	-8.6875
18	12	13	20	13	11	-0.371737107459	-0.615249019914	0.131215692175	0.8251953125	0.23974609375	0.14404296875	-55.5625	-68.625	-20.375
18	12	13	20	13	11	-0.378950398068	-0.619479230213	0.138909825415	0.841796875	0.2412109375	0.20068359375	-52.8125	-62.375	-24.9375
18	12	13	20	13	11	-0.386155035519	-0.622718480702	0.146112716142	0.8466796875	0.23876953125	0.23388671875	-51.875	-57.9375	-24.875
18	12	13	20	13	11	-0.393836478255	-0.624596702071	0.153616366925	0.8447265625	0.234375	0.28466796875	-55.4375	-54.75	-23.4375
18	12	13	20	13	11	-0.402081115613	-0.625337448478	0.161674692662	0.8330078125	0.22119140625	0.34326171875	-60.6875	-54.1875	-22.5625
18	12	13	20	13	11	-0.409769436274	-0.626006122707	0.169791267756	0.8310546875	0.1923828125	0.388671875	-57.125	-57.875	-21.875
18	12	13	20	13	11	-0.415263375999	-0.627960740102	0.176810405683	0.82861328125	0.1611328125	0.42431640625	-41.125	-64.25	-20.6875
18	12	13	20	13	11	-0.417526921424	-0.631752837839	0.181817380342	0.8173828125	0.158203125	0.45458984375	-15.9375	-70.0625	-16.3125
18	12	13	20	13	11	-0.41593683157	-0.637790152591	0.184501400123	0.8134765625	0.173828125	0.4443359375	12.4375	-73.625	-10.625
18	12	13	20	13	11	-0.410763549563	-0.64568612048	0.184935149358	0.796875	0.20556640625	0.4208984375	38.5	-75.125	-3.1875
18	12	13	20	13	11	-0.402331336372	-0.655192186886	0.183466018983	0.81494140625	0.24072265625	0.38232421875	61.25	-75.5	3.4375
18	12	13	20	13	11	-0.391350694477	-0.665760039824	0.180294752259	0.8916015625	0.2587890625	0.35302734375	79.875	-74.4375	5.9375
18	12	13	20	13	11	-0.37907251801	-0.67642259171	0.175895507472	0.98974609375	0.28515625	0.3037109375	89.25	-69.0625	7.1875
18	12	13	20	13	11	-0.366442737096	-0.686012052791	0.17089268219	1.03759765625	0.3212890625	0.26220703125	91.25	-59.0	11.1875
18	12	13	20	13	11	-0.354772882876	-0.693616689125	0.166126232098	1.06689453125	0.35107421875	0.20751953125	82.6875	-44.5625	14.9375
18	12	13	20	13	11	-0.345266261995	-0.698527906759	0.162104859795	1.04541015625	0.38916015625	0.14599609375	66.375	-26.4375	19.25
18	12	13	20	13	11	-0.338115697394	-0.700460985378	0.159048647547	1.0947265625	0.43017578125	0.15478515625	49.25	-10.0625	23.1875
18	12	13	20	13	11	-0.333729114419	-0.699927850066	0.156305826999	1.236328125	0.392578125	0.189453125	33.875	2.875	14.625
18	12	13	20	13	11	-0.332250884455	-0.696970077237	0.155506108301	1.2958984375	0.3828125	0.21484375	11.75	11.5	13.9375
18	12	13	20	13	11	-0.331529494081	-0.692537770496	0.154412669371	1.43017578125	0.36572265625	0.228515625	8.0	22.9375	10.875
18	12	13	20	13	11	-0.333238876973	-0.68655753243	0.154473918978	1.2802734375	0.37890625	0.0966796875	-11.9375	39.4375	12.125
18	12	13	20	13	11	-0.3366035926	-0.677784749922	0.15691891869	0.951171875	0.4169921875	0.05029296875	-32.4375	56.625	30.0625
18	12	13	20	13	11	-0.33995091999	-0.666352629165	0.158684450983	0.7314453125	0.34228515625	0.07421875	-32.625	77.25	34.25
18	12	13	20	13	11	-0.341787915829	-0.653730422579	0.156123837266	0.66455078125	0.22705078125	0.1611328125	-9.5625	94.5625	23.3125
18	12	13	20	13	11	-0.33933565166	-0.643211948353	0.147696452701	0.7099609375	0.15625	0.25634765625	33.1875	101.5	13.125
18	12	13	20	13	11	-0.330609904864	-0.635464339939	0.132134104492	0.79541015625	0.14404296875	0.36328125	90.5	103.6875	10.375
18	12	13	20	13	11	-0.316200701459	-0.630509447361	0.109611360707	0.9384765625	0.08056640625	0.50048828125	144.5625	101.1875	4.3125
18	12	13	20	13	11	-0.295454543934	-0.629053911243	0.0783647251418	1.08203125	0.11572265625	0.2978515625	207.875	100.4375	-5.625
18	12	13	20	13	11	-0.275186976777	-0.626723234536	0.0455898584281	1.17822265625	0.3193359375	0.130859375	208.875	104.4375	-12.6875
18	12	13	20	13	11	-0.261585109937	-0.620516988504	0.0186759317874	1.0849609375	0.59228515625	0.02978515625	152.1875	109.75	-16.4375
18	12	13	20	13	11	-0.258464320809	-0.60957299557	0.00506553450464	0.94921875	0.58984375	0.05908203125	51.1875	106.375	-14.125
18	12	13	20	13	11	-0.260246657442	-0.596724101737	0.000244133824992	0.87939453125	0.40869140625	0.0244140625	-6.25	100.0625	-8.0625
18	12	13	20	13	11	-0.262990149066	-0.584876908447	-0.00018309827041	0.8642578125	0.20556640625	0.06884765625	-28.4375	95.4375	-6.8125
18	12	13	20	13	11	-0.264705179689	-0.572927720023	-0.000732409996833	0.8720703125	0.0849609375	0.10498046875	-21.25	95.6875	-10.1875
18	12	13	20	13	11	-0.265241256289	-0.56197457154	-0.00524867649353	0.88037109375	0.08447265625	0.07958984375	0.8125	98.75	-19.0625
18	12	13	20	13	11	-0.266162074255	-0.549657335643	-0.015074990218	0.85986328125	0.15283203125	0.0869140625	21.5625	101.25	-26.125
18	12	13	20	13	11	-0.26683191733	-0.537508850851	-0.0255724092775	0.83154296875	0.19873046875	0.11083984375	25.4375	100.3125	-27.0
18	12	13	20	13	12	-0.267141334315	-0.527141810481	-0.033446070643	0.822265625	0.2138671875	0.13037109375	14.6875	97.3125	-24.125
18	12	13	20	13	12	-0.268667008587	-0.516460751173	-0.0383897202183	0.81494140625	0.21630859375	0.16064453125	-2.625	92.3125	-21.5
18	12	13	20	13	12	-0.271467560711	-0.506011138906	-0.0403417395751	0.81396484375	0.21728515625	0.18408203125	-19.375	84.75	-20.0
18	12	13	20	13	12	-0.275075335778	-0.496258609987	-0.0398544917379	0.81396484375	0.19775390625	0.2060546875	-31.125	75.3125	-18.375
18	12	13	20	13	12	-0.278852264253	-0.487396406724	-0.0374732524078	0.80078125	0.18310546875	0.22998046875	-38.3125	65.375	-15.5625
18	12	13	20	13	12	-0.282518870087	-0.479958607554	-0.0340560659988	0.7978515625	0.169921875	0.27099609375	-39.4375	53.125	-13.1875
18	12	13	20	13	12	-0.285699719123	-0.474904831125	-0.0299676483848	0.80859375	0.15087890625	0.30859375	-35.625	36.5625	-11.9375
18	12	13	20	13	12	-0.288187057115	-0.472438799052	-0.025693932877	0.81103515625	0.154296875	0.3515625	-29.5625	18.625	-9.25
