18	12	13	16	18	26	-0.736903164809	0.21562687438	-0.640655335514	-1.30908203125	-0.43896484375	0.23291015625	18.25	1.4375	9.125
18	12	13	16	18	26	-0.739532102938	0.213125864773	-0.63846210521	-1.15234375	-0.421875	0.08447265625	13.5625	-21.1875	9.5625
18	12	13	16	18	26	-0.743636617137	0.213801630814	-0.633470489927	-1.0712890625	-0.37109375	0.0400390625	-6.75	-45.1875	4.875
18	12	13	16	18	26	-0.748443479741	0.218557946747	-0.626134033977	-1.150390625	-0.27880859375	0.0810546875	-41.125	-62.375	-2.0
18	12	13	16	18	26	-0.75304589052	0.227964532428	-0.616999587232	-1.23779296875	-0.24462890625	0.1201171875	-77.0625	-74.3125	-7.125
18	12	13	16	18	26	-0.757775173283	0.240771831395	-0.605744087857	-1.2314453125	-0.30322265625	0.1123046875	-96.8125	-87.4375	-11.5
18	12	13	16	18	26	-0.763278168563	0.254385367549	-0.5923858871	-1.16162109375	-0.3759765625	0.099609375	-94.8125	-99.5625	-15.6875
18	12	13	16	18	26	-0.770807401835	0.26562307489	-0.576717011635	-1.0849609375	-0.41455078125	0.1064453125	-74.6875	-107.6875	-19.5
18	12	13	16	18	26	-0.779715752792	0.273068358355	-0.56035775549	-1.00927734375	-0.40478515625	0.1083984375	-46.75	-112.3125	-21.25
18	12	13	16	18	26	-0.78975949116	0.276965113669	-0.543615748668	-0.93603515625	-0.35205078125	0.09521484375	-21.1875	-115.9375	-21.6875
18	12	13	16	18	26	-0.800708869567	0.278194300441	-0.526298695196	-0.8662109375	-0.28857421875	0.10986328125	-4.1875	-120.0	-21.75
18	12	13	16	18	26	-0.812002816382	0.278195192203	-0.508356243058	-0.82861328125	-0.232421875	0.13232421875	3.875	-123.125	-23.1875
18	12	13	16	18	26	-0.822943073013	0.278240690438	-0.490079566619	-0.8095703125	-0.16796875	0.17041015625	3.0625	-123.25	-25.4375
18	12	13	16	18	26	-0.833039833716	0.278981982557	-0.471907392065	-0.7978515625	-0.1279296875	0.20947265625	-2.25	-120.1875	-27.8125
18	12	13	16	18	26	-0.841973663387	0.280820646991	-0.45428125963	-0.7890625	-0.11865234375	0.23876953125	-8.6875	-113.6875	-30.375
18	12	13	16	18	26	-0.849831190218	0.283195685335	-0.437610574107	-0.78955078125	-0.1318359375	0.25634765625	-10.875	-105.0	-32.8125
18	12	13	16	18	27	-0.856052065288	0.28441484559	-0.424180939238	-0.77685546875	-0.15673828125	0.2783203125	-8.75	-94.125	-33.75
18	12	13	16	18	27	-0.861301563028	0.284903323144	-0.412951132047	-0.77294921875	-0.1669921875	0.30419921875	-3.9375	-79.75	-32.9375
18	12	13	16	18	27	-0.865557661464	0.284409723764	-0.404398890485	-0.765625	-0.1689453125	0.306640625	3.6875	-62.8125	-31.125
18	12	13	16	18	27	-0.869061218814	0.282464732121	-0.398551145365	-0.7451171875	-0.18212890625	0.30615234375	14.125	-46.8125	-28.5625
18	12	13	16	18	27	-0.871795449258	0.279531164772	-0.395127677016	-0.73388671875	-0.18603515625	0.314453125	20.8125	-31.3125	-25.4375
18	12	13	16	18	27	-0.873314613653	0.276233275658	-0.394697435635	-0.7548828125	-0.17333984375	0.3369140625	22.5625	-13.0	-23.5
18	12	13	16	18	27	-0.873468179451	0.272642188359	-0.397519268588	-0.79443359375	-0.18212890625	0.3486328125	24.1875	6.1875	-20.9375
18	12	13	16	18	27	-0.871937545863	0.269711046841	-0.40349846813	-0.85107421875	-0.21923828125	0.3740234375	20.625	26.3125	-16.875
18	12	13	16	18	27	-0.868550576542	0.266955254149	-0.413127598385	-0.888671875	-0.2724609375	0.39501953125	19.375	49.625	-8.75
18	12	13	16	18	27	-0.863429286412	0.263722198811	-0.426252218583	-0.8984375	-0.34423828125	0.392578125	22.0625	71.8125	4.25
18	12	13	16	18	27	-0.856001015783	0.261225265423	-0.442801238467	-0.96826171875	-0.38232421875	0.4599609375	12.875	96.4375	14.0
18	12	13	16	18	27	-0.845543280425	0.261218798919	-0.462686849206	-1.10693359375	-0.361328125	0.53515625	-5.5625	125.9375	21.0625
18	12	13	16	18	27	-0.832372305847	0.261405674288	-0.48594722827	-1.1689453125	-0.41552734375	0.44580078125	-12.125	147.375	33.5625
18	12	13	16	18	27	-0.817577326263	0.26237421063	-0.509734684155	-1.1298828125	-0.51708984375	0.21630859375	-23.9375	148.375	47.4375
18	12	13	16	18	27	-0.803306617338	0.263720399143	-0.530736540371	-1.02490234375	-0.60498046875	0.02294921875	-33.0625	128.0	58.6875
18	12	13	16	18	27	-0.790379999155	0.265982705507	-0.547956110611	-1.01904296875	-0.62255859375	-0.068359375	-41.0625	103.8125	57.375
18	12	13	16	18	27	-0.777116110835	0.272140166356	-0.562833956971	-1.1220703125	-0.4912109375	-0.1083984375	-53.8125	76.3125	44.5625
18	12	13	16	18	27	-0.765844608127	0.27995929371	-0.573162792072	-1.1728515625	-0.392578125	-0.11669921875	-68.0	49.0	32.25
18	12	13	16	18	27	-0.756924694441	0.288805648613	-0.579259173919	-1.1318359375	-0.4619140625	-0.064453125	-72.875	28.8125	27.875
18	12	13	16	18	27	-0.750945927795	0.294726746206	-0.582922997104	-1.03515625	-0.5380859375	0.06396484375	-52.6875	20.9375	31.0625
18	12	13	16	18	27	-0.748213354338	0.293328442854	-0.586717919508	-0.8935546875	-0.52197265625	0.1396484375	-2.4375	20.875	37.125
18	12	13	16	18	27	-0.748271436282	0.285148788769	-0.59104898768	-0.75439453125	-0.44287109375	0.15966796875	45.9375	20.8125	37.5625
18	12	13	16	18	27	-0.749782616284	0.273791193867	-0.595309697944	-0.666015625	-0.3330078125	0.21875	69.875	22.9375	30.4375
18	12	13	16	18	27	-0.751505583651	0.263176486372	-0.598799746707	-0.6298828125	-0.26708984375	0.283203125	67.1875	24.875	20.3125
18	12	13	16	18	27	-0.753262695728	0.254688480738	-0.601047725452	-0.6240234375	-0.263671875	0.349609375	55.125	24.875	12.0625
18	12	13	16	18	27	-0.754787690623	0.248401867942	-0.602511852658	-0.63134765625	-0.2919921875	0.36962890625	45.75	24.375	5.125
18	12	13	16	18	27	-0.756388282603	0.243035434626	-0.603438307923	-0.626953125	-0.33544921875	0.39208984375	43.25	24.1875	1.75
18	12	13	16	18	27	-0.757774349069	0.237903061588	-0.604522787333	-0.6298828125	-0.38720703125	0.38427734375	46.375	26.5625	0.125
18	12	13	16	18	27	-0.758482678789	0.232787715209	-0.606383311642	-0.66259765625	-0.39990234375	0.37939453125	48.5625	32.4375	-1.75
18	12	13	16	18	27	-0.758289791252	0.227596799065	-0.609244099829	-0.72119140625	-0.3798828125	0.37255859375	48.0625	39.1875	-2.75
18	12	13	16	18	27	-0.757111671064	0.223257919609	-0.612830172443	-0.77099609375	-0.37939453125	0.3271484375	42.625	42.5	-4.1875
18	12	13	16	18	27	-0.75527877446	0.220205722687	-0.616551610472	-0.8212890625	-0.40478515625	0.2890625	33.0625	41.125	-3.3125
18	12	13	16	18	27	-0.753232558148	0.218566225648	-0.61987114987	-0.904296875	-0.4384765625	0.28125	22.5	38.125	-2.625
18	12	13	16	18	27	-0.751072531067	0.217826902599	-0.622903157165	-1.04052734375	-0.4462890625	0.28759765625	14.125	35.625	-4.0
18	12	13	16	18	27	-0.74912771859	0.217463097714	-0.625473428395	-1.162109375	-0.44384765625	0.27490234375	9.625	30.5625	-5.875
18	12	13	16	18	27	-0.747527446895	0.217093005275	-0.627598361889	-1.2275390625	-0.4677734375	0.2490234375	10.5625	25.375	-6.0
18	12	13	16	18	27	-0.746747162012	0.216242353495	-0.628891112167	-1.2939453125	-0.52001953125	0.24755859375	15.0625	19.0	-4.8125
18	12	13	16	18	27	-0.746661804004	0.214404358138	-0.629664037266	-1.3798828125	-0.4921875	0.2939453125	16.6875	15.875	-3.3125
18	12	13	16	18	27	-0.7469188402	0.211722622704	-0.630285247813	-1.43701171875	-0.40966796875	0.29931640625	15.4375	12.0625	-1.9375
18	12	13	16	18	27	-0.747588501786	0.210257358858	-0.629978652579	-1.3359375	-0.35400390625	0.18017578125	4.875	-3.0625	0.875
18	12	13	16	18	27	-0.749657879194	0.211232265724	-0.62716635729	-1.19140625	-0.3779296875	0.05419921875	-6.9375	-28.75	0.8125
18	12	13	16	18	27	-0.753111881162	0.215514875791	-0.621459208525	-1.1767578125	-0.34130859375	0.0634765625	-31.8125	-50.3125	-2.375
18	12	13	16	18	27	-0.757057663034	0.223137924545	-0.613629292498	-1.21044921875	-0.24951171875	0.09423828125	-64.5625	-66.4375	-3.0
18	12	13	16	18	27	-0.761095132183	0.235286426188	-0.603322003338	-1.185546875	-0.255859375	0.07861328125	-96.9375	-83.6875	-4.6875
18	12	13	16	18	27	-0.766639134931	0.249809249206	-0.589215365705	-1.10693359375	-0.35400390625	0.08544921875	-109.25	-99.6875	-6.875
18	12	13	16	18	27	-0.773114895627	0.263299728407	-0.573290298778	-1.0283203125	-0.41357421875	0.1259765625	-100.5625	-109.3125	-8.8125
18	12	13	16	18	27	-0.780677271083	0.273673433159	-0.556501865197	-0.955078125	-0.396484375	0.14111328125	-78.0625	-114.4375	-10.875
18	12	13	16	18	27	-0.789100103738	0.281119582165	-0.539290627011	-0.88720703125	-0.34814453125	0.14990234375	-56.4375	-116.6875	-13.125
18	12	13	16	18	27	-0.798120392857	0.286608041971	-0.521582693076	-0.83447265625	-0.2939453125	0.1689453125	-41.875	-118.9375	-16.5625
18	12	13	16	18	27	-0.807441580896	0.290896256297	-0.503422644133	-0.80029296875	-0.25048828125	0.17822265625	-31.8125	-120.25	-21.5625
18	12	13	16	18	27	-0.816639700334	0.294673876922	-0.485101071618	-0.79248046875	-0.20654296875	0.177734375	-25.875	-119.3125	-27.0
18	12	13	16	18	28	-0.825486966832	0.298151854564	-0.466911297321	-0.78759765625	-0.17626953125	0.19580078125	-22.25	-116.1875	-32.5
18	12	13	16	18	28	-0.833579337535	0.301682725541	-0.449380924167	-0.78466796875	-0.14990234375	0.23583984375	-20.5	-108.5625	-36.5625
18	12	13	16	18	28	-0.840221019797	0.303692873866	-0.434910654977	-0.77294921875	-0.14501953125	0.26123046875	-15.75	-97.625	-38.6875
18	12	13	16	18	28	-0.846103467787	0.304982978326	-0.422227785483	-0.75830078125	-0.16357421875	0.28466796875	-9.0	-84.875	-39.0
18	12	13	16	18	28	-0.851344992302	0.304980351748	-0.411726526494	-0.736328125	-0.1826171875	0.3046875	1.0625	-70.625	-36.9375
18	12	13	16	18	28	-0.855977503092	0.30326931999	-0.403789458856	-0.7275390625	-0.18798828125	0.3173828125	12.3125	-55.625	-33.4375
18	12	13	16	18	28	-0.859857789347	0.300291050794	-0.398495989966	-0.724609375	-0.19091796875	0.32421875	21.5	-40.4375	-30.4375
18	12	13	16	18	28	-0.862693344956	0.296922753676	-0.395795284191	-0.74169921875	-0.1787109375	0.33984375	23.5625	-24.8125	-28.625
18	12	13	16	18	28	-0.863921274394	0.294422905523	-0.395981718705	-0.81005859375	-0.17431640625	0.35693359375	18.875	-7.375	-29.25
18	12	13	16	18	28	-0.8632559816	0.2932653416	-0.399341338207	-0.9111328125	-0.20556640625	0.38037109375	11.75	12.1875	-29.5625
18	12	13	16	18	28	-0.860648980994	0.292538867166	-0.406612546017	-0.99658203125	-0.26416015625	0.37646484375	12.5	34.9375	-25.3125
18	12	13	16	18	28	-0.856597594337	0.29069998873	-0.417526479719	-1.01416015625	-0.37158203125	0.28857421875	24.4375	52.625	-12.625
18	12	13	16	18	28	-0.851577208677	0.288375425428	-0.43027444429	-1.01220703125	-0.4677734375	0.25390625	29.5	63.0625	-1.75
18	12	13	16	18	28	-0.84494515548	0.286734494398	-0.444932836135	-1.13916015625	-0.42919921875	0.3779296875	15.9375	79.8125	2.4375
18	12	13	16	18	28	-0.83720059733	0.284295427744	-0.461476541256	-1.20556640625	-0.42041015625	0.36181640625	16.4375	101.5625	15.3125
18	12	13	16	18	28	-0.828329296616	0.281419568722	-0.479102930919	-1.1357421875	-0.52001953125	0.1796875	12.125	103.875	34.125
18	12	13	16	18	28	-0.817079620105	0.281717921004	-0.497583667666	-1.0263671875	-0.60205078125	0.0693359375	-4.4375	94.5	51.125
18	12	13	16	18	28	-0.805422380733	0.284424696439	-0.513917584554	-0.9951171875	-0.57861328125	0.0419921875	-28.8125	82.8125	58.75
18	12	13	16	18	28	-0.792977353609	0.290569166515	-0.528041257864	-1.08447265625	-0.4384765625	0.05078125	-63.6875	71.0	55.3125
18	12	13	16	18	28	-0.781171244054	0.299004447583	-0.538806136613	-1.08251953125	-0.35986328125	0.01025390625	-80.75	52.6875	45.125
18	12	13	16	18	28	-0.771229286684	0.308467300958	-0.545829654227	-1.01513671875	-0.43603515625	0.033203125	-79.75	37.375	34.875
18	12	13	16	18	28	-0.763896696161	0.315482743884	-0.550584219884	-0.9169921875	-0.5263671875	0.1279296875	-59.8125	31.3125	34.625
18	12	13	16	18	28	-0.759763329599	0.314818384806	-0.556089628533	-0.7900390625	-0.52294921875	0.16796875	-6.5625	32.6875	41.125
18	12	13	16	18	28	-0.758287477778	0.306574211275	-0.563161506557	-0.68603515625	-0.44921875	0.166015625	47.375	36.1875	42.8125
18	12	13	16	18	28	-0.758199233785	0.294356830439	-0.570892347486	-0.611328125	-0.330078125	0.181640625	76.25	39.6875	36.75
18	12	13	16	18	28	-0.758377935388	0.282515005868	-0.577907667004	-0.58642578125	-0.2392578125	0.24462890625	76.4375	42.75	23.8125
18	12	13	16	18	28	-0.757946835479	0.273358875603	-0.584068863478	-0.5966796875	-0.2333984375	0.306640625	62.25	46.875	13.125
18	12	13	16	18	28	-0.756874457258	0.266776731931	-0.589643103909	-0.619140625	-0.30810546875	0.35009765625	50.3125	51.4375	7.6875
18	12	13	16	18	28	-0.755467698968	0.261221663563	-0.595072714892	-0.6494140625	-0.396484375	0.3857421875	47.8125	55.5	6.4375
18	12	13	16	18	28	-0.754125605658	0.254691336388	-0.600810331993	-0.6640625	-0.43408203125	0.3837890625	57.375	58.9375	6.3125
18	12	13	16	18	28	-0.752541109696	0.247001936005	-0.607159688504	-0.70654296875	-0.44189453125	0.38623046875	65.6875	63.25	6.5625
18	12	13	16	18	28	-0.750231292904	0.239314749388	-0.614064191174	-0.74169921875	-0.44287109375	0.34814453125	66.0	65.8125	6.3125
18	12	13	16	18	28	-0.747285871814	0.233023314161	-0.620764831935	-0.779296875	-0.4365234375	0.30126953125	54.9375	63.3125	5.625
18	12	13	16	18	28	-0.74375030256	0.229362681522	-0.626810734227	-0.82421875	-0.44921875	0.26708984375	36.1875	58.4375	4.0625
18	12	13	16	18	28	-0.740086326968	0.2282024391	-0.631813760248	-0.9130859375	-0.4736328125	0.2763671875	15.9375	53.0	3.3125
18	12	13	16	18	28	-0.73649442577	0.228876613627	-0.635910783302	-1.04052734375	-0.4931640625	0.29638671875	2.125	48.1875	0.6875
18	12	13	16	18	28	-0.733515302309	0.229612628331	-0.639216655108	-1.1689453125	-0.49462890625	0.30029296875	1.375	42.9375	-3.3125
18	12	13	16	18	28	-0.731680217077	0.229245153098	-0.641593463623	-1.19775390625	-0.5048828125	0.23974609375	11.625	32.0	-4.5625
18	12	13	16	18	28	-0.73141563392	0.226126078411	-0.643162379026	-1.08251953125	-0.5419921875	0.15869140625	33.0	19.9375	2.125
18	12	13	16	18	28	-0.73255993837	0.222215340799	-0.64333202619	-1.0986328125	-0.56103515625	0.22021484375	36.25	12.125	4.9375
18	12	13	16	18	28	-0.734373440622	0.217772975078	-0.642820900651	-1.2490234375	-0.390625	0.3583984375	25.5625	11.5625	2.5625
18	12	13	16	18	28	-0.736401606041	0.214097201558	-0.641742324509	-1.2568359375	-0.26416015625	0.3076171875	15.3125	1.75	-0.5
18	12	13	16	18	28	-0.739106544478	0.214713197644	-0.638402514883	-1.22265625	-0.3427734375	0.24169921875	-7.5625	-17.4375	-4.375
18	12	13	16	18	28	-0.742474382128	0.21892771136	-0.632980009622	-1.2529296875	-0.34765625	0.26611328125	-31.625	-31.125	-9.9375
18	12	13	16	18	28	-0.745828224132	0.225579469426	-0.626507914952	-1.3642578125	-0.29541015625	0.27197265625	-52.4375	-40.5625	-14.8125
18	12	13	16	18	28	-0.749048751895	0.235340339551	-0.618683875006	-1.44775390625	-0.29248046875	0.2197265625	-74.0	-54.4375	-19.0625
18	12	13	16	18	28	-0.753134367774	0.246813240136	-0.608671722027	-1.40185546875	-0.37060546875	0.10888671875	-77.9375	-74.875	-21.9375
18	12	13	16	18	28	-0.758649324473	0.257989597309	-0.596482690915	-1.2919921875	-0.423828125	0.02490234375	-69.0	-94.125	-23.1875
18	12	13	16	18	29	-0.76748955271	0.265981667651	-0.580850741403	-1.1298828125	-0.439453125	-0.029296875	-49.0625	-111.0	-20.875
18	12	13	16	18	29	-0.778220301416	0.270860457822	-0.563448343085	-1.0009765625	-0.4091796875	-0.0322265625	-29.625	-124.9375	-17.75
18	12	13	16	18	29	-0.790520273035	0.273190915851	-0.544245620341	-0.91796875	-0.3623046875	0.01025390625	-14.6875	-137.1875	-16.375
18	12	13	16	18	29	-0.803649043116	0.274413769108	-0.523314870181	-0.86328125	-0.28271484375	0.05712890625	-8.875	-147.625	-17.8125
18	12	13	16	18	29	-0.816870494317	0.275809755217	-0.50083975466	-0.81396484375	-0.19873046875	0.1064453125	-10.8125	-154.875	-21.375
18	12	13	16	18	29	-0.8295672024	0.27831271652	-0.477159828455	-0.78369140625	-0.158203125	0.15283203125	-17.6875	-158.125	-27.375
18	12	13	16	18	29	-0.841392835446	0.281908712239	-0.452921531398	-0.771484375	-0.14404296875	0.2041015625	-22.5625	-156.0625	-35.5
18	12	13	16	18	29	-0.85232758738	0.285390891413	-0.429062867116	-0.75439453125	-0.1416015625	0.25439453125	-19.5	-149.25	-41.6875
18	12	13	16	18	29	-0.862386308419	0.287584167394	-0.406658172187	-0.72412109375	-0.15234375	0.28515625	-9.625	-137.6875	-44.625
18	12	13	16	18	29	-0.871547208753	0.28789132939	-0.386520201193	-0.70556640625	-0.1640625	0.3095703125	3.375	-122.5625	-44.3125
18	12	13	16	18	29	-0.87986412625	0.286126735839	-0.369071751625	-0.6787109375	-0.17431640625	0.31103515625	17.4375	-105.9375	-42.5
18	12	13	16	18	29	-0.886835986981	0.281736745761	-0.356138195735	-0.6376953125	-0.16650390625	0.3271484375	29.5625	-88.625	-40.0625
18	12	13	16	18	29	-0.892661844015	0.27653841209	-0.346298598588	-0.63037109375	-0.142578125	0.37158203125	32.25	-68.4375	-38.0
18	12	13	16	18	29	-0.896642350427	0.272026067378	-0.340444559981	-0.66162109375	-0.11865234375	0.42578125	26.75	-42.9375	-37.0
18	12	13	16	18	29	-0.898468028948	0.268789701752	-0.33922188064	-0.71630859375	-0.1435546875	0.458984375	19.9375	-14.4375	-35.1875
18	12	13	16	18	29	-0.89774391706	0.26763254309	-0.343009097415	-0.78662109375	-0.2158203125	0.474609375	10.5625	14.75	-29.4375
18	12	13	16	18	29	-0.894883202817	0.266963519924	-0.351740001217	-0.80859375	-0.314453125	0.44189453125	10.5625	43.0625	-16.5
18	12	13	16	18	29	-0.89035712771	0.265739987253	-0.364675338502	-0.8447265625	-0.41259765625	0.43896484375	16.75	67.125	-3.8125
18	12	13	16	18	29	-0.883589179772	0.266474432471	-0.38091317752	-1.01220703125	-0.3876953125	0.56640625	-0.125	100.4375	1.125
18	12	13	16	18	29	-0.873665684296	0.265853141515	-0.404089451325	-1.11767578125	-0.4033203125	0.53759765625	3.6875	141.4375	17.0625
18	12	13	16	18	29	-0.862259117712	0.262315238387	-0.430336143756	-1.07177734375	-0.55810546875	0.2626953125	16.125	154.5625	40.0
18	12	13	16	18	29	-0.8500127726	0.259331102949	-0.455614658394	-1.02001953125	-0.6669921875	0.087890625	5.25	145.75	57.25
18	12	13	16	18	29	-0.837138305241	0.25859981039	-0.478748386287	-1.0615234375	-0.6220703125	0.06689453125	-16.375	132.75	64.0
18	12	13	16	18	29	-0.823499844802	0.262008807066	-0.499421865413	-1.22265625	-0.4228515625	0.0380859375	-42.9375	122.5	50.875
18	12	13	16	18	29	-0.807994362065	0.269087328525	-0.519621119316	-1.2392578125	-0.3349609375	-0.09521484375	-60.75	97.5625	38.9375
18	12	13	16	18	29	-0.793874637713	0.279476586921	-0.534539407787	-1.15869140625	-0.4619140625	-0.08984375	-76.75	74.75	35.1875
18	12	13	16	18	29	-0.782014051447	0.288136138054	-0.546061009779	-1.02734375	-0.54833984375	0.04443359375	-70.375	65.375	43.375
18	12	13	16	18	29	-0.772920658967	0.289173885201	-0.557535551142	-0.88818359375	-0.50830078125	0.1162109375	-24.8125	66.3125	53.8125
18	12	13	16	18	29	-0.766339056939	0.283257372033	-0.569383327666	-0.77197265625	-0.42578125	0.142578125	21.1875	67.6875	55.5
18	12	13	16	18	29	-0.761809311085	0.273975484495	-0.580359296516	-0.68798828125	-0.3486328125	0.17822265625	48.8125	66.0625	45.0625
18	12	13	16	18	29	-0.758333799852	0.264333495948	-0.590066090702	-0.67333984375	-0.28662109375	0.25390625	56.875	65.9375	30.9375
18	12	13	16	18	29	-0.755155042539	0.255726147922	-0.598667729109	-0.65087890625	-0.26171875	0.32568359375	52.5625	67.625	22.375
18	12	13	16	18	29	-0.751716051521	0.248517314427	-0.606767961697	-0.6552734375	-0.29052734375	0.3681640625	47.0	70.8125	16.5
18	12	13	16	18	29	-0.747956865084	0.242483282332	-0.61460021472	-0.66748046875	-0.35009765625	0.37109375	44.625	73.1875	12.8125
18	12	13	16	18	29	-0.74460535507	0.235954451041	-0.621989604387	-0.6884765625	-0.38916015625	0.38037109375	51.625	73.0625	10.3125
18	12	13	16	18	29	-0.741426522057	0.228689922468	-0.62924822542	-0.7099609375	-0.39794921875	0.40087890625	59.25	74.875	7.5
18	12	13	16	18	29	-0.737855418863	0.221234565209	-0.636728336229	-0.7421875	-0.3896484375	0.37744140625	61.6875	76.5625	4.9375
18	12	13	16	18	29	-0.733800106939	0.21520246004	-0.643898455311	-0.7744140625	-0.4033203125	0.32861328125	53.0625	73.9375	2.625
18	12	13	16	18	29	-0.729583842298	0.210867674012	-0.65036351209	-0.8369140625	-0.4267578125	0.29736328125	41.5625	68.5625	0.6875
18	12	13	16	18	29	-0.725811981413	0.207819525455	-0.655684335379	-0.953125	-0.447265625	0.30029296875	30.9375	61.25	-0.875
18	12	13	16	18	29	-0.722510256149	0.206169931177	-0.65989025929	-1.13671875	-0.4462890625	0.3037109375	17.0	52.875	-3.0
18	12	13	16	18	29	-0.719930484384	0.205493891228	-0.662926832942	-1.2763671875	-0.44580078125	0.25244140625	9.625	40.25	-5.25
18	12	13	16	18	29	-0.719039180522	0.203974954699	-0.664352897036	-1.2392578125	-0.49658203125	0.13623046875	19.0	20.375	-1.9375
18	12	13	16	18	29	-0.720679283565	0.200615921839	-0.663552267185	-1.10693359375	-0.59423828125	0.07666015625	34.875	-1.5625	7.3125
18	12	13	16	18	29	-0.72452666257	0.19640525652	-0.660563732541	-1.2197265625	-0.54052734375	0.228515625	31.5625	-11.875	9.5625
18	12	13	16	18	29	-0.729381590346	0.191759430748	-0.65657159643	-1.35546875	-0.296875	0.328125	20.0625	-18.5625	4.5625
18	12	13	16	18	29	-0.734964540652	0.189813961254	-0.650921510218	-1.29296875	-0.27001953125	0.259765625	2.9375	-36.3125	1.375
18	12	13	16	18	29	-0.741542147517	0.192068571048	-0.642791925732	-1.19580078125	-0.3984375	0.2236328125	-16.0625	-56.0	-0.75
18	12	13	16	18	29	-0.74898673341	0.195486025677	-0.633086651374	-1.1826171875	-0.3857421875	0.25146484375	-23.75	-66.875	-3.6875
18	12	13	16	18	29	-0.756268476364	0.200434644208	-0.622787792174	-1.283203125	-0.27880859375	0.28955078125	-40.4375	-72.0625	-9.1875
18	12	13	16	18	30	-0.762857216533	0.208734433198	-0.611799403034	-1.33740234375	-0.25390625	0.24560546875	-63.1875	-80.9375	-15.1875
18	12	13	16	18	30	-0.769366669223	0.219897517786	-0.599332118973	-1.3056640625	-0.32763671875	0.1513671875	-74.0625	-94.875	-20.6875
18	12	13	16	18	30	-0.777603871705	0.231187776942	-0.583889509505	-1.2041015625	-0.404296875	0.0810546875	-67.9375	-108.3125	-23.75
18	12	13	16	18	30	-0.78690224089	0.240349106075	-0.567060321113	-1.08642578125	-0.3984375	0.04052734375	-54.625	-118.125	-22.4375
18	12	13	16	18	30	-0.797211510078	0.24736627242	-0.54886871154	-0.9794921875	-0.35546875	0.0263671875	-41.3125	-127.375	-20.5
18	12	13	16	18	30	-0.808306641023	0.253038306681	-0.529146676055	-0.9091796875	-0.3115234375	0.04833984375	-34.0	-136.5	-20.5
18	12	13	16	18	30	-0.819790086921	0.258045896925	-0.508035488649	-0.85498046875	-0.25146484375	0.0830078125	-29.5625	-144.0625	-23.1875
18	12	13	16	18	30	-0.831303194484	0.26286049913	-0.485745695977	-0.8154296875	-0.20458984375	0.11328125	-27.8125	-148.25	-28.375
18	12	13	16	18	30	-0.842261804467	0.268181041219	-0.462816758208	-0.79736328125	-0.16650390625	0.15869140625	-29.1875	-148.375	-34.5
18	12	13	16	18	30	-0.852451134963	0.273550940567	-0.439927527802	-0.78076171875	-0.1435546875	0.216796875	-28.8125	-144.125	-40.0
18	12	13	16	18	30	-0.861689586691	0.278379813351	-0.418027481176	-0.76171875	-0.1376953125	0.2626953125	-23.8125	-134.625	-44.1875
18	12	13	16	18	30	-0.870000118827	0.281964261591	-0.397862558725	-0.7451171875	-0.146484375	0.28955078125	-14.375	-121.625	-46.125
18	12	13	16	18	30	-0.877548167399	0.283747491323	-0.379876185415	-0.7353515625	-0.16015625	0.31005859375	-1.6875	-107.125	-47.0625
18	12	13	16	18	30	-0.883826553227	0.282341111472	-0.366506349847	-0.71142578125	-0.1572265625	0.32373046875	12.5625	-90.875	-46.4375
18	12	13	16	18	30	-0.889331558559	0.279049062228	-0.356196484507	-0.69873046875	-0.1533203125	0.32421875	24.75	-73.3125	-44.0625
18	12	13	16	18	30	-0.893888949363	0.274770452686	-0.348803451155	-0.69189453125	-0.14599609375	0.32666015625	30.9375	-55.875	-41.8125
18	12	13	16	18	30	-0.89703615927	0.270691662677	-0.34472751089	-0.72802734375	-0.12548828125	0.35791015625	28.3125	-35.75	-41.75
18	12	13	16	18	30	-0.898379066925	0.267212688022	-0.344849631641	-0.81689453125	-0.13134765625	0.41259765625	24.25	-10.875	-42.8125
18	12	13	16	18	30	-0.897733826133	0.264028590105	-0.349840933537	-0.90771484375	-0.18896484375	0.45361328125	23.5625	17.5625	-39.125
18	12	13	16	18	30	-0.895154066336	0.260056690302	-0.360026851934	-0.919921875	-0.27734375	0.4228515625	30.125	46.8125	-24.3125
18	12	13	16	18	30	-0.890854692815	0.25518384973	-0.374444610881	-0.93896484375	-0.37939453125	0.3935546875	37.125	70.25	-6.875
18	12	13	16	18	30	-0.883888918602	0.25133645676	-0.393361695925	-1.01953125	-0.35205078125	0.4716796875	20.1875	98.75	6.625
18	12	13	16	18	30	-0.874868999687	0.247433997818	-0.415523102405	-1.01416015625	-0.333984375	0.4560546875	14.75	131.625	28.8125
18	12	13	16	18	30	-0.863816312541	0.242671776914	-0.440605522521	-0.90966796875	-0.42626953125	0.24072265625	10.8125	144.5625	55.0
18	12	13	16	18	30	-0.851351628222	0.241081004479	-0.464645490404	-0.86279296875	-0.49951171875	0.10498046875	-17.9375	136.5625	71.0625
18	12	13	16	18	30	-0.836943935234	0.245047028365	-0.487408609843	-0.95556640625	-0.48193359375	0.2138671875	-57.4375	133.9375	70.0
18	12	13	16	18	30	-0.820407936987	0.252005979156	-0.510481474852	-1.1953125	-0.40234375	0.25634765625	-76.5	141.5	61.5
18	12	13	16	18	30	-0.803873526799	0.259942096321	-0.531358509173	-1.31640625	-0.33154296875	0.13330078125	-80.5	131.1875	51.3125
18	12	13	16	18	30	-0.788436543487	0.267633863074	-0.549122432401	-1.27490234375	-0.47314453125	0.044921875	-80.5625	111.875	54.0
18	12	13	16	18	30	-0.773804630502	0.273743001089	-0.565491394668	-1.08203125	-0.68212890625	0.04296875	-60.375	96.5	69.4375
18	12	13	16	18	30	-0.762597616443	0.271227195476	-0.581087787607	-0.88134765625	-0.65771484375	0.052734375	-5.75	90.0	80.1875
18	12	13	16	18	30	-0.753761407313	0.261954976533	-0.596539594743	-0.7783203125	-0.43310546875	0.0537109375	35.3125	86.625	75.9375
18	12	13	16	18	30	-0.745522665525	0.252617135703	-0.610638908603	-0.74560546875	-0.23828125	0.09814453125	32.5	83.0625	62.0
18	12	13	16	18	30	-0.737718144558	0.248042238726	-0.621631447201	-0.71875	-0.2451171875	0.1982421875	5.3125	77.4375	47.1875
18	12	13	16	18	30	-0.730484511482	0.247299126119	-0.630148933165	-0.69189453125	-0.3447265625	0.265625	-12.0	72.6875	37.5
18	12	13	16	18	30	-0.724936556579	0.246202565183	-0.637111695078	-0.66064453125	-0.4462890625	0.33447265625	1.125	69.875	30.75
18	12	13	16	18	30	-0.721478870185	0.242608790203	-0.643233720741	-0.6748046875	-0.54443359375	0.3779296875	31.875	68.125	22.9375
18	12	13	16	18	30	-0.721048580623	0.232903452147	-0.648601935524	-0.71533203125	-0.44970703125	0.42626953125	76.9375	60.3125	16.875
18	12	13	16	18	30	-0.721217241894	0.220265128712	-0.653959782254	-0.6962890625	-0.32861328125	0.4267578125	90.5625	58.0	18.375
18	12	13	16	18	30	-0.719238545168	0.212951738297	-0.659240964559	-0.71630859375	-0.28857421875	0.3779296875	54.625	60.625	9.0625
18	12	13	16	18	30	-0.71592266714	0.211114791615	-0.663800079098	-0.76318359375	-0.31689453125	0.375	18.125	60.5625	2.125
18	12	13	16	18	30	-0.712692629193	0.211909635057	-0.667344455561	-0.82373046875	-0.4248046875	0.34716796875	7.0625	55.5	-3.1875
18	12	13	16	18	30	-0.710116544669	0.213065479797	-0.670017999775	-0.9453125	-0.48583984375	0.30859375	6.6875	47.6875	-4.5625
18	12	13	16	18	30	-0.708663913906	0.213435337777	-0.671677406988	-1.11376953125	-0.47314453125	0.2822265625	9.8125	36.5625	-5.8125
18	12	13	16	18	30	-0.708819494607	0.2134270512	-0.671712360741	-1.2880859375	-0.43994140625	0.2529296875	12.25	21.4375	-11.0625
18	12	13	16	18	30	-0.710951553626	0.212510370824	-0.669938638867	-1.314453125	-0.46875	0.12939453125	22.875	-1.8125	-12.25
18	12	13	16	18	30	-0.715486049874	0.209891369574	-0.66611061574	-1.2353515625	-0.5615234375	0.0537109375	38.1875	-24.5625	-5.375
18	12	13	16	18	30	-0.722259616787	0.205862910886	-0.660128444749	-1.2939453125	-0.4990234375	0.14013671875	38.25	-40.75	-1.0
18	12	13	16	18	30	-0.730505792802	0.200921135425	-0.65256645807	-1.3525390625	-0.32470703125	0.21630859375	33.25	-52.375	-2.0
18	12	13	16	18	30	-0.739580712325	0.198962957764	-0.64284565464	-1.3447265625	-0.263671875	0.22900390625	10.125	-69.9375	-7.5625
18	12	13	16	18	30	-0.749483484741	0.201042231168	-0.630530446324	-1.30712890625	-0.314453125	0.20361328125	-12.125	-90.125	-12.8125
18	12	13	16	18	31	-0.759867579015	0.206415433914	-0.616072557637	-1.34375	-0.32861328125	0.22998046875	-28.25	-103.75	-20.25
18	12	13	16	18	31	-0.770339852114	0.21354929033	-0.6002450044	-1.41064453125	-0.30859375	0.21484375	-37.625	-111.9375	-26.375
18	12	13	16	18	31	-0.781023748697	0.220996092368	-0.583280766296	-1.40771484375	-0.3310546875	0.15625	-38.4375	-119.375	-29.5
18	12	13	16	18	31	-0.792403295544	0.227778564197	-0.564807833087	-1.3544921875	-0.36572265625	0.095703125	-31.1875	-129.0625	-32.0625
18	12	13	16	18	31	-0.804476603177	0.232902110441	-0.545086149986	-1.24951171875	-0.3603515625	0.06298828125	-20.9375	-137.625	-30.6875
18	12	13	16	18	31	-0.816987423902	0.236319685145	-0.524334301415	-1.12353515625	-0.3310546875	0.046875	-14.0625	-144.875	-25.25
18	12	13	16	18	31	-0.829500475675	0.239249640545	-0.502485278216	-1.00146484375	-0.279296875	0.044921875	-15.0625	-151.9375	-20.125
18	12	13	16	18	31	-0.841693192721	0.242724517979	-0.479406861636	-0.91259765625	-0.23486328125	0.06787109375	-22.4375	-158.0625	-18.375
18	12	13	16	18	31	-0.853165201132	0.247667528878	-0.455176054799	-0.8447265625	-0.19970703125	0.10302734375	-33.0	-161.8125	-20.0
18	12	13	16	18	31	-0.863891051243	0.253478842434	-0.4301144721	-0.78857421875	-0.1748046875	0.13623046875	-39.0	-163.25	-24.1875
18	12	13	16	18	31	-0.873687916667	0.259939702206	-0.404710064647	-0.75	-0.1552734375	0.17919921875	-42.375	-161.25	-28.8125
18	12	13	16	18	31	-0.882345656382	0.266406501356	-0.379987829884	-0.71728515625	-0.13916015625	0.22607421875	-42.4375	-153.1875	-32.5625
18	12	13	16	18	31	-0.889894282997	0.272137617988	-0.356848767072	-0.71142578125	-0.13671875	0.25537109375	-36.125	-141.125	-36.25
18	12	13	16	18	31	-0.896684045871	0.276109353629	-0.335737744101	-0.69384765625	-0.1455078125	0.28271484375	-23.9375	-126.75	-38.25
18	12	13	16	18	31	-0.902720508667	0.277999588735	-0.317426094624	-0.66552734375	-0.13818359375	0.30859375	-10.4375	-109.75	-37.625
18	12	13	16	18	31	-0.907371166378	0.277087851978	-0.304674572043	-0.63623046875	-0.13623046875	0.32666015625	1.9375	-90.5	-34.875
18	12	13	16	18	31	-0.911182946538	0.275021123793	-0.295345587668	-0.63330078125	-0.1259765625	0.3388671875	9.625	-70.375	-34.0625
18	12	13	16	18	31	-0.913933434825	0.272702990971	-0.289548565167	-0.64697265625	-0.10009765625	0.3701171875	10.5	-48.5	-34.3125
18	12	13	16	18	31	-0.915257259854	0.270805312215	-0.28807777184	-0.68408203125	-0.1025390625	0.41015625	8.875	-22.0	-35.4375
18	12	13	16	18	31	-0.914891565391	0.269401692437	-0.291739938797	-0.7509765625	-0.15576171875	0.44287109375	9.375	8.0625	-33.6875
18	12	13	16	18	31	-0.912710311704	0.268002606573	-0.30096125097	-0.81298828125	-0.2392578125	0.4560546875	13.0	39.875	-25.4375
18	12	13	16	18	31	-0.909002019287	0.2653646287	-0.315227301572	-0.802734375	-0.3427734375	0.45458984375	23.5625	69.3125	-8.0625
18	12	13	16	18	31	-0.903768519617	0.263538119105	-0.332321690256	-0.8857421875	-0.369140625	0.53271484375	17.0	101.5625	1.875
18	12	13	16	18	31	-0.895076381029	0.262187926694	-0.356785525944	-0.990234375	-0.3447265625	0.60595703125	9.75	146.5625	14.9375
18	12	13	16	18	31	-0.883578699818	0.25908624582	-0.386950953709	-0.97607421875	-0.44970703125	0.4423828125	16.25	178.6875	35.125
18	12	13	16	18	31	-0.869980473169	0.256526443716	-0.41820585114	-0.93603515625	-0.5576171875	0.234375	5.0	182.5	56.375
18	12	13	16	18	31	-0.853973741695	0.25792545972	-0.448714618993	-0.9970703125	-0.57275390625	0.16162109375	-28.625	178.9375	67.75
18	12	13	16	18	31	-0.836163665985	0.263177936331	-0.477467763431	-1.15869140625	-0.5126953125	0.099609375	-56.75	171.875	65.875
18	12	13	16	18	31	-0.818266572805	0.271229704598	-0.502482933833	-1.359375	-0.4287109375	-0.0283203125	-71.375	153.8125	49.375
18	12	13	16	18	31	-0.802200035925	0.279647030174	-0.522491974099	-1.33837890625	-0.4833984375	-0.11572265625	-72.1875	124.5625	41.8125
18	12	13	16	18	31	-0.787884467335	0.285943042022	-0.539538205224	-1.2119140625	-0.62451171875	-0.05810546875	-63.1875	106.0	49.375
18	12	13	16	18	31	-0.774572187101	0.287771480749	-0.556866806013	-1.0224609375	-0.60400390625	0.0107421875	-27.0625	98.1875	62.875
18	12	13	16	18	31	-0.763916587633	0.282287809029	-0.573852968754	-0.85986328125	-0.4697265625	0.04541015625	14.1875	95.625	69.375
18	12	13	16	18	31	-0.754732259844	0.273976476988	-0.589821491115	-0.748046875	-0.330078125	0.080078125	31.625	93.125	62.5625
18	12	13	16	18	31	-0.746688402202	0.267328363711	-0.603136732921	-0.701171875	-0.2861328125	0.18017578125	25.75	88.875	46.625
18	12	13	16	18	31	-0.739719537835	0.262991046908	-0.613808530693	-0.6728515625	-0.310546875	0.31201171875	15.875	86.6875	33.4375
18	12	13	16	18	31	-0.733479839521	0.259751222916	-0.623012331655	-0.66748046875	-0.3759765625	0.38427734375	14.25	85.5	27.3125
18	12	13	16	18	31	-0.728301734235	0.255482364829	-0.631504068057	-0.65673828125	-0.43896484375	0.41943359375	28.625	85.375	22.9375
18	12	13	16	18	31	-0.72421571331	0.249563294432	-0.639441094585	-0.62890625	-0.44140625	0.43408203125	45.6875	84.125	17.875
18	12	13	16	18	31	-0.720493343283	0.24315505969	-0.647070768784	-0.64599609375	-0.43994140625	0.453125	55.3125	86.125	9.3125
18	12	13	16	18	31	-0.716688228268	0.236983768233	-0.654436504447	-0.6923828125	-0.41943359375	0.4677734375	57.8125	88.5	0.9375
18	12	13	16	18	31	-0.712387226258	0.231989705878	-0.661607053859	-0.75439453125	-0.423828125	0.4208984375	56.125	88.875	-9.1875
18	12	13	16	18	31	-0.707963399277	0.228074070957	-0.668170973732	-0.8330078125	-0.46337890625	0.3486328125	54.3125	83.5	-15.4375
18	12	13	16	18	31	-0.704493156458	0.22398768814	-0.673427834043	-0.91650390625	-0.54150390625	0.27685546875	60.5625	71.3125	-17.9375
18	12	13	16	18	31	-0.702815752941	0.218382524014	-0.676936996602	-1.04296875	-0.58837890625	0.24267578125	70.3125	56.125	-16.5
18	12	13	16	18	31	-0.703105656937	0.210992730558	-0.678631232594	-1.20654296875	-0.53564453125	0.20263671875	77.125	37.25	-15.375
18	12	13	16	18	31	-0.70577045666	0.202747272313	-0.677878974587	-1.3212890625	-0.470703125	0.13525390625	77.5625	10.75	-14.0
18	12	13	16	18	31	-0.711201590895	0.194446774959	-0.674094359516	-1.31494140625	-0.51220703125	0.07080078125	74.25	-21.0625	-4.5
18	12	13	16	18	31	-0.719403455151	0.186884990216	-0.667158663634	-1.380859375	-0.50341796875	0.13720703125	58.375	-47.25	4.8125
18	12	13	16	18	31	-0.729404837661	0.180169281297	-0.658057314004	-1.427734375	-0.36767578125	0.23046875	38.875	-64.9375	8.625
18	12	13	16	18	32	-0.740441893772	0.175955652798	-0.647001691054	-1.333984375	-0.31787109375	0.2333984375	17.625	-84.0	11.125
18	12	13	16	18	32	-0.752523680986	0.175039571538	-0.633511420003	-1.1796875	-0.39111328125	0.17578125	1.0625	-106.5625	14.0
18	12	13	16	18	32	-0.765344079271	0.177603769592	-0.617707131284	-1.16943359375	-0.36328125	0.2421875	-23.0625	-122.75	11.25
18	12	13	16	18	32	-0.777432720775	0.184440389557	-0.600865531169	-1.27001953125	-0.2509765625	0.29736328125	-52.375	-128.75	4.3125
18	12	13	16	18	32	-0.788534279783	0.195546736256	-0.582978284867	-1.3251953125	-0.22998046875	0.2587890625	-79.5625	-134.375	-2.75
18	12	13	16	18	32	-0.799149584473	0.209155767984	-0.5635670737	-1.29833984375	-0.32568359375	0.18994140625	-91.3125	-142.1875	-10.375
18	12	13	16	18	32	-0.809970110009	0.222038373914	-0.542645184846	-1.2490234375	-0.3984375	0.12890625	-81.0625	-148.625	-17.25
18	12	13	16	18	32	-0.821529190905	0.231016938156	-0.520810444724	-1.14013671875	-0.4287109375	0.0859375	-52.375	-152.8125	-18.6875
18	12	13	16	18	32	-0.833838375726	0.235527908939	-0.498459816612	-1.037109375	-0.40771484375	0.0537109375	-23.3125	-155.75	-16.5
18	12	13	16	18	32	-0.846471251541	0.236870353106	-0.475693772767	-0.96337890625	-0.3408203125	0.05419921875	-5.4375	-158.3125	-13.375
18	12	13	16	18	32	-0.858937657022	0.237179829119	-0.452204156958	-0.89208984375	-0.2421875	0.07568359375	-2.4375	-161.625	-10.9375
18	12	13	16	18	32	-0.870591383622	0.238643599969	-0.427910557387	-0.8408203125	-0.16552734375	0.11669921875	-12.5	-164.125	-11.625
18	12	13	16	18	32	-0.880884927448	0.242666006481	-0.403059936317	-0.796875	-0.12158203125	0.14990234375	-29.375	-163.6875	-14.8125
18	12	13	16	18	32	-0.889680938478	0.248954417785	-0.378161699582	-0.755859375	-0.12060546875	0.19775390625	-43.3125	-159.4375	-19.75
18	12	13	16	18	32	-0.897067101706	0.256278729083	-0.353993005164	-0.716796875	-0.14208984375	0.25048828125	-49.375	-150.5	-23.625
18	12	13	16	18	32	-0.903026738708	0.263596410143	-0.331707915983	-0.6865234375	-0.15869140625	0.2900390625	-48.5625	-136.5625	-25.125
18	12	13	16	18	32	-0.907852019271	0.269761742869	-0.312056966355	-0.67138671875	-0.17578125	0.3134765625	-41.25	-119.125	-24.5625
18	12	13	16	18	32	-0.911118786151	0.273372256375	-0.298213182552	-0.65869140625	-0.185546875	0.32470703125	-27.3125	-99.75	-23.9375
18	12	13	16	18	32	-0.914084219227	0.27446329264	-0.287402189246	-0.6298828125	-0.2001953125	0.32080078125	-10.0	-81.5	-21.6875
18	12	13	16	18	32	-0.916682762962	0.273540089454	-0.279643170432	-0.59814453125	-0.18408203125	0.341796875	2.0	-62.375	-19.1875
18	12	13	16	18	32	-0.918394663504	0.27166708628	-0.27587850595	-0.6162109375	-0.15087890625	0.3935546875	5.8125	-38.125	-18.4375
18	12	13	16	18	32	-0.918809013592	0.269588110339	-0.276912215668	-0.66162109375	-0.1357421875	0.44580078125	6.75	-9.375	-17.8125
18	12	13	16	18	32	-0.917433789184	0.26811379962	-0.283554908498	-0.74267578125	-0.1708984375	0.49853515625	5.1875	24.0625	-16.75
18	12	13	16	18	32	-0.914108110898	0.26690223469	-0.296076547103	-0.80224609375	-0.2666015625	0.529296875	8.1875	59.0625	-9.5625
18	12	13	16	18	32	-0.908706847334	0.265489608832	-0.314498380302	-0.8935546875	-0.341796875	0.6044921875	11.75	96.3125	-3.75
18	12	13	16	18	32	-0.900971091861	0.263052798125	-0.339222146631	-1.02880859375	-0.3779296875	0.673828125	21.5	147.75	7.25
18	12	13	16	18	32	-0.890639076651	0.255845885652	-0.371623472742	-1.013671875	-0.50341796875	0.54248046875	47.5	190.9375	31.5
18	12	13	16	18	32	-0.878640709508	0.245111217657	-0.406362173097	-0.8662109375	-0.6259765625	0.3056640625	60.5625	200.6875	60.0
18	12	13	16	18	32	-0.864371393234	0.23638683844	-0.44066950001	-0.8232421875	-0.6162109375	0.19677734375	38.125	198.875	76.6875
18	12	13	16	18	32	-0.847490848919	0.234790241667	-0.47269311716	-0.99072265625	-0.42431640625	0.1455078125	-12.1875	190.5	70.8125
18	12	13	16	18	32	-0.828453812835	0.244251669292	-0.500099494797	-1.25439453125	-0.16748046875	0.02294921875	-78.1875	171.5625	41.4375
18	12	13	16	18	32	-0.808932532448	0.262930537935	-0.520856362752	-1.3427734375	-0.21435546875	-0.1162109375	-134.25	138.4375	23.5625
18	12	13	16	18	32	-0.79032706349	0.284478681205	-0.5358770266	-1.2998046875	-0.537109375	-0.11083984375	-158.125	106.4375	27.9375
18	12	13	16	18	32	-0.774433856367	0.29838498887	-0.549104059085	-1.15576171875	-0.69140625	-0.00732421875	-120.125	90.0	49.875
18	12	13	16	18	32	-0.761692360054	0.301503225855	-0.563701172874	-0.97607421875	-0.5908203125	0.0224609375	-42.375	83.5	69.0
18	12	13	16	18	32	-0.752541140532	0.2959506886	-0.578168874636	-0.8427734375	-0.39697265625	0.0322265625	11.0625	76.625	68.5625
18	12	13	16	18	32	-0.745496363367	0.288738706106	-0.59078221837	-0.76220703125	-0.29833984375	0.08056640625	27.875	71.375	53.875
18	12	13	16	18	32	-0.739967357761	0.283255403115	-0.600628403805	-0.74560546875	-0.33251953125	0.2109375	24.6875	67.8125	37.6875
18	12	13	16	18	32	-0.735710617412	0.277157948703	-0.609124934608	-0.7666015625	-0.31298828125	0.3056640625	29.875	66.375	31.875
18	12	13	16	18	32	-0.732485663499	0.27042526037	-0.616589123341	-0.77490234375	-0.32861328125	0.35302734375	35.5625	62.9375	29.4375
18	12	13	16	18	32	-0.730628617078	0.263114189978	-0.622721892912	-0.74755859375	-0.3603515625	0.39013671875	43.75	57.375	25.9375
18	12	13	16	18	32	-0.729760236733	0.254869845998	-0.62814187141	-0.736328125	-0.376953125	0.3935546875	55.1875	53.6875	22.25
18	12	13	16	18	32	-0.729404932758	0.24639006891	-0.633094918208	-0.703125	-0.40087890625	0.38818359375	63.9375	52.5	16.0625
18	12	13	16	18	32	-0.728960739146	0.238450235084	-0.63777961521	-0.6953125	-0.4052734375	0.3583984375	65.3125	51.875	10.5
18	12	13	16	18	32	-0.72835908376	0.23131229491	-0.642059457111	-0.70703125	-0.39208984375	0.3369140625	61.375	49.1875	6.25
18	12	13	16	18	32	-0.727774687384	0.225522263492	-0.645500259457	-0.76220703125	-0.380859375	0.30859375	50.625	42.625	3.875
18	12	13	16	18	32	-0.727612962166	0.221909136926	-0.647418076049	-0.875	-0.40576171875	0.32177734375	34.5	33.4375	1.0625
18	12	13	16	18	32	-0.727807391375	0.220936080233	-0.647794352374	-1.0595703125	-0.40380859375	0.341796875	13.9375	24.0625	-4.125
18	12	13	16	18	32	-0.728465658508	0.221908607099	-0.646867251552	-1.2314453125	-0.404296875	0.31103515625	0.9375	12.125	-10.4375
18	12	13	16	18	32	-0.730094285836	0.222836836448	-0.644890170887	-1.28271484375	-0.48193359375	0.20556640625	6.875	-2.4375	-11.375
18	12	13	16	18	32	-0.733927508227	0.221612539075	-0.641217663321	-1.22119140625	-0.615234375	0.1279296875	28.1875	-21.875	-4.375
18	12	13	16	18	33	-0.739845386304	0.217522599966	-0.636027781775	-1.3037109375	-0.56591796875	0.1875	41.4375	-34.3125	-1.25
18	12	13	16	18	33	-0.746944277015	0.2112415544	-0.629940503602	-1.3994140625	-0.36279296875	0.25	43.5	-43.9375	-1.8125
18	12	13	16	18	33	-0.75457083133	0.207273521249	-0.622125736774	-1.36767578125	-0.29150390625	0.23291015625	23.625	-59.1875	-4.875
18	12	13	16	18	33	-0.762904097555	0.207631979191	-0.611665989256	-1.2470703125	-0.35400390625	0.189453125	-0.3125	-79.5625	-7.0625
18	12	13	16	18	33	-0.77190589441	0.21075283098	-0.598994579564	-1.2216796875	-0.37841796875	0.21240234375	-17.375	-93.4375	-10.625
18	12	13	16	18	33	-0.780575783928	0.216124704894	-0.585325026809	-1.31201171875	-0.287109375	0.2802734375	-38.75	-99.1875	-16.625
18	12	13	16	18	33	-0.788777028594	0.225329989908	-0.570160554095	-1.3642578125	-0.24658203125	0.2607421875	-59.0625	-104.3125	-22.4375
18	12	13	16	18	33	-0.796854992452	0.236810460379	-0.553330833454	-1.31103515625	-0.30126953125	0.173828125	-72.0625	-113.75	-26.9375
18	12	13	16	18	33	-0.805339891652	0.248590328056	-0.53477742559	-1.20556640625	-0.36083984375	0.10986328125	-71.0625	-123.1875	-31.3125
18	12	13	16	18	33	-0.814349827095	0.259080792627	-0.514987921834	-1.09423828125	-0.36572265625	0.072265625	-61.5	-130.25	-33.375
18	12	13	16	18	33	-0.823912920455	0.267333772249	-0.494384373338	-1.00537109375	-0.345703125	0.05908203125	-47.0	-135.125	-33.5625
18	12	13	16	18	33	-0.833720913091	0.27385839949	-0.473133566492	-0.939453125	-0.3134765625	0.07421875	-37.375	-138.9375	-32.6875
18	12	13	16	18	33	-0.843674623763	0.278925922781	-0.451225240069	-0.87255859375	-0.26611328125	0.09326171875	-29.625	-141.9375	-32.3125
18	12	13	16	18	33	-0.853533187377	0.283188701425	-0.428689103192	-0.81982421875	-0.2236328125	0.12744140625	-25.375	-144.125	-34.625
18	12	13	16	18	33	-0.862926354641	0.287397991655	-0.40573834116	-0.78369140625	-0.1728515625	0.16015625	-25.0625	-143.75	-38.375
18	12	13	16	18	33	-0.87149329846	0.291860841322	-0.382983433562	-0.75390625	-0.13720703125	0.2119140625	-26.375	-139.25	-42.4375
18	12	13	16	18	33	-0.879042941236	0.296310038166	-0.361248015634	-0.73681640625	-0.13232421875	0.25146484375	-26.0	-129.8125	-45.375
18	12	13	16	18	33	-0.885538513703	0.300163926555	-0.341483767604	-0.71337890625	-0.13818359375	0.27880859375	-21.3125	-116.375	-45.9375
18	12	13	16	18	33	-0.891255072968	0.302598277873	-0.324142689347	-0.69580078125	-0.1572265625	0.30126953125	-11.8125	-101.0625	-43.9375
18	12	13	16	18	33	-0.895653986225	0.302294663971	-0.312242984227	-0.67822265625	-0.16357421875	0.30908203125	0.3125	-84.3125	-41.0625
18	12	13	16	18	33	-0.899709446405	0.29986245914	-0.3032193562	-0.65087890625	-0.16943359375	0.326171875	13.8125	-67.375	-35.8125
18	12	13	16	18	33	-0.903272798925	0.295760809702	-0.297225576403	-0.61865234375	-0.16162109375	0.337890625	23.375	-49.875	-29.875
18	12	13	16	18	33	-0.905813403443	0.29143986264	-0.294430554424	-0.611328125	-0.13134765625	0.37109375	23.0	-29.9375	-25.375
18	12	13	16	18	33	-0.9068159823	0.28782771386	-0.295639831624	-0.654296875	-0.12451171875	0.412109375	17.0625	-6.375	-22.1875
18	12	13	16	18	33	-0.905872507718	0.285457870812	-0.301693020189	-0.75830078125	-0.1494140625	0.45703125	11.125	21.375	-20.6875
18	12	13	16	18	33	-0.903222114284	0.283008375156	-0.312731273301	-0.80859375	-0.208984375	0.44873046875	14.625	49.5	-12.9375
18	12	13	16	18	33	-0.899378824862	0.27898076876	-0.32817317734	-0.810546875	-0.3271484375	0.408203125	31.0	74.875	-1.0625
18	12	13	16	18	33	-0.89469555421	0.274530363793	-0.345634826625	-0.9580078125	-0.365234375	0.50537109375	34.5625	102.5	2.625
18	12	13	16	18	33	-0.887054029388	0.269399785725	-0.369860149862	-1.11962890625	-0.32568359375	0.60400390625	36.75	144.3125	10.0625
18	12	13	16	18	33	-0.876986287945	0.260306668389	-0.400255833833	-1.10986328125	-0.43896484375	0.4599609375	57.4375	179.375	30.75
18	12	13	16	18	33	-0.865316343611	0.249317059081	-0.4319868162	-0.98388671875	-0.599609375	0.25927734375	61.4375	184.5625	54.3125
18	12	13	16	18	33	-0.851846400153	0.240106307817	-0.463001131444	-0.98046875	-0.61865234375	0.158203125	42.25	180.9375	67.1875
18	12	13	16	18	33	-0.836750070863	0.235644932429	-0.491735617866	-1.08984375	-0.5087890625	0.09912109375	7.25	170.5	65.625
18	12	13	16	18	33	-0.820348361448	0.239433570565	-0.516341577103	-1.24853515625	-0.302734375	-0.00634765625	-46.75	150.0625	50.3125
18	12	13	16	18	33	-0.804052506243	0.251274037362	-0.534834682876	-1.27294921875	-0.29931640625	-0.1259765625	-99.6875	116.5625	40.375
18	12	13	16	18	33	-0.788678287801	0.267083747672	-0.548022159586	-1.19580078125	-0.515625	-0.10107421875	-129.3125	86.9375	41.3125
18	12	13	16	18	33	-0.775305544189	0.278311680824	-0.559247791971	-1.0673828125	-0.6259765625	0.01611328125	-106.9375	73.25	54.0
18	12	13	16	18	33	-0.764388118591	0.281183013602	-0.571460073009	-0.9404296875	-0.56005859375	0.08740234375	-41.0625	72.5	63.6875
18	12	13	16	18	33	-0.757545622239	0.274833059696	-0.583417547775	-0.80517578125	-0.45263671875	0.12841796875	24.375	69.125	59.6875
18	12	13	16	18	33	-0.753839177088	0.26409700585	-0.594172487163	-0.716796875	-0.4111328125	0.21435546875	69.125	69.4375	39.625
18	12	13	16	18	33	-0.752165153605	0.24986726216	-0.604039153297	-0.7119140625	-0.341796875	0.31396484375	99.375	70.875	25.25
18	12	13	16	18	33	-0.750582361353	0.236685509622	-0.612892183502	-0.7001953125	-0.3173828125	0.39208984375	99.1875	75.125	11.9375
18	12	13	16	18	33	-0.749069444563	0.224543834967	-0.620654052128	-0.7607421875	-0.35888671875	0.44873046875	95.375	75.125	6.75
18	12	13	16	18	33	-0.7462477009	0.212088882034	-0.629492008431	-0.76611328125	-0.34423828125	0.4921875	100.5625	68.375	-0.6875
18	12	13	16	18	33	-0.745526621573	0.199213990406	-0.635299762911	-0.71337890625	-0.3203125	0.48193359375	97.125	66.9375	5.8125
18	12	13	16	18	33	-0.742949109777	0.191520110612	-0.641085800468	-0.705078125	-0.3359375	0.40283203125	66.625	67.375	-2.4375
18	12	13	16	18	33	-0.739026413941	0.189013527457	-0.646503163174	-0.744140625	-0.328125	0.37744140625	26.9375	64.875	-4.375
18	12	13	16	18	33	-0.73460315626	0.190425543996	-0.651169913105	-0.7783203125	-0.38427734375	0.3046875	-0.9375	56.1875	-3.75
18	12	13	16	18	34	-0.730498466169	0.194571736164	-0.654573986938	-0.83642578125	-0.47998046875	0.232421875	-17.3125	43.625	-2.9375
18	12	13	16	18	34	-0.727923205641	0.198901796528	-0.656150111834	-0.94482421875	-0.50048828125	0.236328125	-19.3125	29.75	-3.8125
18	12	13	16	18	34	-0.727158443192	0.202205466031	-0.655992861124	-1.10205078125	-0.45458984375	0.2587890625	-15.9375	16.125	-7.0
18	12	13	16	18	34	-0.727919665929	0.204698797646	-0.654377015015	-1.23583984375	-0.40771484375	0.24365234375	-11.0	2.125	-11.0625
18	12	13	16	18	34	-0.730585266823	0.205808982433	-0.651057062757	-1.21923828125	-0.44287109375	0.1787109375	1.0625	-16.25	-8.6875
18	12	13	16	18	34	-0.735208033506	0.205377306388	-0.645977239468	-1.22607421875	-0.5078125	0.171875	13.5	-31.6875	-4.4375
18	12	13	16	18	34	-0.74142252436	0.203116081748	-0.639559321104	-1.31787109375	-0.42578125	0.2412109375	18.25	-41.875	-3.3125
18	12	13	16	18	34	-0.748605949728	0.200486755654	-0.631975754886	-1.40478515625	-0.328125	0.29150390625	15.0	-51.375	-5.6875
18	12	13	16	18	34	-0.756440180837	0.19927200181	-0.622961507649	-1.29150390625	-0.31884765625	0.2275390625	5.875	-67.1875	-3.875
18	12	13	16	18	34	-0.765484322889	0.19982424439	-0.611618434035	-1.12744140625	-0.3984375	0.16796875	0.375	-86.875	-2.1875
18	12	13	16	18	34	-0.775297291692	0.201956918697	-0.598363744608	-1.12646484375	-0.3544921875	0.21337890625	-12.8125	-99.125	-5.375
18	12	13	16	18	34	-0.784491099829	0.208192573058	-0.583927981955	-1.25927734375	-0.19873046875	0.296875	-41.4375	-103.5	-12.4375
18	12	13	16	18	34	-0.792339109357	0.219782247173	-0.568528639937	-1.35791015625	-0.14892578125	0.2890625	-77.9375	-107.75	-19.0
18	12	13	16	18	34	-0.799430362743	0.23522710475	-0.551508074343	-1.326171875	-0.26123046875	0.2158203125	-101.9375	-116.125	-22.8125
18	12	13	16	18	34	-0.806483851766	0.251270926118	-0.532936052189	-1.23388671875	-0.36328125	0.13720703125	-103.875	-124.1875	-26.0
18	12	13	16	18	34	-0.814200720643	0.264767820551	-0.513300454319	-1.10791015625	-0.39794921875	0.080078125	-85.125	-130.125	-27.0625
18	12	13	16	18	34	-0.823023857479	0.274036123106	-0.493020891414	-1.0078125	-0.3974609375	0.05126953125	-57.3125	-134.625	-26.125
18	12	13	16	18	34	-0.832849744967	0.279528933896	-0.472147561708	-0.9345703125	-0.365234375	0.046875	-33.0	-139.125	-24.9375
18	12	13	16	18	34	-0.843217387743	0.28251688534	-0.450659900919	-0.88916015625	-0.2978515625	0.08740234375	-18.9375	-143.3125	-24.375
18	12	13	16	18	34	-0.853499247385	0.284601472437	-0.428580643245	-0.85546875	-0.2109375	0.140625	-15.0625	-145.3125	-25.4375
18	12	13	16	18	34	-0.863025503229	0.287349651287	-0.406122468068	-0.82666015625	-0.15478515625	0.173828125	-20.5625	-144.875	-28.3125
18	12	13	16	18	34	-0.871235007665	0.291795066315	-0.383709596721	-0.80078125	-0.12744140625	0.2080078125	-31.625	-140.8125	-31.4375
18	12	13	16	18	34	-0.878092971652	0.297539670314	-0.361930306658	-0.77587890625	-0.1328125	0.24951171875	-39.125	-132.6875	-34.8125
18	12	13	16	18	34	-0.883891144393	0.30309373174	-0.341728111964	-0.74169921875	-0.15966796875	0.28076171875	-36.9375	-120.6875	-36.4375
18	12	13	16	18	34	-0.888926568252	0.307355592016	-0.323773116689	-0.716796875	-0.18310546875	0.30322265625	-27.6875	-106.25	-35.875
18	12	13	16	18	34	-0.892801026406	0.308708476317	-0.31102775708	-0.68701171875	-0.19677734375	0.3125	-12.75	-90.3125	-33.375
18	12	13	16	18	34	-0.896537164077	0.307553323561	-0.301144691099	-0.66064453125	-0.19775390625	0.32568359375	3.3125	-73.75	-29.9375
18	12	13	16	18	34	-0.899804321353	0.30467497607	-0.294421491298	-0.64453125	-0.17236328125	0.34423828125	13.375	-55.875	-26.3125
18	12	13	16	18	34	-0.902312345216	0.300892847803	-0.291066529649	-0.65087890625	-0.1396484375	0.36376953125	18.0625	-36.125	-23.9375
18	12	13	16	18	34	-0.903598938018	0.297476610868	-0.291312241213	-0.6884765625	-0.1337890625	0.39111328125	16.625	-14.625	-22.875
18	12	13	16	18	34	-0.903244549523	0.294978100402	-0.295893612818	-0.76611328125	-0.16064453125	0.43798828125	12.3125	11.0	-21.6875
18	12	13	16	18	34	-0.90122323781	0.292534401925	-0.305534574596	-0.828125	-0.2099609375	0.45849609375	15.0625	40.625	-16.3125
18	12	13	16	18	34	-0.898094734802	0.28819594548	-0.319993930993	-0.82763671875	-0.322265625	0.42431640625	33.8125	68.1875	-4.1875
18	12	13	16	18	34	-0.893728167734	0.282528695516	-0.338253193033	-0.8740234375	-0.3798828125	0.48291015625	42.1875	92.8125	3.6875
18	12	13	16	18	34	-0.887261159998	0.27715848714	-0.360592896283	-0.99462890625	-0.3271484375	0.603515625	39.75	132.4375	11.25
18	12	13	16	18	34	-0.87774626322	0.270507714247	-0.389343120303	-1.10693359375	-0.38037109375	0.53759765625	46.625	171.25	21.25
18	12	13	16	18	34	-0.86551991655	0.263848995081	-0.42094992345	-1.07421875	-0.494140625	0.3701171875	41.4375	187.75	39.5
18	12	13	16	18	34	-0.851595410353	0.257559853199	-0.452438671035	-0.9931640625	-0.591796875	0.18603515625	31.0625	186.1875	57.0
18	12	13	16	18	34	-0.836576930821	0.254201715683	-0.481365889938	-0.97412109375	-0.580078125	0.0673828125	7.0	172.25	61.1875
18	12	13	16	18	34	-0.8204019594	0.257069859619	-0.506571660692	-1.0849609375	-0.4423828125	0.0439453125	-35.5	155.6875	50.625
18	12	13	16	18	34	-0.803916921979	0.266833038483	-0.526647367124	-1.18310546875	-0.3193359375	-0.03369140625	-80.4375	129.1875	37.0
18	12	13	16	18	34	-0.787948907377	0.281916034328	-0.541249489591	-1.21337890625	-0.4189453125	-0.07177734375	-115.9375	99.75	28.6875
18	12	13	16	18	34	-0.773445208307	0.296488347033	-0.552452144369	-1.17822265625	-0.59326171875	0.0068359375	-116.625	80.125	32.6875
18	12	13	16	18	34	-0.761327910182	0.305165909164	-0.563214201953	-1.0673828125	-0.6513671875	0.111328125	-70.0	72.6875	44.4375
18	12	13	16	18	34	-0.753222229501	0.303339638653	-0.574697391863	-0.92333984375	-0.54052734375	0.1328125	-2.125	70.6875	50.5625
18	12	13	16	18	34	-0.747876834481	0.295635334277	-0.586144044259	-0.8154296875	-0.43017578125	0.13330078125	42.5625	69.0	43.9375
18	12	13	16	18	34	-0.744506790175	0.286621076132	-0.595825158689	-0.75439453125	-0.35986328125	0.24072265625	56.75	67.3125	29.5
18	12	13	16	18	34	-0.741480930189	0.278062977854	-0.604524538112	-0.75439453125	-0.29345703125	0.3173828125	53.0	67.875	21.6875
18	12	13	16	18	34	-0.738424268496	0.271591701364	-0.61190525795	-0.75732421875	-0.30078125	0.3740234375	39.125	66.8125	16.9375
18	12	13	16	18	34	-0.735668189838	0.266949781181	-0.617939308289	-0.75732421875	-0.35205078125	0.39404296875	31.375	62.75	11.25
18	12	13	16	18	35	-0.733777665159	0.262433998185	-0.622884043135	-0.73876953125	-0.41845703125	0.41162109375	35.9375	58.8125	8.625
18	12	13	16	18	35	-0.732455271238	0.257375541939	-0.627417730883	-0.734375	-0.4599609375	0.38720703125	46.1875	56.0625	4.8125
18	12	13	16	18	35	-0.731548784706	0.251580518151	-0.63163677398	-0.75830078125	-0.4423828125	0.359375	52.375	52.6875	1.75
18	12	13	16	18	35	-0.730691967966	0.246086703545	-0.635418817115	-0.78564453125	-0.39990234375	0.298828125	49.9375	45.625	-0.9375
18	12	13	16	18	35	-0.729963840253	0.24248715195	-0.638046988797	-0.8271484375	-0.39892578125	0.23486328125	36.1875	33.9375	-2.6875
18	12	13	16	18	35	-0.730025079337	0.240839308006	-0.638840607425	-0.84521484375	-0.42626953125	0.18505859375	22.1875	17.4375	-2.3125
18	12	13	16	18	35	-0.731360344105	0.240226513761	-0.637674445065	-0.86328125	-0.4541015625	0.1611328125	13.375	0.3125	-0.75
18	12	13	16	18	35	-0.73422774566	0.240165102175	-0.634438687958	-0.9150390625	-0.4453125	0.15283203125	6.375	-17.1875	-0.1875
18	12	13	16	18	35	-0.73857532256	0.240596968972	-0.629201966802	-1.0009765625	-0.42041015625	0.18603515625	1.375	-32.25	-3.625
18	12	13	16	18	35	-0.74422103226	0.24144156172	-0.622157553129	-1.11083984375	-0.39599609375	0.21728515625	-1.3125	-45.1875	-10.0
18	12	13	16	18	35	-0.75112341038	0.241504455584	-0.613800937531	-1.1103515625	-0.42626953125	0.181640625	9.125	-57.875	-12.3125
18	12	13	16	18	35	-0.759558662332	0.239372364296	-0.604290101707	-1.05517578125	-0.5146484375	0.16552734375	30.0625	-68.375	-9.3125
18	12	13	16	18	35	-0.769116994291	0.234543454139	-0.59414013168	-1.0830078125	-0.4951171875	0.2216796875	45.9375	-72.5	-7.0
18	12	13	16	18	35	-0.77894505859	0.227098218523	-0.584254567569	-1.1396484375	-0.400390625	0.29248046875	55.0625	-71.9375	-4.75
18	12	13	16	18	35	-0.788153746272	0.21985052227	-0.574650934806	-1.22412109375	-0.32861328125	0.3603515625	46.6875	-69.6875	-4.4375
18	12	13	16	18	35	-0.796404099588	0.214343719653	-0.565276631955	-1.1943359375	-0.28466796875	0.30419921875	32.6875	-73.3125	-3.125
18	12	13	16	18	35	-0.804489072743	0.211421754645	-0.554799003963	-1.04736328125	-0.34521484375	0.2060546875	21.1875	-84.4375	-1.125
18	12	13	16	18	35	-0.812171281058	0.211968953116	-0.543197144466	-1.0634765625	-0.36376953125	0.24072265625	0.75	-89.5625	-6.9375
18	12	13	16	18	35	-0.818308278713	0.215196523772	-0.532437457003	-1.240234375	-0.27392578125	0.31640625	-22.8125	-84.3125	-15.125
18	12	13	16	18	35	-0.822900006868	0.220632168273	-0.522803638569	-1.36083984375	-0.287109375	0.27099609375	-35.25	-82.3125	-20.0625
18	12	13	16	18	35	-0.826993725303	0.227102852535	-0.513224371666	-1.33740234375	-0.40087890625	0.17724609375	-34.0	-86.3125	-19.1875
18	12	13	16	18	35	-0.831749393642	0.23204514196	-0.503028947931	-1.23779296875	-0.443359375	0.099609375	-18.125	-93.1875	-18.75
18	12	13	16	18	35	-0.837126472591	0.235281609204	-0.492290910463	-1.146484375	-0.37255859375	0.07177734375	-9.4375	-98.0625	-18.125
18	12	13	16	18	35	-0.844809708043	0.237965109931	-0.477394996122	-1.05615234375	-0.322265625	0.04541015625	-12.4375	-103.875	-16.625
18	12	13	16	18	35	-0.852467846142	0.241757366547	-0.461237167129	-0.99658203125	-0.31640625	0.04296875	-20.625	-111.125	-16.8125
18	12	13	16	18	35	-0.860618543806	0.245167342066	-0.443583829259	-0.9375	-0.32568359375	0.05810546875	-17.25	-119.1875	-19.3125
18	12	13	16	18	35	-0.869191290556	0.247555640369	-0.424799619568	-0.8779296875	-0.2958984375	0.0849609375	-10.75	-124.6875	-22.375
18	12	13	16	18	35	-0.877587747923	0.249684364473	-0.405561623545	-0.8349609375	-0.23828125	0.13818359375	-8.875	-124.9375	-26.0
18	12	13	16	18	35	-0.885116472228	0.252375990392	-0.386895139805	-0.81201171875	-0.1845703125	0.22412109375	-11.6875	-118.25	-31.125
18	12	13	16	18	35	-0.891459857306	0.255548570624	-0.369864900402	-0.814453125	-0.16259765625	0.30224609375	-13.1875	-104.125	-37.125
18	12	13	16	18	35	-0.895920021334	0.257014729194	-0.358087251527	-0.80322265625	-0.19189453125	0.3212890625	-3.25	-86.5	-43.4375
18	12	13	16	18	35	-0.900258020707	0.255917415649	-0.348506664287	-0.7607421875	-0.23486328125	0.33251953125	18.3125	-70.375	-47.75
18	12	13	16	18	35	-0.904562804049	0.251575998805	-0.341354818369	-0.7060546875	-0.248046875	0.34716796875	40.6875	-52.875	-47.3125
18	12	13	16	18	35	-0.908474691602	0.244253659106	-0.337206763258	-0.64892578125	-0.22509765625	0.353515625	58.125	-33.1875	-43.75
18	12	13	16	18	35	-0.911358356794	0.235896065431	-0.336235814866	-0.61328125	-0.19140625	0.3857421875	62.6875	-11.25	-43.1875
18	12	13	16	18	35	-0.912315619871	0.228994394284	-0.339036210087	-0.6318359375	-0.1396484375	0.45751953125	49.9375	15.875	-45.875
18	12	13	16	18	35	-0.910791967182	0.224234382324	-0.346605078176	-0.67919921875	-0.1201171875	0.5224609375	34.8125	48.3125	-50.75
18	12	13	16	18	35	-0.906543550059	0.221554775918	-0.359248322605	-0.72607421875	-0.19189453125	0.53125	26.625	81.1875	-53.75
18	12	13	16	18	35	-0.90043307879	0.219660994412	-0.374931227751	-0.73974609375	-0.291015625	0.490234375	30.1875	109.75	-52.0625
18	12	13	16	18	35	-0.892298610309	0.215689691439	-0.395003871814	-0.77734375	-0.36669921875	0.48193359375	41.5625	139.0625	-48.1875
18	12	13	16	18	35	-0.881871389323	0.209039345867	-0.419360392832	-0.8720703125	-0.400390625	0.47412109375	54.9375	167.8125	-45.125
18	12	13	16	18	35	-0.869277495094	0.19853680345	-0.447180805066	-0.91455078125	-0.447265625	0.41357421875	74.125	192.8125	-37.75
18	12	13	16	18	35	-0.854291346236	0.185848192419	-0.477162945265	-0.99169921875	-0.4931640625	0.3662109375	83.75	211.0625	-33.0625
