18	12	13	15	31	36	0.0950957411135	-0.507584199679	0.494949528042	-0.85791015625	0.4345703125	-0.21826171875	18.375	-10.0625	91.8125
18	12	13	15	31	37	0.0875269675019	-0.50105221494	0.502089842867	-0.82470703125	0.38134765625	-0.1708984375	1.3125	-11.875	84.125
18	12	13	15	31	37	0.0808127636945	-0.494886622383	0.5070939885	-0.77978515625	0.31201171875	-0.11962890625	-5.5625	-13.6875	77.4375
18	12	13	15	31	37	0.0758682904503	-0.488962892033	0.512400883612	-0.75439453125	0.3037109375	-0.0966796875	2.9375	-14.625	70.25
18	12	13	15	31	37	0.0726331874957	-0.483468469037	0.5181370829	-0.7197265625	0.31591796875	-0.07421875	13.4375	-13.9375	61.5
18	12	13	15	31	37	0.0708629914142	-0.478523559593	0.524178613493	-0.72607421875	0.36962890625	-0.08447265625	20.25	-13.375	52.625
18	12	13	15	31	37	0.070312173501	-0.47436303164	0.529172347442	-0.771484375	0.421875	-0.09375	18.75	-15.1875	42.5
18	12	13	15	31	37	0.071288690967	-0.471494124761	0.532162753888	-0.853515625	0.48046875	-0.11181640625	12.1875	-17.4375	28.5
18	12	13	15	31	37	0.0741576406683	-0.470336443613	0.532470170527	-0.9453125	0.52294921875	-0.11962890625	3.125	-19.5	10.875
18	12	13	15	31	37	0.0793464933854	-0.471074027653	0.529607325465	-0.98388671875	0.52197265625	-0.0927734375	-5.375	-21.5	-11.5
18	12	13	15	31	37	0.0875288785704	-0.473290742284	0.524990156613	-1.017578125	0.482421875	-0.05029296875	-3.0	-23.625	-30.4375
18	12	13	15	31	37	0.0986349315709	-0.476084446939	0.520091740047	-1.04345703125	0.5	-0.02197265625	6.875	-27.0	-46.5
18	12	13	15	31	37	0.112732308619	-0.479432747268	0.515382573893	-1.08251953125	0.5283203125	0.00048828125	19.875	-29.5	-62.5
18	12	13	15	31	37	0.129155040205	-0.483476877819	0.510516425462	-1.12646484375	0.6005859375	0.01220703125	28.875	-30.0	-79.9375
18	12	13	15	31	37	0.146673194287	-0.488300272284	0.503986918531	-1.17529296875	0.69287109375	0.01708984375	24.8125	-31.4375	-98.125
18	12	13	15	31	37	0.164499148355	-0.493741599645	0.494596140676	-1.2080078125	0.69140625	0.033203125	10.75	-34.4375	-113.375
18	12	13	15	31	37	0.182199138968	-0.499842126972	0.482202076331	-1.2119140625	0.62646484375	0.08447265625	-4.5625	-36.9375	-122.3125
18	12	13	15	31	37	0.199461641929	-0.505734138625	0.468380856843	-1.1494140625	0.52001953125	0.138671875	-12.4375	-38.9375	-123.5
18	12	13	15	31	37	0.216069067781	-0.510875168736	0.454660589237	-1.0029296875	0.38232421875	0.19921875	-12.6875	-38.8125	-118.125
18	12	13	15	31	37	0.231208350643	-0.514847528425	0.442945881895	-0.86083984375	0.26708984375	0.2529296875	-5.3125	-34.625	-104.0625
18	12	13	15	31	37	0.245248380949	-0.516864930282	0.43312158069	-0.77490234375	0.197265625	0.2734375	5.25	-27.3125	-84.4375
18	12	13	15	31	37	0.256968055147	-0.517964588119	0.426530349019	-0.74560546875	0.19287109375	0.24951171875	13.8125	-19.9375	-65.8125
18	12	13	15	31	37	0.266056689404	-0.518624384003	0.422248262744	-0.75634765625	0.2138671875	0.2021484375	15.0	-14.3125	-50.3125
18	12	13	15	31	37	0.272825218898	-0.519344471499	0.419064419005	-0.76904296875	0.23095703125	0.14990234375	10.625	-10.625	-39.4375
18	12	13	15	31	37	0.278079809042	-0.520026332976	0.416448318063	-0.7587890625	0.22998046875	0.11572265625	7.0	-9.4375	-31.875
18	12	13	15	31	37	0.282654653077	-0.520204190926	0.414979267172	-0.71630859375	0.21630859375	0.08544921875	10.25	-9.125	-25.25
18	12	13	15	31	37	0.287368573578	-0.519192244447	0.415793271711	-0.6875	0.22705078125	0.06591796875	22.375	-10.25	-18.5
18	12	13	15	31	37	0.292732800891	-0.516738092648	0.419262220458	-0.68212890625	0.26708984375	0.03955078125	38.125	-11.8125	-14.0625
18	12	13	15	31	37	0.298831651192	-0.513067577597	0.424931771976	-0.7080078125	0.3212890625	0.01806640625	52.5625	-14.0	-12.0625
18	12	13	15	31	37	0.305616475152	-0.50820107292	0.43202584604	-0.73583984375	0.37109375	0.0078125	62.5625	-17.4375	-11.25
18	12	13	15	31	37	0.312753744679	-0.502212687592	0.439893879372	-0.748046875	0.42333984375	0.015625	68.4375	-20.4375	-10.3125
18	12	13	15	31	37	0.319946372495	-0.495605597989	0.448242304388	-0.76953125	0.47021484375	0.0224609375	71.875	-21.125	-10.625
18	12	13	15	31	37	0.327281699218	-0.489091431525	0.456375469052	-0.81982421875	0.48388671875	0.03955078125	72.25	-20.375	-12.1875
18	12	13	15	31	37	0.334795386972	-0.482813402179	0.463586319791	-0.818359375	0.47265625	0.07666015625	69.4375	-19.0	-14.8125
18	12	13	15	31	37	0.34186712763	-0.476819496705	0.4703495957	-0.79443359375	0.46337890625	0.12255859375	66.625	-14.8125	-14.6875
18	12	13	15	31	37	0.347923339754	-0.47152768414	0.476960171375	-0.8212890625	0.48583984375	0.15478515625	62.8125	-7.4375	-13.8125
18	12	13	15	31	37	0.351877949699	-0.467909169539	0.482802182501	-0.89013671875	0.548828125	0.14697265625	49.625	1.1875	-14.75
18	12	13	15	31	37	0.353036273159	-0.466808682075	0.486218352695	-0.9765625	0.57666015625	0.14111328125	23.875	9.5	-14.8125
18	12	13	15	31	37	0.351146092511	-0.468520320896	0.486343136647	-1.03515625	0.5400390625	0.1552734375	-7.125	16.5	-12.3125
18	12	13	15	31	37	0.34668634593	-0.472299110001	0.484018085074	-1.0361328125	0.46337890625	0.16943359375	-31.5	23.25	-6.5
18	12	13	15	31	37	0.340283232342	-0.477128973492	0.481340550718	-1.11376953125	0.4306640625	0.1767578125	-40.8125	30.5625	1.8125
18	12	13	15	31	37	0.332824951906	-0.482300159537	0.479858751491	-1.21337890625	0.482421875	0.1318359375	-38.8125	36.4375	5.5
18	12	13	15	31	37	0.324586246296	-0.48761179422	0.478883732313	-1.32568359375	0.54345703125	0.11279296875	-39.3125	39.5625	7.4375
18	12	13	15	31	37	0.315498247749	-0.492626495953	0.478221855506	-1.46337890625	0.603515625	0.0615234375	-41.75	37.25	12.8125
18	12	13	15	31	37	0.305796868084	-0.497270875105	0.47584678315	-1.4541015625	0.60009765625	0.05517578125	-53.1875	29.875	15.125
18	12	13	15	31	37	0.295240186647	-0.501243004495	0.471456522981	-1.34814453125	0.486328125	0.08544921875	-67.125	22.6875	24.0625
18	12	13	15	31	37	0.283756494262	-0.504584843636	0.466498362152	-1.14892578125	0.3447265625	0.11865234375	-72.1875	21.3125	34.75
18	12	13	15	31	37	0.270812782979	-0.50677451816	0.462585098535	-0.97412109375	0.27978515625	0.13427734375	-70.6875	23.25	48.375
18	12	13	15	31	37	0.255619232929	-0.508064588084	0.460395385382	-0.90625	0.294921875	0.10888671875	-70.1875	26.5625	62.9375
18	12	13	15	31	38	0.238353719837	-0.508935548271	0.458762242841	-0.91455078125	0.3466796875	0.06640625	-75.3125	27.625	72.75
18	12	13	15	31	38	0.219548518961	-0.509777378472	0.456370385397	-0.9462890625	0.361328125	0.02490234375	-85.25	25.75	78.9375
18	12	13	15	31	38	0.200870878531	-0.510203486368	0.452890282193	-0.96630859375	0.29638671875	0.0107421875	-89.8125	20.375	83.3125
18	12	13	15	31	38	0.183172273093	-0.509049236121	0.450148455203	-0.91552734375	0.22705078125	0.0078125	-81.5	12.0	89.5625
18	12	13	15	31	38	0.167544399058	-0.505868116355	0.449775838492	-0.84716796875	0.1748046875	0.00537109375	-60.9375	4.125	95.0
18	12	13	15	31	38	0.152409205298	-0.499159984353	0.453931621868	-0.80419921875	0.169921875	-0.0107421875	-34.625	-1.875	101.25
18	12	13	15	31	38	0.13953178643	-0.490863791108	0.461016440467	-0.7998046875	0.19921875	-0.044921875	-10.875	-7.5	102.75
18	12	13	15	31	38	0.128668577587	-0.481469516132	0.469750176997	-0.80712890625	0.24560546875	-0.0791015625	5.125	-13.3125	101.125
18	12	13	15	31	38	0.121098495498	-0.47340722333	0.478839565113	-0.806640625	0.28369140625	-0.107421875	15.0625	-19.6875	95.75
18	12	13	15	31	38	0.115422293138	-0.464924170719	0.488362648014	-0.818359375	0.3095703125	-0.1240234375	23.0	-25.9375	90.0
18	12	13	15	31	38	0.11194040004	-0.45624563266	0.497750252086	-0.8017578125	0.3310546875	-0.12841796875	29.0	-31.5	80.75
18	12	13	15	31	38	0.110292161387	-0.447638467965	0.506660338503	-0.765625	0.34423828125	-0.12109375	32.4375	-35.3125	70.0
18	12	13	15	31	38	0.110232101056	-0.439463525805	0.514721654599	-0.7333984375	0.34423828125	-0.09423828125	34.3125	-36.75	59.625
18	12	13	15	31	38	0.111636701893	-0.431714812731	0.522293744174	-0.72412109375	0.373046875	-0.07373046875	36.9375	-37.4375	49.25
18	12	13	15	31	38	0.114073793163	-0.425289561668	0.528316080052	-0.7470703125	0.4150390625	-0.06298828125	32.875	-35.5625	36.9375
18	12	13	15	31	38	0.117741060347	-0.421035683916	0.532367821849	-0.81689453125	0.44921875	-0.05712890625	26.4375	-31.0625	22.125
18	12	13	15	31	38	0.122929659497	-0.419511196487	0.534383897169	-0.90234375	0.4814453125	-0.05078125	21.375	-24.75	4.3125
18	12	13	15	31	38	0.129580551446	-0.420480649511	0.534130666842	-0.95361328125	0.51123046875	-0.0400390625	14.25	-20.125	-14.625
18	12	13	15	31	38	0.137822656347	-0.42329500521	0.531636553047	-0.974609375	0.51806640625	-0.0234375	7.625	-18.9375	-32.875
18	12	13	15	31	38	0.148074307833	-0.427315840534	0.52814797431	-1.03857421875	0.5390625	-0.015625	8.9375	-19.5	-47.5
18	12	13	15	31	38	0.160955905593	-0.432389698604	0.523945958896	-1.11083984375	0.57373046875	0.0009765625	15.125	-20.9375	-64.8125
18	12	13	15	31	38	0.176094133971	-0.438312643343	0.519370879015	-1.16162109375	0.63525390625	0.0048828125	21.3125	-21.9375	-83.4375
18	12	13	15	31	38	0.192210120303	-0.444176895982	0.512967243896	-1.16455078125	0.63330078125	0.03955078125	17.4375	-23.5625	-100.25
18	12	13	15	31	38	0.209052445004	-0.450881871896	0.50477772852	-1.0859375	0.53076171875	0.1337890625	11.875	-22.8125	-110.4375
18	12	13	15	31	38	0.22608048113	-0.457654278485	0.49647371315	-0.98779296875	0.40771484375	0.20751953125	13.9375	-20.75	-112.1875
18	12	13	15	31	38	0.24200468122	-0.464050842703	0.489197356868	-0.87353515625	0.34765625	0.2470703125	18.3125	-15.0	-105.5625
18	12	13	15	31	38	0.256112845887	-0.469804712772	0.481462852325	-0.7763671875	0.310546875	0.2626953125	14.5625	-6.875	-94.125
18	12	13	15	31	38	0.266128589994	-0.475674335281	0.473965252593	-0.75341796875	0.3056640625	0.255859375	0.75	2.9375	-78.375
18	12	13	15	31	38	0.271860900089	-0.482318103391	0.466448360682	-0.7763671875	0.283203125	0.23291015625	-15.3125	13.625	-61.375
18	12	13	15	31	38	0.274735889123	-0.489348505465	0.459622582781	-0.8193359375	0.25537109375	0.21728515625	-21.9375	22.0625	-47.375
18	12	13	15	31	38	0.276318065442	-0.496054101578	0.454487368076	-0.83154296875	0.25244140625	0.18017578125	-18.5	26.125	-37.5625
18	12	13	15	31	38	0.277347774864	-0.501838337352	0.451300494573	-0.8115234375	0.26806640625	0.14453125	-10.3125	26.5625	-30.4375
18	12	13	15	31	38	0.278511227605	-0.506483928703	0.450268973492	-0.79248046875	0.2900390625	0.1103515625	1.25	25.3125	-25.625
18	12	13	15	31	38	0.280462601856	-0.509715601328	0.451303694913	-0.779296875	0.3203125	0.07958984375	14.8125	22.125	-22.5625
18	12	13	15	31	38	0.283399398555	-0.51162045201	0.453939549225	-0.76513671875	0.35302734375	0.0576171875	26.625	17.3125	-22.25
18	12	13	15	31	38	0.287299108743	-0.512340921774	0.457530086922	-0.7685546875	0.39404296875	0.04541015625	35.625	12.0	-22.875
18	12	13	15	31	38	0.292062519371	-0.512101261761	0.461501506576	-0.75537109375	0.4208984375	0.0439453125	41.375	7.0625	-25.1875
18	12	13	15	31	38	0.297437073538	-0.511252396461	0.465535103606	-0.7587890625	0.46435546875	0.046875	44.0625	3.625	-28.5
18	12	13	15	31	38	0.303105208733	-0.510261688483	0.469001293577	-0.79052734375	0.501953125	0.0498046875	42.375	0.9375	-33.0
18	12	13	15	31	38	0.309094003838	-0.509663296218	0.471148620779	-0.814453125	0.50732421875	0.068359375	36.9375	-0.6875	-38.25
18	12	13	15	31	38	0.315006521073	-0.509344975461	0.472052012009	-0.80615234375	0.498046875	0.107421875	31.0625	-0.875	-41.1875
18	12	13	15	31	38	0.320813980484	-0.509176222451	0.472553621939	-0.82958984375	0.490234375	0.13818359375	29.3125	1.125	-42.0
18	12	13	15	31	38	0.325578420425	-0.509364814108	0.473230126276	-0.890625	0.54833984375	0.13232421875	25.5	4.625	-41.4375
18	12	13	15	31	38	0.328924314814	-0.510568174693	0.473030885101	-0.9951171875	0.5654296875	0.115234375	14.625	8.1875	-40.625
18	12	13	15	31	38	0.330080962424	-0.512882826784	0.470463028543	-1.0576171875	0.5556640625	0.12255859375	-7.9375	8.0625	-37.4375
18	12	13	15	31	38	0.328758347102	-0.515905226459	0.466524331026	-1.10546875	0.53125	0.12060546875	-26.25	9.3125	-29.1875
18	12	13	15	31	38	0.325617930344	-0.519401797043	0.461968531354	-1.1748046875	0.4814453125	0.1162109375	-37.1875	11.5	-19.25
18	12	13	15	31	38	0.321237288755	-0.522842222207	0.45795998053	-1.25927734375	0.466796875	0.1044921875	-39.5	14.3125	-10.1875
18	12	13	15	31	38	0.316055338541	-0.525660211571	0.455222231525	-1.3740234375	0.48779296875	0.08056640625	-36.25	14.375	-1.25
18	12	13	15	31	38	0.31079929471	-0.527418834562	0.453442254596	-1.43701171875	0.49853515625	0.03857421875	-32.125	8.9375	6.125
18	12	13	15	31	38	0.305244226561	-0.527661735376	0.452037340913	-1.39111328125	0.46435546875	0.04296875	-31.9375	2.125	16.1875
18	12	13	15	31	38	0.299206835128	-0.526633327924	0.451434874053	-1.322265625	0.396484375	0.05322265625	-29.125	-1.4375	29.3125
18	12	13	15	31	39	0.29302857019	-0.524656027775	0.452146562792	-1.19091796875	0.31103515625	0.06787109375	-22.1875	-0.9375	40.375
18	12	13	15	31	39	0.285893020444	-0.521736451485	0.454535722298	-1.03759765625	0.27001953125	0.08447265625	-16.25	2.75	52.3125
18	12	13	15	31	39	0.2764918241	-0.518193286227	0.458500349369	-0.919921875	0.291015625	0.0703125	-17.0625	7.3125	64.9375
18	12	13	15	31	39	0.264537649198	-0.514548311661	0.463276593773	-0.86376953125	0.32568359375	0.03173828125	-23.25	11.5625	75.875
18	12	13	15	31	39	0.250495368761	-0.511183897021	0.467786673047	-0.8720703125	0.3671875	-0.021484375	-33.1875	13.3125	82.5625
18	12	13	15	31	39	0.235180453548	-0.508204634374	0.471154404604	-0.86474609375	0.35205078125	-0.05517578125	-44.375	12.3125	87.125
18	12	13	15	31	39	0.219369303102	-0.504781340194	0.473774215548	-0.81787109375	0.31884765625	-0.0654296875	-50.25	9.0	91.375
18	12	13	15	31	39	0.203678424381	-0.500315266602	0.476633148335	-0.765625	0.29052734375	-0.0634765625	-48.0625	4.875	96.0
18	12	13	15	31	39	0.189094676364	-0.495198550466	0.480549511625	-0.73828125	0.28515625	-0.0732421875	-37.125	2.125	96.75
18	12	13	15	31	39	0.175910701647	-0.489400418391	0.485860230779	-0.73193359375	0.3193359375	-0.09716796875	-25.0625	-0.125	94.875
18	12	13	15	31	39	0.164373291325	-0.483842213269	0.49128875673	-0.76904296875	0.35302734375	-0.125	-18.875	-3.125	87.9375
18	12	13	15	31	39	0.154545536012	-0.478529621773	0.495803076233	-0.79931640625	0.36328125	-0.14111328125	-18.0	-7.875	79.5625
18	12	13	15	31	39	0.146551596415	-0.473286580009	0.499654880572	-0.79296875	0.3408203125	-0.14111328125	-15.6875	-13.375	72.125
18	12	13	15	31	39	0.140748629415	-0.467778619183	0.503484581112	-0.77490234375	0.32275390625	-0.12939453125	-8.0	-18.75	65.125
18	12	13	15	31	39	0.137028007043	-0.462110931545	0.507461403364	-0.7333984375	0.2880859375	-0.10791015625	0.5	-22.5625	58.0625
18	12	13	15	31	39	0.13476764074	-0.456366689227	0.511970548247	-0.70947265625	0.30078125	-0.1025390625	8.5625	-24.5	52.0625
18	12	13	15	31	39	0.133547965645	-0.451060085062	0.516369190748	-0.69677734375	0.32275390625	-0.09619140625	12.25	-24.375	44.75
18	12	13	15	31	39	0.133364997604	-0.446788001126	0.520031935737	-0.74658203125	0.36572265625	-0.1083984375	11.1875	-23.375	35.625
18	12	13	15	31	39	0.134467422097	-0.444236903324	0.52248803139	-0.876953125	0.43505859375	-0.138671875	8.1875	-22.0	23.9375
18	12	13	15	31	39	0.137334489442	-0.443926107427	0.52260351049	-1.02099609375	0.48779296875	-0.14501953125	0.6875	-21.3125	7.3125
18	12	13	15	31	39	0.142582704486	-0.445693025753	0.519608974012	-1.083984375	0.47607421875	-0.10400390625	-7.375	-21.375	-13.75
18	12	13	15	31	39	0.150087233097	-0.448735802248	0.514959733891	-1.064453125	0.4296875	-0.04345703125	-6.0	-20.9375	-30.875
18	12	13	15	31	39	0.160162358931	-0.452348796507	0.511433081357	-1.12158203125	0.45458984375	-0.0048828125	11.625	-18.625	-42.4375
18	12	13	15	31	39	0.173348518966	-0.456748932191	0.509058678936	-1.2314453125	0.51806640625	0.00927734375	30.4375	-17.25	-57.9375
18	12	13	15	31	39	0.188728609651	-0.461872376854	0.506246794453	-1.322265625	0.6142578125	0.0234375	37.1875	-17.4375	-76.0625
18	12	13	15	31	39	0.204533845513	-0.468029103966	0.500439570086	-1.2763671875	0.61962890625	0.08056640625	24.4375	-16.5625	-93.375
18	12	13	15	31	39	0.219551139623	-0.474625983238	0.491777462313	-1.181640625	0.5361328125	0.1728515625	9.6875	-14.0	-99.125
18	12	13	15	31	39	0.233646680799	-0.480965476672	0.482064128776	-1.0751953125	0.400390625	0.25146484375	3.625	-10.5	-94.875
18	12	13	15	31	39	0.246287535773	-0.486410253425	0.472737785516	-0.9423828125	0.2890625	0.30712890625	2.6875	-6.6875	-84.0625
18	12	13	15	31	39	0.256352345756	-0.491036814669	0.465157435002	-0.8232421875	0.24072265625	0.29736328125	3.125	-0.375	-69.3125
18	12	13	15	31	39	0.264045553394	-0.495497411571	0.459790835349	-0.7841796875	0.20947265625	0.2880859375	6.9375	9.875	-54.375
18	12	13	15	31	39	0.269838816726	-0.499577180481	0.457035299626	-0.81689453125	0.22509765625	0.25439453125	13.3125	18.0	-40.875
18	12	13	15	31	39	0.274424168729	-0.503009246996	0.456437707685	-0.84033203125	0.26708984375	0.19775390625	19.1875	20.375	-31.8125
18	12	13	15	31	39	0.278016657638	-0.505679035901	0.45697271476	-0.7978515625	0.30419921875	0.14990234375	20.1875	18.625	-26.625
18	12	13	15	31	39	0.281382728417	-0.506977210896	0.45723167431	-0.77880859375	0.30517578125	0.181640625	18.3125	12.25	-21.8125
18	12	13	15	31	39	0.285285329371	-0.50568869359	0.458141138695	-0.7587890625	0.28857421875	0.2001953125	23.25	-0.375	-12.875
18	12	13	15	31	39	0.290282491033	-0.503050523779	0.462828454479	-0.62158203125	0.326171875	0.10888671875	46.8125	-1.625	-11.5625
18	12	13	15	31	39	0.296219364	-0.49953828044	0.470667116383	-0.63037109375	0.37548828125	0.0556640625	67.25	0.8125	-10.375
18	12	13	15	31	39	0.301399732439	-0.495740912692	0.479566159938	-0.669921875	0.46240234375	-0.00048828125	69.375	1.125	-8.9375
18	12	13	15	31	39	0.304393272168	-0.491961053474	0.487261177404	-0.720703125	0.5419921875	-0.0205078125	53.625	-0.25	-5.0625
18	12	13	15	31	39	0.306396526607	-0.488403387632	0.492370673335	-0.69287109375	0.55322265625	0.00439453125	35.4375	-5.75	-6.6875
18	12	13	15	31	39	0.308485936413	-0.486167487838	0.494285538796	-0.697265625	0.5341796875	0.025390625	18.3125	-8.8125	-15.875
18	12	13	15	31	39	0.310847785324	-0.485650074185	0.493767638577	-0.72900390625	0.51513671875	0.048828125	6.0625	-7.375	-25.9375
18	12	13	15	31	39	0.314098998606	-0.48646891156	0.491901249468	-0.76513671875	0.45849609375	0.0966796875	3.8125	-3.25	-33.3125
18	12	13	15	31	39	0.319408297622	-0.487566115308	0.490617981327	-0.83544921875	0.373046875	0.12255859375	16.3125	-0.875	-36.6875
18	12	13	15	31	39	0.325924988552	-0.487483686061	0.491511972436	-0.90869140625	0.43359375	0.08056640625	33.3125	-3.4375	-37.4375
18	12	13	15	31	39	0.332596675285	-0.486656871361	0.493310025629	-0.98828125	0.53076171875	0.05029296875	38.125	-6.0	-39.1875
18	12	13	15	31	39	0.337592985662	-0.486766237688	0.493541291279	-1.02587890625	0.55029296875	0.0478515625	22.3125	-4.8125	-39.1875
18	12	13	15	31	39	0.340589120792	-0.488299814755	0.491839988412	-1.00439453125	0.5009765625	0.0732421875	3.25	-0.0625	-35.5625
18	12	13	15	31	39	0.34186693977	-0.490674581113	0.489697992819	-0.97314453125	0.42138671875	0.1044921875	-5.375	7.8125	-28.0625
18	12	13	15	31	40	0.341017276282	-0.493062029319	0.489460808753	-1.09619140625	0.482421875	0.0673828125	-4.5625	15.75	-17.375
18	12	13	15	31	40	0.338508709998	-0.495921974168	0.490062465304	-1.2177734375	0.58935546875	0.01025390625	-7.5	20.5625	-15.6875
18	12	13	15	31	40	0.334180712365	-0.499470460143	0.489887561176	-1.3525390625	0.68212890625	-0.0400390625	-21.0	21.0	-14.75
18	12	13	15	31	40	0.328757192036	-0.503634532396	0.488008494305	-1.45947265625	0.70947265625	-0.0625	-35.25	17.5625	-14.25
18	12	13	15	31	40	0.323192105176	-0.508134896239	0.483658969105	-1.4755859375	0.62109375	-0.0419921875	-49.4375	11.4375	-12.4375
18	12	13	15	31	40	0.317074048275	-0.512384337877	0.477350554679	-1.3310546875	0.4638671875	0.02001953125	-61.0	7.4375	-4.3125
18	12	13	15	31	40	0.309639336876	-0.515943487997	0.471264600831	-1.11669921875	0.32958984375	0.08154296875	-63.875	10.375	9.5625
18	12	13	15	31	40	0.29987690979	-0.518635070728	0.466875327292	-0.958984375	0.29052734375	0.09619140625	-63.875	16.625	26.125
18	12	13	15	31	40	0.28675267687	-0.521013377983	0.463577390556	-0.88720703125	0.33251953125	0.0673828125	-71.4375	22.3125	40.875
18	12	13	15	31	40	0.270340757625	-0.523529618007	0.45986617023	-0.88427734375	0.3671875	0.03076171875	-87.1875	24.625	52.375
18	12	13	15	31	40	0.251781024357	-0.526023967978	0.454670751621	-0.892578125	0.345703125	-0.013671875	-102.875	22.875	61.8125
18	12	13	15	31	40	0.231935158506	-0.527530414465	0.448733496141	-0.89306640625	0.2744140625	-0.015625	-110.75	18.375	70.1875
18	12	13	15	31	40	0.212475021857	-0.52725057133	0.443933017513	-0.85888671875	0.19921875	-0.015625	-102.1875	12.5	77.8125
18	12	13	15	31	40	0.195681594767	-0.525886656429	0.441046538923	-0.82861328125	0.1533203125	-0.00634765625	-81.3125	6.6875	84.9375
18	12	13	15	31	40	0.181217049049	-0.522837737337	0.441598299047	-0.82275390625	0.15576171875	-0.02880859375	-54.0	2.125	89.4375
18	12	13	15	31	40	0.168946497617	-0.518497289471	0.445315623776	-0.83642578125	0.17333984375	-0.0634765625	-29.75	-2.125	91.5
18	12	13	15	31	40	0.158631000453	-0.513002523589	0.451051594209	-0.83935546875	0.21826171875	-0.08642578125	-12.75	-7.8125	90.8125
18	12	13	15	31	40	0.150089028781	-0.506542842559	0.458201845896	-0.84619140625	0.2685546875	-0.11669921875	-0.5	-14.4375	87.8125
18	12	13	15	31	40	0.143430681089	-0.499566010515	0.465875059043	-0.84765625	0.3037109375	-0.14111328125	8.125	-20.875	81.875
18	12	13	15	31	40	0.138429475871	-0.492071620138	0.473211519589	-0.80126953125	0.28955078125	-0.12744140625	12.3125	-26.8125	75.875
18	12	13	15	31	40	0.135624227374	-0.484206568748	0.481398866471	-0.818359375	0.31884765625	-0.1357421875	23.875	-31.5	70.0
18	12	13	15	31	40	0.134520486884	-0.476253792719	0.489254184601	-0.78173828125	0.3427734375	-0.11572265625	28.4375	-34.5	60.25
18	12	13	15	31	40	0.134406601104	-0.46865298968	0.496242355574	-0.7548828125	0.3671875	-0.09912109375	27.9375	-35.5	51.0625
18	12	13	15	31	40	0.13549947161	-0.461979955231	0.502385653522	-0.77978515625	0.40576171875	-0.09619140625	27.8125	-34.8125	40.75
18	12	13	15	31	40	0.138004801714	-0.456618275818	0.506912816558	-0.84765625	0.4404296875	-0.08837890625	24.0625	-34.25	28.0
18	12	13	15	31	40	0.141908143702	-0.45282430887	0.509770673633	-0.9375	0.47900390625	-0.07666015625	20.3125	-32.75	14.9375
18	12	13	15	31	40	0.147831898721	-0.450698076035	0.511063785298	-1.0107421875	0.5107421875	-0.06884765625	19.1875	-31.875	-1.5625
18	12	13	15	31	40	0.156067726223	-0.450197711623	0.511050086689	-1.07275390625	0.51904296875	-0.0546875	20.8125	-31.375	-18.5625
18	12	13	15	31	40	0.16644482583	-0.450994066027	0.509710575909	-1.13427734375	0.52978515625	-0.03076171875	21.9375	-31.1875	-34.1875
18	12	13	15	31	40	0.178651583478	-0.452946156812	0.507512099972	-1.19482421875	0.55810546875	0.00244140625	25.5	-29.3125	-49.125
18	12	13	15	31	40	0.192386852921	-0.456064265554	0.50428305166	-1.2197265625	0.57958984375	0.05810546875	27.8125	-25.0625	-64.625
18	12	13	15	31	40	0.206613927846	-0.460532373885	0.499413635934	-1.1806640625	0.57177734375	0.10595703125	23.0	-19.625	-79.0625
18	12	13	15	31	40	0.220769198827	-0.465769907727	0.49268702597	-1.0830078125	0.48388671875	0.171875	15.6875	-14.875	-86.0
18	12	13	15	31	40	0.2338880623	-0.470705828929	0.485110208549	-0.94140625	0.3857421875	0.24609375	10.5	-11.1875	-83.625
18	12	13	15	31	40	0.244997708778	-0.474919574489	0.478276543593	-0.8193359375	0.314453125	0.2734375	8.8125	-6.0	-72.0
18	12	13	15	31	40	0.253062286917	-0.478840723797	0.472859029606	-0.76513671875	0.30224609375	0.234375	4.875	0.5625	-57.375
18	12	13	15	31	40	0.258371707826	-0.483233832	0.468096533738	-0.76953125	0.2939453125	0.2109375	-2.0625	9.4375	-45.75
18	12	13	15	31	40	0.261550835132	-0.488126494412	0.463833091288	-0.80126953125	0.27880859375	0.17626953125	-7.75	15.75	-36.5
18	12	13	15	31	40	0.263869701173	-0.492886383755	0.460474907622	-0.8251953125	0.25732421875	0.15185546875	-6.25	17.8125	-29.5
18	12	13	15	31	40	0.266551083428	-0.496540660337	0.458758402347	-0.8203125	0.25927734375	0.14697265625	4.1875	16.3125	-24.8125
18	12	13	15	31	40	0.270091688838	-0.498494649207	0.459308465199	-0.77587890625	0.2841796875	0.1201171875	18.9375	11.8125	-21.4375
18	12	13	15	31	40	0.274184009082	-0.498804924804	0.461876757953	-0.72509765625	0.31982421875	0.10205078125	31.625	7.375	-18.0
18	12	13	15	31	40	0.278514385575	-0.497883375659	0.465655544061	-0.70849609375	0.3564453125	0.0849609375	38.625	3.625	-15.0
18	12	13	15	31	40	0.282723787905	-0.496475667276	0.469741423083	-0.7177734375	0.39208984375	0.06591796875	39.3125	0.9375	-14.6875
18	12	13	15	31	40	0.286823052971	-0.495088696031	0.473297712862	-0.73583984375	0.41845703125	0.0546875	35.75	-1.25	-16.6875
18	12	13	15	31	40	0.290890017134	-0.494012546934	0.475885325975	-0.74609375	0.431640625	0.046875	30.0625	-2.875	-20.0625
18	12	13	15	31	40	0.295108981641	-0.493292821018	0.477423465231	-0.74853515625	0.4306640625	0.05224609375	25.25	-4.25	-24.3125
18	12	13	15	31	40	0.299866326444	-0.492798843824	0.478455553224	-0.7568359375	0.42626953125	0.0615234375	24.6875	-5.25	-28.1875
18	12	13	15	31	40	0.305425719018	-0.492257878474	0.479440252376	-0.77001953125	0.435546875	0.0693359375	28.0625	-5.6875	-32.8125
18	12	13	15	31	40	0.311837263884	-0.491773896087	0.48023793154	-0.7685546875	0.43359375	0.09130859375	31.5	-5.75	-37.625
18	12	13	15	31	41	0.318597483425	-0.49120163728	0.481497231176	-0.78955078125	0.4501953125	0.09912109375	35.4375	-4.375	-39.5625
18	12	13	15	31	41	0.324785205364	-0.490748553115	0.483362909467	-0.86865234375	0.521484375	0.0791015625	36.25	-1.6875	-40.4375
18	12	13	15	31	41	0.329663601577	-0.491474045529	0.484393694152	-0.97265625	0.59912109375	0.048828125	25.9375	1.8125	-43.8125
18	12	13	15	31	41	0.332653133412	-0.494035681072	0.482499636628	-1.03125	0.61083984375	0.05224609375	1.125	3.5625	-47.6875
18	12	13	15	31	41	0.333803444446	-0.498416333396	0.47735906729	-1.04296875	0.54345703125	0.08740234375	-23.5625	6.0625	-47.1875
18	12	13	15	31	41	0.333620984067	-0.503422224037	0.471622638838	-1.08984375	0.45361328125	0.09375	-32.0625	9.0	-38.875
18	12	13	15	31	41	0.332639130033	-0.507991831057	0.467159614912	-1.1640625	0.4609375	0.080078125	-28.8125	11.9375	-31.0
18	12	13	15	31	41	0.330813137337	-0.512211042165	0.463992891151	-1.28369140625	0.509765625	0.0439453125	-25.4375	13.8125	-25.4375
18	12	13	15	31	41	0.328134827612	-0.516128739264	0.461866860219	-1.41552734375	0.56201171875	0.01708984375	-24.0625	14.9375	-20.25
18	12	13	15	31	41	0.324761877568	-0.519155145761	0.460135274382	-1.4658203125	0.56787109375	0.01416015625	-24.625	12.3125	-12.5
18	12	13	15	31	41	0.320330642628	-0.521086641791	0.458338947312	-1.41455078125	0.52099609375	0.03515625	-29.3125	8.25	-0.625
18	12	13	15	31	41	0.314590341834	-0.522119864969	0.456320798516	-1.24560546875	0.41748046875	0.0771484375	-35.125	6.875	13.375
18	12	13	15	31	41	0.307254595276	-0.522467090895	0.455388664155	-1.0576171875	0.3515625	0.10595703125	-35.3125	11.375	27.125
18	12	13	15	31	41	0.29712135768	-0.522220693573	0.455997054895	-0.91748046875	0.3583984375	0.0966796875	-38.1875	17.375	42.5
18	12	13	15	31	41	0.283397845422	-0.521994049978	0.456927906705	-0.8515625	0.40087890625	0.064453125	-51.6875	21.75	56.125
18	12	13	15	31	41	0.266302821267	-0.522168378625	0.456981256665	-0.853515625	0.42724609375	0.02587890625	-69.75	24.0625	67.5
18	12	13	15	31	41	0.246962547794	-0.522735358207	0.455653835709	-0.86962890625	0.4208984375	-0.021484375	-86.0	23.5625	74.6875
18	12	13	15	31	41	0.226937543512	-0.523274760766	0.45277641145	-0.86328125	0.3759765625	-0.03515625	-95.9375	20.1875	78.8125
18	12	13	15	31	41	0.207581256965	-0.522889923086	0.449708527291	-0.82958984375	0.296875	-0.02734375	-93.25	14.875	83.4375
18	12	13	15	31	41	0.189704888307	-0.520894953928	0.448138124179	-0.79541015625	0.2451171875	-0.0205078125	-78.3125	9.3125	89.0
18	12	13	15	31	41	0.173649430761	-0.517408163291	0.449108088415	-0.771484375	0.2451171875	-0.03759765625	-58.4375	4.3125	92.4375
18	12	13	15	31	41	0.159366462289	-0.512829190408	0.452219884758	-0.77978515625	0.2666015625	-0.07275390625	-40.8125	-0.5625	93.4375
18	12	13	15	31	41	0.146428205947	-0.507646264634	0.456436066723	-0.7978515625	0.314453125	-0.1142578125	-31.125	-5.75	91.375
18	12	13	15	31	41	0.13531420242	-0.502133488187	0.460996017537	-0.83349609375	0.32958984375	-0.1396484375	-23.8125	-11.4375	87.0
18	12	13	15	31	41	0.126406002531	-0.496102360491	0.465523216469	-0.8291015625	0.322265625	-0.14599609375	-17.125	-19.1875	80.9375
18	12	13	15	31	41	0.120300865265	-0.489443246352	0.470949506029	-0.84375	0.33203125	-0.158203125	-3.5	-26.8125	74.25
18	12	13	15	31	41	0.116947379742	-0.482316385553	0.476823032642	-0.814453125	0.31982421875	-0.1435546875	8.0625	-33.375	65.25
18	12	13	15	31	41	0.11547987914	-0.474798086589	0.483037929974	-0.75439453125	0.32275390625	-0.12548828125	16.8125	-37.875	57.625
18	12	13	15	31	41	0.115361522981	-0.467183649154	0.489584537479	-0.72607421875	0.3388671875	-0.1044921875	24.0	-38.875	51.6875
18	12	13	15	31	41	0.116396914818	-0.460338506324	0.49598391705	-0.7666015625	0.3720703125	-0.1123046875	27.0625	-37.4375	44.0625
18	12	13	15	31	41	0.1185957192	-0.454972975253	0.501178306923	-0.85986328125	0.42333984375	-0.10400390625	25.5625	-34.8125	33.5
18	12	13	15	31	41	0.122317633506	-0.451549826685	0.504529719841	-0.970703125	0.4609375	-0.10498046875	21.0625	-32.125	19.6875
18	12	13	15	31	41	0.127806129337	-0.450129037183	0.505792451679	-1.06201171875	0.486328125	-0.08740234375	16.3125	-29.625	3.125
18	12	13	15	31	41	0.135686165439	-0.450456095788	0.505145616361	-1.11572265625	0.46435546875	-0.044921875	16.0	-28.125	-13.9375
18	12	13	15	31	41	0.146183698036	-0.451857167667	0.504287980449	-1.14599609375	0.4541015625	0.01318359375	26.6875	-25.125	-29.3125
18	12	13	15	31	41	0.159734932291	-0.453935304338	0.504657401676	-1.1953125	0.482421875	0.04052734375	46.6875	-23.5625	-43.5625
18	12	13	15	31	41	0.17584695398	-0.4560667963	0.505933842951	-1.1943359375	0.564453125	0.06982421875	62.625	-22.875	-60.5625
18	12	13	15	31	41	0.192812481376	-0.45874599874	0.506476090679	-1.14599609375	0.66064453125	0.1015625	63.5625	-20.125	-77.6875
18	12	13	15	31	41	0.209052031834	-0.462355953618	0.504166359985	-1.05810546875	0.67138671875	0.14111328125	46.875	-17.1875	-90.4375
18	12	13	15	31	41	0.223881696272	-0.466562618947	0.498118463269	-0.95556640625	0.59521484375	0.2099609375	23.4375	-16.875	-95.25
18	12	13	15	31	41	0.236765076144	-0.470844495327	0.489399943419	-0.84375	0.45703125	0.27978515625	3.375	-15.4375	-89.5
18	12	13	15	31	41	0.246890040298	-0.475042072592	0.480108048697	-0.76123046875	0.35205078125	0.302734375	-8.5	-10.75	-76.25
18	12	13	15	31	41	0.254462160874	-0.479382540538	0.471752948284	-0.736328125	0.275390625	0.2861328125	-12.25	-1.9375	-61.25
18	12	13	15	31	41	0.260086236249	-0.483915437921	0.465054455287	-0.771484375	0.2392578125	0.28271484375	-9.6875	7.75	-48.125
18	12	13	15	31	41	0.264602516346	-0.488248103402	0.460414482305	-0.82568359375	0.236328125	0.25537109375	-2.75	13.6875	-38.1875
18	12	13	15	31	41	0.268751888935	-0.491786047955	0.457909759434	-0.83251953125	0.240234375	0.2197265625	6.75	14.5	-30.8125
18	12	13	15	31	41	0.272769433048	-0.493841459564	0.457403027806	-0.79052734375	0.26708984375	0.1884765625	16.4375	11.5625	-24.1875
18	12	13	15	31	41	0.27654914942	-0.494443756225	0.458799372367	-0.73974609375	0.294921875	0.162109375	24.9375	8.625	-17.8125
18	12	13	15	31	42	0.279977612351	-0.494035054364	0.461746378338	-0.70947265625	0.31982421875	0.1240234375	31.0625	6.5	-12.5
18	12	13	15	31	42	0.283089800024	-0.49299618689	0.465529518065	-0.69482421875	0.3564453125	0.0966796875	33.8125	5.1875	-10.0
18	12	13	15	31	42	0.285955448878	-0.491892201176	0.469552885426	-0.69384765625	0.396484375	0.0732421875	33.6875	4.5625	-10.5
18	12	13	15	31	42	0.288763841059	-0.490916840761	0.47321624598	-0.697265625	0.416015625	0.05419921875	31.1875	3.6875	-13.125
18	12	13	15	31	42	0.291936621133	-0.490060449735	0.476388318617	-0.70703125	0.42236328125	0.05224609375	29.8125	1.875	-16.1875
18	12	13	15	31	42	0.295901177324	-0.489018199818	0.479374555837	-0.7216796875	0.42431640625	0.04638671875	32.25	-1.375	-19.5625
18	12	13	15	31	42	0.301153253838	-0.487558206659	0.482309082251	-0.72998046875	0.4326171875	0.0546875	37.125	-4.625	-24.25
18	12	13	15	31	42	0.307446306919	-0.485859162811	0.485126711812	-0.71533203125	0.4375	0.07373046875	41.5	-6.6875	-29.5
18	12	13	15	31	42	0.314825980609	-0.484080041142	0.488291555811	-0.7578125	0.46728515625	0.08154296875	48.5625	-6.4375	-35.25
18	12	13	15	31	42	0.322702720552	-0.482436599819	0.49232459693	-0.86767578125	0.5654296875	0.0595703125	54.9375	-4.1875	-41.5
18	12	13	15	31	42	0.330507959166	-0.48187633197	0.49554831403	-0.99609375	0.654296875	0.02734375	50.125	-2.6875	-51.1875
18	12	13	15	31	42	0.337348992914	-0.482982193039	0.495921940912	-1.06201171875	0.6748046875	0.041015625	30.4375	-2.0	-58.6875
18	12	13	15	31	42	0.342663549884	-0.485551930767	0.493669895166	-1.08740234375	0.64208984375	0.05908203125	9.3125	-0.8125	-59.75
18	12	13	15	31	42	0.345599593304	-0.489345097054	0.489650289206	-1.130859375	0.6103515625	0.06494140625	-10.3125	2.4375	-54.125
18	12	13	15	31	42	0.34596444084	-0.494287233931	0.484643200471	-1.17333984375	0.599609375	0.0556640625	-27.3125	7.875	-48.125
18	12	13	15	31	42	0.343693810397	-0.500434301447	0.478827551513	-1.25830078125	0.6064453125	0.02783203125	-43.4375	12.75	-41.375
18	12	13	15	31	42	0.338933937987	-0.50739380992	0.472175930896	-1.34521484375	0.61181640625	0.01025390625	-58.5625	16.125	-34.5625
18	12	13	15	31	42	0.332407005369	-0.514235956708	0.4649791713	-1.36962890625	0.55126953125	0.01220703125	-68.75	16.4375	-22.625
18	12	13	15	31	42	0.324533848659	-0.520035431743	0.458143890923	-1.35986328125	0.45068359375	0.04345703125	-71.0	15.3125	-5.25
18	12	13	15	31	42	0.31635609629	-0.523943802924	0.452835400034	-1.2412109375	0.33740234375	0.08837890625	-62.875	14.75	12.1875
18	12	13	15	31	42	0.307566690219	-0.525774850078	0.450271774905	-1.064453125	0.28369140625	0.11962890625	-49.6875	16.4375	28.9375
18	12	13	15	31	42	0.297119005589	-0.525878667246	0.450805459178	-0.9580078125	0.30224609375	0.10498046875	-39.8125	19.5625	46.1875
18	12	13	15	31	42	0.284190987694	-0.525167366435	0.452959905429	-0.90625	0.36962890625	0.07470703125	-41.25	22.375	59.625
18	12	13	15	31	42	0.268377473823	-0.524425575412	0.454966042728	-0.9140625	0.4296875	0.0302734375	-54.375	23.625	69.6875
18	12	13	15	31	42	0.250062140448	-0.524172238751	0.455263242763	-0.931640625	0.42822265625	-0.0078125	-73.25	23.1875	77.1875
18	12	13	15	31	42	0.230654808751	-0.524054561507	0.453619089346	-0.89501953125	0.35498046875	-0.01025390625	-86.75	20.1875	82.75
18	12	13	15	31	42	0.211123948505	-0.522896463383	0.451606272041	-0.837890625	0.2890625	0.00341796875	-87.75	15.9375	89.8125
18	12	13	15	31	42	0.192697651566	-0.520289763049	0.451072424792	-0.79150390625	0.244140625	0.0078125	-74.75	11.5	95.8125
18	12	13	15	31	42	0.175846462645	-0.516308652384	0.452769545263	-0.771484375	0.244140625	-0.00048828125	-55.9375	7.75	99.3125
18	12	13	15	31	42	0.159729800369	-0.510256450549	0.456728351609	-0.78173828125	0.28515625	-0.03662109375	-41.125	3.25	100.375
18	12	13	15	31	42	0.14575794868	-0.504659430354	0.46107853615	-0.8056640625	0.3056640625	-0.0673828125	-32.6875	-2.3125	99.0625
18	12	13	15	31	42	0.133425314707	-0.498666432367	0.465828912096	-0.82763671875	0.31787109375	-0.10546875	-26.0	-8.5625	95.125
18	12	13	15	31	42	0.123357274502	-0.492452494152	0.470539945143	-0.85302734375	0.3125	-0.12109375	-18.5625	-15.125	89.1875
18	12	13	15	31	42	0.115726101328	-0.485854307262	0.475294910886	-0.83544921875	0.29443359375	-0.119140625	-10.5625	-22.0625	81.5625
18	12	13	15	31	42	0.110412818535	-0.478882793934	0.480469711171	-0.79638671875	0.27783203125	-0.109375	-0.4375	-27.5	73.9375
18	12	13	15	31	42	0.107299834867	-0.471740855338	0.486450332131	-0.7607421875	0.287109375	-0.09912109375	11.875	-30.4375	66.1875
18	12	13	15	31	42	0.106388859406	-0.465046884577	0.493185303502	-0.7783203125	0.3193359375	-0.10302734375	23.5625	-31.3125	56.75
18	12	13	15	31	42	0.107668506262	-0.459178102387	0.499645347087	-0.83447265625	0.36767578125	-0.10791015625	29.3125	-32.25	44.4375
18	12	13	15	31	42	0.111029302341	-0.454737934273	0.505033780963	-0.908203125	0.42626953125	-0.1181640625	30.8125	-32.6875	29.125
18	12	13	15	31	42	0.116639698112	-0.451788092843	0.508551525205	-0.96240234375	0.46630859375	-0.099609375	28.4375	-32.875	10.5
18	12	13	15	31	42	0.12451273736	-0.450443138097	0.510136009243	-1.00537109375	0.5	-0.07763671875	26.1875	-33.0625	-8.875
18	12	13	15	31	42	0.134949996846	-0.45050471584	0.510014551627	-1.0537109375	0.50244140625	-0.041015625	27.375	-33.375	-27.375
18	12	13	15	31	42	0.14795285209	-0.451671248128	0.508801557351	-1.0693359375	0.5185546875	0.00439453125	31.8125	-33.1875	-46.3125
18	12	13	15	31	42	0.162910299961	-0.454000303901	0.506859172303	-1.09814453125	0.56201171875	0.04248046875	37.0625	-30.4375	-64.0625
18	12	13	15	31	42	0.179507517804	-0.457466455607	0.503731909023	-1.115234375	0.59375	0.07666015625	38.5625	-28.125	-81.1875
18	12	13	15	31	42	0.19702486289	-0.461677838569	0.498726813716	-1.1318359375	0.5849609375	0.1181640625	33.6875	-27.375	-93.875
18	12	13	15	31	42	0.214114870474	-0.466255272391	0.492561859955	-1.13427734375	0.544921875	0.1669921875	26.375	-26.8125	-101.1875
18	12	13	15	31	42	0.230408460312	-0.471009824696	0.484986920699	-1.04296875	0.43310546875	0.23876953125	16.6875	-25.9375	-101.3125
18	12	13	15	31	42	0.246046770781	-0.474697528247	0.475857262468	-0.90673828125	0.3193359375	0.2919921875	12.0	-24.375	-92.3125
18	12	13	15	31	42	0.259347863736	-0.477556527623	0.468400919348	-0.806640625	0.25732421875	0.30322265625	13.875	-17.125	-77.1875
18	12	13	15	31	42	0.270028558157	-0.480484812344	0.462784025304	-0.77392578125	0.21533203125	0.3037109375	15.125	-5.875	-62.5625
18	12	13	15	31	42	0.278576888599	-0.48372520643	0.459065902531	-0.80517578125	0.20703125	0.28173828125	17.75	5.25	-50.5
18	12	13	15	31	43	0.285717986955	-0.486593418501	0.457600458919	-0.837890625	0.22265625	0.23291015625	24.0	10.0	-40.1875
18	12	13	15	31	43	0.291867291877	-0.488398592556	0.458064413538	-0.8076171875	0.26171875	0.17138671875	29.375	8.8125	-32.375
18	12	13	15	31	43	0.296953359894	-0.489164280819	0.459804657776	-0.7431640625	0.306640625	0.1201171875	30.625	6.3125	-26.375
18	12	13	15	31	43	0.301272309583	-0.4890181816	0.462406608063	-0.70458984375	0.3310546875	0.09423828125	31.75	3.9375	-20.8125
18	12	13	15	31	43	0.305303793112	-0.48816867999	0.465707305367	-0.6884765625	0.35693359375	0.0673828125	34.125	1.6875	-18.0625
18	12	13	15	31	43	0.309396947175	-0.486892769307	0.469497202145	-0.69189453125	0.39111328125	0.048828125	36.6875	-0.25	-17.9375
18	12	13	15	31	43	0.313846913499	-0.485357965022	0.473333880627	-0.712890625	0.4228515625	0.037109375	38.1875	-2.25	-20.5
18	12	13	15	31	43	0.318861694004	-0.483663871227	0.476888670608	-0.72314453125	0.44970703125	0.03369140625	38.625	-4.8125	-24.75
18	12	13	15	31	43	0.32446240593	-0.481932873819	0.480040786802	-0.74658203125	0.47216796875	0.03271484375	39.1875	-7.3125	-29.375
18	12	13	15	31	43	0.330941416175	-0.480237377806	0.482617812191	-0.78759765625	0.4814453125	0.04248046875	40.0625	-9.75	-34.75
18	12	13	15	31	43	0.338700635441	-0.47853901277	0.484581788569	-0.80712890625	0.458984375	0.076171875	42.8125	-11.625	-40.125
18	12	13	15	31	43	0.347112898698	-0.476570689825	0.48670269988	-0.82080078125	0.45703125	0.10400390625	47.25	-11.125	-42.625
18	12	13	15	31	43	0.355183366615	-0.47457478526	0.489712347542	-0.86474609375	0.4970703125	0.0986328125	51.3125	-7.0	-42.3125
18	12	13	15	31	43	0.361947388652	-0.473461364885	0.492443765875	-0.94482421875	0.57080078125	0.08447265625	43.8125	-2.25	-44.125
18	12	13	15	31	43	0.366454637182	-0.474059488173	0.493102434009	-1.009765625	0.60107421875	0.08056640625	22.4375	1.4375	-45.0
18	12	13	15	31	43	0.368487606463	-0.476464180231	0.491174386154	-1.05224609375	0.5810546875	0.09375	-3.0625	4.5625	-42.3125
18	12	13	15	31	43	0.368481210474	-0.48024021269	0.488052966532	-1.123046875	0.52587890625	0.0966796875	-18.75	9.875	-35.3125
18	12	13	15	31	43	0.366890490098	-0.484568890516	0.484813036575	-1.173828125	0.50146484375	0.091796875	-26.1875	13.8125	-28.1875
18	12	13	15	31	43	0.363777574315	-0.4887193016	0.482432541507	-1.2353515625	0.513671875	0.08154296875	-27.6875	18.0625	-19.5
18	12	13	15	31	43	0.359507545565	-0.492568063279	0.481154156484	-1.3349609375	0.5478515625	0.052734375	-27.0	20.375	-11.375
18	12	13	15	31	43	0.354196212598	-0.495862490289	0.479870863941	-1.36376953125	0.546875	0.052734375	-31.1875	19.0625	-3.9375
18	12	13	15	31	43	0.347850591269	-0.498368148397	0.478531081866	-1.33447265625	0.49853515625	0.0693359375	-35.5625	16.75	8.0625
18	12	13	15	31	43	0.340342059639	-0.500014733243	0.477675207808	-1.24560546875	0.43994140625	0.08056640625	-36.9375	16.5625	20.6875
18	12	13	15	31	43	0.331436768393	-0.500939513481	0.477561929265	-1.1005859375	0.4033203125	0.087890625	-38.3125	18.5	31.8125
18	12	13	15	31	43	0.320505440398	-0.501297120928	0.478164086856	-0.982421875	0.39892578125	0.07568359375	-42.3125	21.0	43.6875
18	12	13	15	31	43	0.307141790126	-0.50136380447	0.478901924747	-0.91943359375	0.42236328125	0.048828125	-52.125	22.125	54.375
18	12	13	15	31	43	0.291321155118	-0.501465453686	0.478943453637	-0.90576171875	0.44775390625	0.01416015625	-66.0625	21.5625	63.375
18	12	13	15	31	43	0.273626968772	-0.501903761814	0.477489131542	-0.9228515625	0.44580078125	-0.02880859375	-81.5	19.5	69.6875
18	12	13	15	31	43	0.255012990219	-0.502457380442	0.47413616755	-0.92333984375	0.39306640625	-0.041015625	-95.0625	15.625	74.0
18	12	13	15	31	43	0.236763322125	-0.502519317107	0.469742337478	-0.87939453125	0.29931640625	-0.03125	-97.6875	10.5	78.125
18	12	13	15	31	43	0.219733254413	-0.501052857077	0.466383832492	-0.82470703125	0.22802734375	-0.009765625	-85.8125	5.25	83.5
18	12	13	15	31	43	0.204713698215	-0.497929144317	0.465336086819	-0.794921875	0.19775390625	-0.0087890625	-64.5	0.6875	87.625
18	12	13	15	31	43	0.191472457295	-0.493421531647	0.467053631885	-0.78759765625	0.21875	-0.02783203125	-43.125	-3.0625	89.25
18	12	13	15	31	43	0.179748057053	-0.488096846265	0.470640838008	-0.78857421875	0.25048828125	-0.06005859375	-27.6875	-6.875	88.9375
18	12	13	15	31	43	0.169493693786	-0.482297143787	0.475217104723	-0.80322265625	0.283203125	-0.0927734375	-18.1875	-11.125	86.1875
18	12	13	15	31	43	0.160771150718	-0.476148726936	0.48023819812	-0.8173828125	0.30224609375	-0.1123046875	-11.125	-15.75	82.0
18	12	13	15	31	43	0.153571787616	-0.469871073555	0.485252667545	-0.806640625	0.31591796875	-0.12744140625	-6.1875	-20.5	75.9375
18	12	13	15	31	43	0.147773598613	-0.463524455956	0.489770902632	-0.77294921875	0.31494140625	-0.12548828125	-4.75	-24.25	68.4375
18	12	13	15	31	43	0.143192483238	-0.457349222891	0.493605120182	-0.74072265625	0.30517578125	-0.10986328125	-3.8125	-26.625	61.6875
18	12	13	15	31	43	0.139595374162	-0.451502834576	0.497098700119	-0.7333984375	0.30859375	-0.10009765625	-2.0625	-27.0625	55.5
18	12	13	15	31	43	0.137514284345	-0.446539948632	0.500495841823	-0.7939453125	0.341796875	-0.107421875	2.5625	-26.8125	47.3125
18	12	13	15	31	43	0.137511027794	-0.442806261273	0.503474686318	-0.89306640625	0.39404296875	-0.125	6.4375	-26.9375	35.125
18	12	13	15	31	43	0.139835717232	-0.440809057115	0.504897884306	-0.990234375	0.42431640625	-0.11572265625	6.0	-27.0	18.9375
18	12	13	15	31	43	0.144660804528	-0.440330398256	0.504725819681	-1.03515625	0.43701171875	-0.08203125	6.625	-26.875	0.0625
18	12	13	15	31	43	0.152162349056	-0.440861872133	0.504033966506	-1.037109375	0.43408203125	-0.03564453125	14.75	-26.125	-16.125
18	12	13	15	31	43	0.162358887245	-0.442214337626	0.503861885039	-1.0703125	0.44384765625	0.00439453125	29.125	-24.3125	-30.4375
18	12	13	15	31	43	0.174996331922	-0.444296581814	0.503991877461	-1.134765625	0.498046875	0.03466796875	40.875	-22.5	-45.3125
18	12	13	15	31	43	0.189274477946	-0.447764453471	0.503429827185	-1.20556640625	0.564453125	0.0654296875	44.9375	-18.0625	-61.8125
18	12	13	15	31	43	0.204104535865	-0.452582276746	0.500922824714	-1.24462890625	0.59228515625	0.09423828125	37.9375	-14.1875	-76.3125
18	12	13	15	31	43	0.219183526056	-0.458265083161	0.495802779771	-1.21630859375	0.54345703125	0.16357421875	27.0625	-12.0625	-86.5
18	12	13	15	31	44	0.233707183315	-0.463996345667	0.489082178089	-1.126953125	0.46240234375	0.240234375	19.4375	-9.4375	-88.6875
18	12	13	15	31	44	0.24707369323	-0.469122629982	0.481757080204	-0.97607421875	0.3681640625	0.30908203125	14.6875	-6.0625	-84.4375
18	12	13	15	31	44	0.258364943537	-0.473333365729	0.475469622054	-0.8271484375	0.31298828125	0.31982421875	13.875	-1.6875	-72.875
18	12	13	15	31	44	0.266849483683	-0.477240647968	0.470770829745	-0.74658203125	0.291015625	0.29345703125	11.75	6.0	-59.0625
18	12	13	15	31	44	0.272600117231	-0.481597609708	0.466826174784	-0.75146484375	0.27880859375	0.26611328125	5.75	14.75	-47.3125
18	12	13	15	31	44	0.276372196902	-0.486336940131	0.463509377931	-0.791015625	0.27880859375	0.23828125	1.4375	20.625	-38.5625
18	12	13	15	31	44	0.27948412067	-0.490790961849	0.461371580726	-0.81005859375	0.28125	0.19189453125	4.0	21.375	-33.0
18	12	13	15	31	44	0.28272604567	-0.494160204176	0.460650575706	-0.79052734375	0.310546875	0.15576171875	11.25	18.1875	-29.875
18	12	13	15	31	44	0.286136318401	-0.496221900299	0.461126255443	-0.74951171875	0.34033203125	0.1279296875	18.0625	12.8125	-27.3125
18	12	13	15	31	44	0.289866015329	-0.496904449525	0.462601501407	-0.72216796875	0.37109375	0.10498046875	23.8125	7.3125	-24.4375
18	12	13	15	31	44	0.293966075404	-0.496556067984	0.46487658436	-0.70849609375	0.38720703125	0.0966796875	29.375	2.875	-22.75
18	12	13	15	31	44	0.29864742487	-0.495548424795	0.467594098086	-0.7119140625	0.4052734375	0.087890625	34.0625	-0.25	-23.3125
18	12	13	15	31	44	0.303727915752	-0.494229287348	0.470363207151	-0.72216796875	0.435546875	0.07958984375	35.5625	-2.6875	-25.9375
18	12	13	15	31	44	0.308969296842	-0.492873779534	0.472609495347	-0.724609375	0.4482421875	0.08837890625	33.6875	-4.75	-28.8125
18	12	13	15	31	44	0.314402247584	-0.491531993747	0.474258486454	-0.73193359375	0.447265625	0.0888671875	31.3125	-6.5	-30.5625
18	12	13	15	31	44	0.320025959877	-0.490140846426	0.475552594584	-0.75048828125	0.43603515625	0.09326171875	30.375	-8.125	-31.125
18	12	13	15	31	44	0.325754250514	-0.488600857292	0.476637613316	-0.77587890625	0.4375	0.10009765625	29.75	-9.3125	-31.5
18	12	13	15	31	44	0.33125617367	-0.487331728502	0.477382445969	-0.80224609375	0.44189453125	0.10888671875	27.1875	-8.6875	-32.125
18	12	13	15	31	44	0.336316015646	-0.486345918814	0.477861721686	-0.845703125	0.46142578125	0.11669921875	23.5625	-6.625	-32.6875
18	12	13	15	31	44	0.340710430968	-0.485918262439	0.47816652028	-0.93310546875	0.5	0.11767578125	20.4375	-3.8125	-33.3125
18	12	13	15	31	44	0.344862938406	-0.48616518662	0.477986136399	-1.04638671875	0.51318359375	0.1171875	16.3125	-1.5	-34.875
18	12	13	15	31	44	0.34876011811	-0.486945786188	0.476935870303	-1.09716796875	0.4580078125	0.14111328125	11.25	-0.625	-33.125
18	12	13	15	31	44	0.351574053189	-0.487625887314	0.47596778937	-1.1044921875	0.43310546875	0.158203125	7.125	1.625	-26.125
18	12	13	15	31	44	0.352924542229	-0.488185833405	0.475856058668	-1.103515625	0.43896484375	0.15234375	5.9375	6.125	-18.375
18	12	13	15	31	44	0.352972800444	-0.489022665944	0.476388156228	-1.1298828125	0.4765625	0.1259765625	3.25	10.0625	-14.375
18	12	13	15	31	44	0.351450020754	-0.490369827498	0.477185873959	-1.21923828125	0.53857421875	0.076171875	-3.0	12.6875	-11.5625
18	12	13	15	31	44	0.34912493767	-0.492009811636	0.477300177024	-1.3251953125	0.5546875	0.06005859375	-10.4375	11.1875	-8.5625
18	12	13	15	31	44	0.346012800703	-0.493170476218	0.476812841611	-1.35791015625	0.54736328125	0.05859375	-17.3125	6.875	-2.375
18	12	13	15	31	44	0.342360642549	-0.493673181839	0.476277428028	-1.3583984375	0.51708984375	0.0673828125	-19.5	4.0	5.5625
18	12	13	15	31	44	0.338637046266	-0.4936117147	0.475788712265	-1.2724609375	0.43896484375	0.10400390625	-18.5	3.6875	12.5625
18	12	13	15	31	44	0.334180500712	-0.492694977488	0.475665505397	-1.09814453125	0.359375	0.154296875	-18.4375	5.3125	22.25
18	12	13	15	31	44	0.328021063056	-0.491054978096	0.4764667693	-0.91943359375	0.3037109375	0.1748046875	-19.4375	9.25	35.875
18	12	13	15	31	44	0.318866760762	-0.489104011099	0.478483257582	-0.81298828125	0.3095703125	0.1435546875	-24.875	14.5625	50.875
18	12	13	15	31	44	0.306602041959	-0.487523493754	0.480870174507	-0.7890625	0.345703125	0.09375	-36.375	20.0625	62.4375
18	12	13	15	31	44	0.291442187642	-0.486815264635	0.482481778704	-0.82861328125	0.396484375	0.03125	-53.0	23.125	69.9375
18	12	13	15	31	44	0.273985053198	-0.48711844722	0.482052561853	-0.8828125	0.408203125	-0.01416015625	-73.4375	23.0625	74.3125
18	12	13	15	31	44	0.255920782928	-0.488098855491	0.479370815434	-0.91259765625	0.34521484375	-0.03759765625	-87.6875	20.0	76.6875
18	12	13	15	31	44	0.238649776453	-0.488469094872	0.475895730691	-0.88818359375	0.27001953125	-0.033203125	-87.6875	13.875	78.4375
18	12	13	15	31	44	0.223394326389	-0.487255985672	0.473827911409	-0.84521484375	0.2158203125	-0.0224609375	-70.9375	7.6875	81.0
18	12	13	15	31	44	0.210703213232	-0.484214539563	0.474875723913	-0.8232421875	0.2099609375	-0.0380859375	-44.1875	1.9375	82.3125
18	12	13	15	31	44	0.200623508143	-0.479738598724	0.478823067047	-0.82275390625	0.240234375	-0.05908203125	-19.0625	-3.4375	81.1875
18	12	13	15	31	44	0.192941669293	-0.474388691473	0.484521028424	-0.8251953125	0.26611328125	-0.087890625	-1.5	-9.375	76.625
18	12	13	15	31	44	0.187081467511	-0.468527681767	0.491050703467	-0.82373046875	0.28857421875	-0.11376953125	8.6875	-14.5	71.9375
18	12	13	15	31	44	0.182621042894	-0.462473142382	0.497569098152	-0.8212890625	0.31201171875	-0.12255859375	13.125	-18.4375	65.875
18	12	13	15	31	44	0.17932770277	-0.456620335065	0.503252862265	-0.78466796875	0.306640625	-0.1171875	12.75	-21.1875	58.125
18	12	13	15	31	44	0.177068991377	-0.451126134183	0.507951791188	-0.74755859375	0.2861328125	-0.08837890625	11.5625	-22.125	51.1875
18	12	13	15	31	44	0.175791994882	-0.446072187014	0.512299379531	-0.7333984375	0.283203125	-0.07080078125	14.0625	-21.6875	44.5625
18	12	13	15	31	44	0.175786196186	-0.441723854792	0.516677135666	-0.75634765625	0.31640625	-0.06982421875	19.125	-20.1875	36.3125
18	12	13	15	31	44	0.177317983907	-0.438625484459	0.52084487321	-0.82666015625	0.37841796875	-0.0830078125	23.125	-18.375	24.25
18	12	13	15	31	44	0.180612003484	-0.437094476833	0.523829744474	-0.9189453125	0.4267578125	-0.09228515625	22.25	-17.4375	9.8125
18	12	13	15	31	45	0.186042462655	-0.437273032303	0.525167109148	-0.97998046875	0.4775390625	-0.083984375	20.4375	-17.25	-9.1875
18	12	13	15	31	45	0.193365771037	-0.439040401221	0.524492446502	-0.99072265625	0.48828125	-0.05078125	17.3125	-16.875	-28.1875
18	12	13	15	31	45	0.202764766295	-0.441907558091	0.522537376356	-0.99951171875	0.4853515625	-0.00830078125	18.875	-16.375	-44.3125
18	12	13	15	31	45	0.214484408319	-0.445387799517	0.520280334807	-1.04736328125	0.4892578125	0.02587890625	27.4375	-16.5625	-57.25
18	12	13	15	31	45	0.227849228458	-0.449228588655	0.517894643307	-1.08154296875	0.5283203125	0.0400390625	33.8125	-16.8125	-70.125
18	12	13	15	31	45	0.241587372912	-0.454059744086	0.513998804267	-1.12158203125	0.56396484375	0.052734375	27.5	-15.8125	-81.5625
18	12	13	15	31	45	0.254516956171	-0.460205719311	0.50708078462	-1.12451171875	0.55126953125	0.08349609375	8.9375	-13.625	-90.0625
18	12	13	15	31	45	0.265813998418	-0.467539661971	0.497752734122	-1.16162109375	0.517578125	0.12060546875	-9.1875	-9.1875	-91.5625
18	12	13	15	31	45	0.276254728906	-0.475602485115	0.48671127006	-1.1689453125	0.4365234375	0.166015625	-19.8125	-5.75	-91.375
18	12	13	15	31	45	0.285896811625	-0.483839458956	0.474928072428	-1.08837890625	0.345703125	0.189453125	-25.6875	-3.75	-89.375
18	12	13	15	31	45	0.294630029658	-0.491233163184	0.463766100134	-0.95654296875	0.25390625	0.20947265625	-24.0	-1.6875	-81.4375
18	12	13	15	31	45	0.303056018409	-0.496792131688	0.455530123945	-0.87939453125	0.173828125	0.232421875	-7.625	1.375	-66.4375
18	12	13	15	31	45	0.311531024646	-0.500012177488	0.451976339636	-0.875	0.16162109375	0.2236328125	18.375	4.0625	-50.75
18	12	13	15	31	45	0.320076523691	-0.500928304716	0.452648264625	-0.9091796875	0.2216796875	0.18896484375	41.125	4.5625	-39.4375
18	12	13	15	31	45	0.328007896849	-0.500190680066	0.45581744951	-0.91015625	0.31689453125	0.15234375	51.8125	3.1875	-33.5
18	12	13	15	31	45	0.334907164856	-0.498668040254	0.4594826202	-0.8466796875	0.3720703125	0.12451171875	49.375	0.625	-29.8125
18	12	13	15	31	45	0.340516657682	-0.49658424931	0.462648550856	-0.7724609375	0.38671875	0.12255859375	41.4375	-2.0625	-25.1875
18	12	13	15	31	45	0.345228328518	-0.49409888956	0.465716433272	-0.7060546875	0.3671875	0.11328125	36.875	-4.0625	-19.3125
18	12	13	15	31	45	0.349437005264	-0.491103955345	0.46913062401	-0.67138671875	0.35400390625	0.10791015625	37.1875	-5.25	-14.5625
18	12	13	15	31	45	0.353462735361	-0.487499027341	0.473216471638	-0.654296875	0.36572265625	0.0908203125	39.875	-6.125	-11.1875
18	12	13	15	31	45	0.357186792716	-0.48371588043	0.477673246718	-0.66064453125	0.388671875	0.06982421875	40.5	-6.75	-9.875
18	12	13	15	31	45	0.360498769919	-0.480074978905	0.481906161279	-0.67724609375	0.41357421875	0.05322265625	37.3125	-7.25	-10.125
18	12	13	15	31	45	0.363467257147	-0.47681044716	0.485538544183	-0.7021484375	0.42578125	0.04248046875	32.5	-8.0	-11.375
18	12	13	15	31	45	0.366587748733	-0.473768582362	0.488539517293	-0.75048828125	0.419921875	0.05126953125	29.5	-8.875	-12.625
18	12	13	15	31	45	0.370314962499	-0.47084384716	0.491230396933	-0.80859375	0.4111328125	0.06689453125	31.0625	-9.625	-14.5
18	12	13	15	31	45	0.374757698717	-0.46765366247	0.494143050295	-0.8369140625	0.3896484375	0.083984375	36.0	-9.625	-15.0
18	12	13	15	31	45	0.379163568014	-0.464066421058	0.497697960976	-0.85009765625	0.4072265625	0.10205078125	39.9375	-7.75	-13.4375
18	12	13	15	31	45	0.382824752108	-0.46046395566	0.501908153154	-0.92333984375	0.4619140625	0.1083984375	41.125	-3.75	-11.625
18	12	13	15	31	45	0.385503656373	-0.457648260843	0.505988808001	-1.02880859375	0.5146484375	0.09423828125	35.25	0.25	-11.875
18	12	13	15	31	45	0.386851990719	-0.456189930362	0.508132348175	-1.08447265625	0.51123046875	0.1201171875	18.625	2.5625	-11.8125
18	12	13	15	31	45	0.386553986575	-0.456076328389	0.508446977447	-1.083984375	0.47509765625	0.14404296875	0.9375	6.0	-8.6875
18	12	13	15	31	45	0.384462422842	-0.457216702574	0.507998213259	-1.08447265625	0.427734375	0.16357421875	-10.625	12.875	-2.8125
18	12	13	15	31	45	0.380999652258	-0.458884233527	0.508325072734	-1.1181640625	0.4384765625	0.142578125	-12.6875	19.8125	1.9375
18	12	13	15	31	45	0.376413466009	-0.461071399746	0.509107300144	-1.1865234375	0.4970703125	0.10791015625	-15.4375	23.8125	3.4375
18	12	13	15	31	45	0.370859038625	-0.463573798282	0.509717549631	-1.29833984375	0.54541015625	0.0673828125	-21.5	23.625	6.0
18	12	13	15	31	45	0.364951782745	-0.466276412174	0.509247821281	-1.3623046875	0.5322265625	0.05029296875	-29.1875	19.75	8.4375
18	12	13	15	31	45	0.358843645913	-0.468590350344	0.508021035029	-1.341796875	0.47900390625	0.06494140625	-34.0625	16.3125	13.8125
18	12	13	15	31	45	0.352479241952	-0.470216464069	0.506776648645	-1.25732421875	0.41357421875	0.0947265625	-33.875	15.0625	21.1875
18	12	13	15	31	45	0.345588169023	-0.471201106474	0.505869788919	-1.111328125	0.36376953125	0.10888671875	-33.75	15.6875	27.75
18	12	13	15	31	45	0.336987404959	-0.471696914603	0.505511626131	-0.9951171875	0.34619140625	0.10986328125	-37.0625	17.8125	37.5625
18	12	13	15	31	45	0.326054822441	-0.472114199097	0.505256798982	-0.92822265625	0.35986328125	0.07763671875	-46.75	20.1875	47.625
18	12	13	15	31	45	0.312812294199	-0.473033225374	0.504467046157	-0.9306640625	0.37939453125	0.0283203125	-59.6875	21.625	55.0
18	12	13	15	31	45	0.297977745034	-0.47443281691	0.50263144825	-0.95166015625	0.376953125	-0.01611328125	-72.375	20.875	60.3125
18	12	13	15	31	45	0.282420463229	-0.475970341962	0.499347700384	-0.9326171875	0.3349609375	-0.0302734375	-82.9375	17.6875	63.75
18	12	13	15	31	45	0.266982596686	-0.47695519216	0.495388832809	-0.86572265625	0.2607421875	-0.02197265625	-84.75	13.5	67.5625
18	12	13	15	31	45	0.252505001881	-0.476628368307	0.492619741402	-0.8046875	0.2099609375	-0.02392578125	-73.5625	9.5625	72.4375
18	12	13	15	31	45	0.239206296401	-0.474933450446	0.492023974302	-0.76904296875	0.21435546875	-0.03173828125	-56.0	7.125	75.5
18	12	13	15	31	45	0.227173620839	-0.47247474447	0.493348838593	-0.76708984375	0.23828125	-0.072265625	-40.9375	4.875	75.125
18	12	13	15	31	45	0.216871240649	-0.469511281473	0.495758011977	-0.7890625	0.25146484375	-0.1015625	-29.3125	1.0	72.375
18	12	13	15	31	45	0.208444405725	-0.465902239796	0.499167891661	-0.802734375	0.26123046875	-0.123046875	-17.1875	-4.625	68.6875
18	12	13	15	31	46	0.202093383501	-0.46156151194	0.503493905315	-0.80615234375	0.27587890625	-0.15185546875	-5.9375	-11.3125	64.3125
18	12	13	15	31	46	0.197698158008	-0.456860362053	0.508314374773	-0.8115234375	0.29052734375	-0.16748046875	3.125	-16.6875	58.125
18	12	13	15	31	46	0.195131992572	-0.45209342164	0.512885246665	-0.79638671875	0.28515625	-0.15966796875	8.375	-20.8125	50.3125
18	12	13	15	31	46	0.194096979531	-0.447460678284	0.5172257247	-0.76416015625	0.2783203125	-0.1396484375	13.375	-22.6875	42.4375
18	12	13	15	31	46	0.1946501417	-0.443074750267	0.521996867928	-0.76220703125	0.3115234375	-0.13427734375	21.375	-22.9375	33.9375
18	12	13	15	31	46	0.196844426179	-0.439405588857	0.526810617784	-0.80322265625	0.35986328125	-0.1396484375	27.625	-22.5	22.9375
18	12	13	15	31	46	0.200563378636	-0.437137832561	0.530461449705	-0.8798828125	0.41015625	-0.14892578125	26.4375	-22.4375	9.5625
18	12	13	15	31	46	0.205872608193	-0.436342506959	0.532290250831	-0.94580078125	0.45458984375	-0.13525390625	21.625	-22.5625	-6.375
18	12	13	15	31	46	0.212836828952	-0.43708762034	0.531939479299	-0.97607421875	0.466796875	-0.10302734375	16.125	-22.375	-23.0625
18	12	13	15	31	46	0.221321610279	-0.439042013992	0.529560477324	-0.9716796875	0.4345703125	-0.04345703125	12.4375	-22.125	-37.0625
18	12	13	15	31	46	0.23132837061	-0.441477072459	0.526684039576	-1.01025390625	0.42822265625	-0.00439453125	16.75	-22.125	-46.25
18	12	13	15	31	46	0.242749131626	-0.444419519076	0.5238913243	-1.072265625	0.466796875	0.0322265625	24.5	-19.8125	-56.4375
18	12	13	15	31	46	0.254768415666	-0.448316725699	0.52027934239	-1.1220703125	0.51708984375	0.056640625	23.0625	-16.0	-68.0
18	12	13	15	31	46	0.266493017449	-0.453392151537	0.514979749935	-1.1806640625	0.5654296875	0.0712890625	13.375	-13.5625	-77.6875
18	12	13	15	31	46	0.277786302754	-0.4593758986	0.507169059456	-1.21142578125	0.5478515625	0.111328125	-1.1875	-13.4375	-84.125
18	12	13	15	31	46	0.288828674352	-0.465653836989	0.497881550441	-1.22412109375	0.48681640625	0.15869140625	-8.625	-13.3125	-85.25
18	12	13	15	31	46	0.300062934806	-0.471152521107	0.488182130304	-1.1611328125	0.3828125	0.2216796875	-8.0625	-14.5625	-82.0
18	12	13	15	31	46	0.311280671017	-0.474977682716	0.479677410494	-1.00927734375	0.28076171875	0.2841796875	0.9375	-14.375	-73.5
18	12	13	15	31	46	0.321302965338	-0.476827273028	0.474568874526	-0.87451171875	0.23876953125	0.318359375	16.75	-7.9375	-57.8125
18	12	13	15	31	46	0.328990222351	-0.477432563865	0.472976852133	-0.80712890625	0.2626953125	0.30224609375	27.1875	1.1875	-40.5625
18	12	13	15	31	46	0.333874025632	-0.477738939419	0.472916992797	-0.79931640625	0.291015625	0.2724609375	23.5625	7.8125	-26.5625
18	12	13	15	31	46	0.335814668451	-0.478270400214	0.473509668818	-0.8447265625	0.32421875	0.21875	13.8125	11.875	-14.375
18	12	13	15	31	46	0.335776177779	-0.479340178894	0.474090814908	-0.8759765625	0.3251953125	0.15966796875	4.5	13.375	-6.75
18	12	13	15	31	46	0.33467348981	-0.480494202405	0.474390363452	-0.83447265625	0.31689453125	0.12744140625	-2.1875	12.75	-2.5
18	12	13	15	31	46	0.333029260593	-0.48111008651	0.475250334124	-0.77490234375	0.29638671875	0.109375	-1.125	11.75	3.1875
18	12	13	15	31	46	0.331736827228	-0.480484324552	0.477737653489	-0.72607421875	0.2890625	0.0888671875	8.9375	9.375	8.625
18	12	13	15	31	46	0.331244240582	-0.478402866719	0.482004011033	-0.69287109375	0.29931640625	0.07861328125	22.75	6.6875	11.9375
18	12	13	15	31	46	0.331676512344	-0.475114091293	0.487809842961	-0.66845703125	0.33154296875	0.0615234375	34.625	4.1875	12.3125
18	12	13	15	31	46	0.332764230955	-0.471253233162	0.494385596246	-0.6669921875	0.36767578125	0.04248046875	41.75	2.0625	10.8125
18	12	13	15	31	46	0.33412422273	-0.467187943145	0.501003218883	-0.67578125	0.41455078125	0.03076171875	42.875	0.4375	7.4375
18	12	13	15	31	46	0.335819537454	-0.463445610303	0.506964209032	-0.716796875	0.451171875	0.0224609375	40.625	-1.0625	2.5
18	12	13	15	31	46	0.337961685135	-0.460279766589	0.511794966563	-0.76416015625	0.466796875	0.015625	36.0	-3.125	-3.3125
18	12	13	15	31	46	0.340955871539	-0.457598669697	0.515401249423	-0.783203125	0.47119140625	0.03955078125	33.3125	-5.125	-10.8125
18	12	13	15	31	46	0.344690710218	-0.455233454367	0.518226337835	-0.77978515625	0.47705078125	0.07177734375	32.5625	-5.1875	-16.8125
18	12	13	15	31	46	0.3490734016	-0.453264395923	0.521077046593	-0.8212890625	0.509765625	0.0888671875	36.125	-2.5	-23.125
18	12	13	15	31	46	0.353339395248	-0.45203516345	0.523935976648	-0.9287109375	0.58935546875	0.0703125	35.375	0.4375	-28.75
18	12	13	15	31	46	0.357006141817	-0.4524682047	0.524797197358	-1.009765625	0.61279296875	0.091796875	21.25	3.4375	-35.4375
18	12	13	15	31	46	0.35957376342	-0.454670677935	0.523094067647	-1.03173828125	0.5419921875	0.12646484375	2.5625	6.6875	-36.125
18	12	13	15	31	46	0.360003440337	-0.45803082677	0.5191911264	-0.96484375	0.482421875	0.1513671875	-19.75	8.5	-31.25
18	12	13	15	31	46	0.357866693872	-0.462364012635	0.51467371017	-0.96337890625	0.4228515625	0.166015625	-33.3125	15.9375	-20.375
18	12	13	15	31	46	0.353584501564	-0.467112409886	0.511119733488	-1.044921875	0.44482421875	0.13232421875	-37.875	23.5625	-11.3125
18	12	13	15	31	46	0.347184587574	-0.472556799753	0.508141999218	-1.17724609375	0.52880859375	0.06103515625	-44.5	27.9375	-6.5
18	12	13	15	31	46	0.339128638393	-0.47866212784	0.504664431647	-1.36572265625	0.59375	-0.01904296875	-55.625	27.0	-2.375
18	12	13	15	31	46	0.330523622489	-0.484829018178	0.499539303131	-1.46044921875	0.5888671875	-0.05126953125	-68.125	20.0	0.0
18	12	13	15	31	46	0.322338769907	-0.490435905359	0.492816365883	-1.427734375	0.47509765625	-0.03857421875	-74.5	10.9375	4.8125
18	12	13	15	31	46	0.31525409073	-0.494396541126	0.486461781824	-1.29443359375	0.3408203125	0.0185546875	-66.125	5.625	13.1875
18	12	13	15	31	46	0.308900084581	-0.496278717196	0.482423684752	-1.125	0.26220703125	0.07666015625	-48.3125	6.0625	23.4375
18	12	13	15	31	46	0.301460220614	-0.49665556087	0.481091204471	-0.9990234375	0.27880859375	0.0703125	-37.6875	9.625	35.1875
18	12	13	15	31	46	0.291452678258	-0.496781853056	0.480851141218	-0.93017578125	0.3359375	0.03564453125	-42.1875	13.875	45.0625
18	12	13	15	31	46	0.278454669155	-0.497580548652	0.479879572313	-0.912109375	0.3740234375	-0.0107421875	-59.3125	17.375	52.3125
18	12	13	15	31	47	0.262813166055	-0.499808875249	0.47679899053	-0.91162109375	0.36376953125	-0.05712890625	-81.375	20.4375	56.6875
18	12	13	15	31	47	0.244950435695	-0.502413913832	0.471222866576	-0.90576171875	0.314453125	-0.09228515625	-101.1875	23.4375	60.125
18	12	13	15	31	47	0.226260370428	-0.504950645953	0.464788972432	-0.87890625	0.21435546875	-0.08935546875	-107.375	23.3125	63.25
18	12	13	15	31	47	0.209600020595	-0.507825326544	0.459484261806	-0.84228515625	0.138671875	-0.0849609375	-93.9375	20.75	68.4375
18	12	13	15	31	47	0.194890123399	-0.509045922062	0.457347852999	-0.82470703125	0.130859375	-0.10009765625	-68.8125	17.5	72.6875
18	12	13	15	31	47	0.182440425934	-0.508867792243	0.458817223737	-0.818359375	0.1611328125	-0.12939453125	-41.5	14.625	73.875
18	12	13	15	31	47	0.172243678129	-0.507758737901	0.462958291498	-0.826171875	0.20361328125	-0.16015625	-19.4375	11.6875	72.4375
18	12	13	15	31	47	0.163945149885	-0.505812902865	0.469068680888	-0.8369140625	0.23779296875	-0.193359375	-3.0625	7.4375	70.3125
18	12	13	15	31	47	0.157052498319	-0.50332487413	0.475857472558	-0.845703125	0.302734375	-0.23388671875	3.75	1.75	65.0625
18	12	13	15	31	47	0.151371238625	-0.500745823257	0.481946492009	-0.83642578125	0.32568359375	-0.2314453125	3.9375	-2.375	58.0
18	12	13	15	31	47	0.147098093957	-0.498058276635	0.48701066045	-0.80419921875	0.3037109375	-0.1953125	4.8125	-5.8125	50.9375
18	12	13	15	31	47	0.144717434384	-0.49512772152	0.492442117508	-0.78759765625	0.2900390625	-0.16357421875	14.125	-8.5	45.0625
18	12	13	15	31	47	0.144475826376	-0.491901429981	0.498981783111	-0.8095703125	0.3427734375	-0.1474609375	28.5	-10.125	38.125
18	12	13	15	31	47	0.146118662402	-0.488771198209	0.505494888057	-0.81884765625	0.3984375	-0.12841796875	36.0625	-11.8125	27.4375
18	12	13	15	31	47	0.148558134189	-0.486079285407	0.510554146463	-0.818359375	0.44677734375	-0.08251953125	32.5625	-12.25	16.75
18	12	13	15	31	47	0.151308236799	-0.484198564956	0.513984131539	-0.82470703125	0.4970703125	-0.0517578125	25.875	-10.625	6.125
