18	12	13	20	08	11	-0.32798532466	-0.58376993494	0.129509649968	1.12841796875	0.154296875	0.20703125	116.1875	77.75	33.6875
18	12	13	20	08	11	-0.31351883921	-0.578273506231	0.115166449209	1.048828125	0.279296875	0.17578125	107.0625	85.3125	42.4375
18	12	13	20	08	11	-0.301981644175	-0.571067551444	0.104790315895	0.9208984375	0.36474609375	0.18896484375	71.4375	89.3125	52.625
18	12	13	20	08	11	-0.295094996663	-0.560588944023	0.100887699997	0.8076171875	0.36181640625	0.232421875	21.9375	89.125	55.9375
18	12	13	20	08	11	-0.291737150222	-0.547953166255	0.102535232714	0.73974609375	0.25048828125	0.25048828125	-15.6875	87.0	52.0625
18	12	13	20	08	11	-0.289542538477	-0.534652748115	0.106686415948	0.73388671875	0.095703125	0.2744140625	-28.3125	84.125	45.1875
18	12	13	20	08	11	-0.286672163625	-0.522076578167	0.110164627495	0.76611328125	-0.03662109375	0.2900390625	-19.125	81.5625	37.25
18	12	13	20	08	11	-0.282466425682	-0.510978590279	0.110899199539	0.7958984375	-0.10107421875	0.31640625	2.25	77.875	29.9375
18	12	13	20	08	11	-0.277264002627	-0.502163375218	0.108085967126	0.83251953125	-0.0927734375	0.337890625	24.0	71.375	22.1875
18	12	13	20	08	11	-0.272456446761	-0.495719368412	0.103147713939	0.8642578125	-0.0419921875	0.3359375	34.125	61.8125	13.3125
18	12	13	20	08	11	-0.269037618328	-0.491201168852	0.098203613405	0.8837890625	0.03955078125	0.3291015625	29.3125	50.5625	7.5625
18	12	13	20	08	11	-0.26750186591	-0.487948304347	0.0952704569213	0.87353515625	0.11572265625	0.30517578125	12.5	39.5	5.625
18	12	13	20	08	11	-0.268052065146	-0.485325597004	0.0954538774791	0.857421875	0.15478515625	0.279296875	-9.125	30.0625	4.4375
18	12	13	20	08	11	-0.270309224649	-0.482943530062	0.0985051001542	0.83935546875	0.16748046875	0.25830078125	-28.625	23.6875	3.8125
18	12	13	20	08	11	-0.273545346471	-0.480504799814	0.103876434559	0.8271484375	0.15380859375	0.2373046875	-42.25	20.125	4.4375
18	12	13	20	08	11	-0.277015185272	-0.478292136368	0.109792976053	0.83447265625	0.13916015625	0.24755859375	-45.125	17.0625	3.375
18	12	13	20	08	11	-0.28032392659	-0.476971801938	0.11498590849	0.8916015625	0.125	0.28173828125	-39.3125	12.6875	0.1875
18	12	13	20	08	11	-0.283074379037	-0.476795396515	0.118893680544	0.935546875	0.1279296875	0.3173828125	-30.5	7.625	-1.75
18	12	13	20	08	12	-0.285207462692	-0.47770571592	0.121577844144	0.94189453125	0.14501953125	0.36181640625	-21.375	0.4375	-2.0625
18	12	13	20	08	12	-0.286781780867	-0.479698829031	0.123037256912	0.9072265625	0.173828125	0.40380859375	-13.5	-7.5625	-2.1875
18	12	13	20	08	12	-0.288628427385	-0.482349431514	0.123898436793	0.8505859375	0.2001953125	0.42724609375	-11.5	-14.9375	-4.625
18	12	13	20	08	12	-0.345019950358	-0.570170949275	0.112850148278	0.93798828125	0.20361328125	0.18212890625	-1.25	-36.4375	-59.1875
18	12	13	20	08	12	-0.349714181859	-0.576570658991	0.109552697458	0.95947265625	0.2333984375	0.1630859375	4.5625	-29.1875	-49.3125
18	12	13	20	08	12	-0.377965819608	-0.582298059886	0.122306394719	0.77734375	0.16845703125	0.25927734375	-65.75	-17.375	-21.3125
18	12	13	20	08	12	-0.386383708719	-0.57899577391	0.130849261016	0.75537109375	0.095703125	0.31689453125	-68.625	-15.5	-18.3125
18	12	13	20	08	12	-0.393653179843	-0.575404989078	0.139151821712	0.76171875	0.03173828125	0.373046875	-61.5	-15.5	-16.875
18	12	13	20	08	12	-0.399034357173	-0.57261247155	0.145869090493	0.77685546875	-0.009765625	0.42578125	-45.125	-17.8125	-16.0625
18	12	13	20	08	12	-0.359855837826	-0.613512700446	0.129452888743	0.88330078125	0.2568359375	0.40185546875	62.125	-34.0	8.9375
18	12	13	20	08	12	-0.352456025416	-0.618613727033	0.125297354144	0.93359375	0.25732421875	0.37451171875	56.3125	-28.25	10.5625
18	12	13	20	08	12	-0.322245465741	-0.623923370505	0.113945508435	1.34716796875	0.1640625	0.44775390625	21.75	-0.875	0.625
18	12	13	20	08	13	-0.260486136139	-0.556859303216	0.048764860069	1.154296875	0.2431640625	0.2158203125	83.6875	92.8125	6.125
18	12	13	20	08	13	-0.2654929396	-0.491497618988	0.085140839251	0.79296875	-0.01953125	0.216796875	-47.375	76.5625	36.625
18	12	13	20	08	13	-0.261337851385	-0.481418255891	0.0885570346473	0.8017578125	-0.03955078125	0.22412109375	-13.6875	75.6875	36.375
18	12	13	20	08	13	-0.255185444857	-0.47320085003	0.0882559562935	0.81201171875	-0.01611328125	0.224609375	11.3125	72.1875	36.3125
18	12	13	20	08	13	-0.248222212187	-0.466294000765	0.086239976843	0.80810546875	0.02490234375	0.232421875	21.75	67.0	37.4375
18	12	13	20	08	13	-0.241261962804	-0.460185985211	0.08428605379	0.77392578125	0.06640625	0.2529296875	20.6875	59.6875	38.625
18	12	13	20	08	13	-0.234857371295	-0.454639438351	0.083555026326	0.72119140625	0.0849609375	0.2861328125	13.0625	50.25	40.0
18	12	13	20	08	13	-0.229536433581	-0.450040324708	0.0842223553156	0.68994140625	0.08642578125	0.31884765625	3.9375	38.75	37.125
18	12	13	20	08	13	-0.225879657415	-0.446876749958	0.0864213982437	0.6826171875	0.05712890625	0.36865234375	-5.4375	24.25	28.9375
18	12	13	20	08	13	-0.224237434056	-0.445728356262	0.0896583534642	0.7080078125	0.03515625	0.41650390625	-13.0	7.8125	17.8125
18	12	13	20	08	13	-0.224229605134	-0.447055486557	0.0932560796531	0.7431640625	0.02197265625	0.46337890625	-16.5	-10.0625	6.3125
18	12	13	20	08	13	-0.225635569094	-0.451515266475	0.0963696412225	0.7958984375	0.02783203125	0.5009765625	-14.375	-29.625	-5.75
18	12	13	20	08	13	-0.228445683174	-0.459393710193	0.0984458688111	0.85205078125	0.07275390625	0.51416015625	-11.8125	-49.75	-17.8125
18	12	13	20	08	13	-0.232718055128	-0.47031873402	0.0994834591815	0.91064453125	0.1484375	0.5244140625	-10.0	-68.0	-28.1875
18	12	13	20	08	13	-0.239001725001	-0.484289756865	0.0991161392753	1.060546875	0.23876953125	0.60107421875	-7.875	-87.6875	-43.0625
18	12	13	20	08	13	-0.245466014783	-0.501917579706	0.0984427354165	1.232421875	0.2802734375	0.6904296875	1.125	-114.4375	-57.3125
18	12	13	20	08	13	-0.249689182369	-0.522693267613	0.0988136852248	1.240234375	0.3798828125	0.662109375	5.375	-138.4375	-46.9375
18	12	13	20	08	13	-0.253405894199	-0.544224556497	0.0999708224225	1.10107421875	0.3642578125	0.583984375	4.0	-148.1875	-44.9375
18	12	13	20	08	13	-0.259031636987	-0.564022468754	0.10119567722	0.90478515625	0.333984375	0.4677734375	-4.8125	-140.5	-53.125
18	12	13	20	08	13	-0.266775116586	-0.580423554961	0.101375764962	0.74755859375	0.29296875	0.373046875	-10.3125	-119.0625	-62.75
18	12	13	20	08	13	-0.27507081099	-0.59341324501	0.0964304152129	0.76220703125	0.23388671875	0.27880859375	5.125	-89.25	-73.375
18	12	13	20	08	13	-0.281980197539	-0.604670523164	0.0879509663752	0.90380859375	0.26953125	0.11572265625	21.9375	-58.875	-77.1875
18	12	13	20	08	13	-0.287709938488	-0.613809684211	0.078732673027	0.9892578125	0.42626953125	0.041015625	23.25	-37.6875	-63.0625
18	12	13	20	08	13	-0.293678350601	-0.62055724624	0.0732364964091	1.02294921875	0.49609375	0.04443359375	2.75	-30.0625	-45.625
18	12	13	20	08	13	-0.312239564188	-0.625272544	0.0801349780646	0.9765625	0.28662109375	0.0927734375	-63.3125	-21.6875	-32.125
18	12	13	20	08	13	-0.323718393848	-0.623694997499	0.0879483796257	0.87744140625	0.21337890625	0.150390625	-78.0	-16.3125	-29.6875
18	12	13	20	08	13	-0.33585811445	-0.620022275976	0.0964302781811	0.78662109375	0.1552734375	0.21484375	-84.5625	-10.0	-29.0625
18	12	13	20	08	13	-0.347879999387	-0.615015219968	0.105035347183	0.74853515625	0.08642578125	0.25390625	-84.8125	-4.4375	-29.0625
18	12	13	20	08	13	-0.358930347704	-0.608796160235	0.1138250465	0.75146484375	0.03271484375	0.28759765625	-82.4375	1.8125	-25.1875
18	12	13	20	08	13	-0.369068791628	-0.601361799887	0.122738108147	0.77587890625	0.01904296875	0.34619140625	-80.5	7.25	-18.6875
18	12	13	20	08	13	-0.397571309024	-0.580366223137	0.160456704241	0.7451171875	-0.03564453125	0.51904296875	-12.0625	-42.625	-13.375
18	12	13	20	08	13	-0.396528849042	-0.584814442284	0.162407767785	0.73388671875	0.02294921875	0.51416015625	10.9375	-55.5	-12.375
18	12	13	20	08	13	-0.393841609855	-0.59170841586	0.163078379286	0.73583984375	0.0859375	0.49560546875	24.6875	-65.875	-10.875
18	12	13	20	08	13	-0.390487292207	-0.599951560236	0.163201472235	0.796875	0.146484375	0.47705078125	30.625	-72.8125	-10.0625
18	12	13	20	08	13	-0.386526979158	-0.608812034913	0.162777112493	0.90673828125	0.1943359375	0.43701171875	34.5625	-72.4375	-10.0
18	12	13	20	08	13	-0.381754864809	-0.617094074833	0.16155157908	0.97021484375	0.2353515625	0.3994140625	39.8125	-63.375	-5.4375
18	12	13	20	08	13	-0.375467919834	-0.624416821817	0.159232087589	0.96826171875	0.27294921875	0.37548828125	47.9375	-51.875	4.125
18	12	13	20	08	13	-0.360873506115	-0.634168205994	0.153369714336	0.9833984375	0.34765625	0.3720703125	50.5	-27.0	21.875
18	12	13	20	08	13	-0.353370224782	-0.637653213908	0.149953478807	1.2705078125	0.267578125	0.42333984375	53.75	-23.5625	11.9375
18	12	13	20	08	13	-0.347449938224	-0.639788811242	0.148976866187	1.34423828125	0.2470703125	0.2763671875	33.125	-12.375	13.125
18	12	13	20	08	13	-0.343365435232	-0.639675280246	0.149284012545	1.32958984375	0.333984375	0.19140625	15.5625	4.25	21.5
18	12	13	20	08	13	-0.34099247391	-0.636026950172	0.149592366843	1.1044921875	0.37841796875	0.130859375	2.4375	30.5625	29.875
18	12	13	20	08	13	-0.33921161424	-0.629048957894	0.15080818618	0.92431640625	0.3720703125	0.14013671875	-7.875	50.1875	42.375
18	12	13	20	08	14	-0.335562808077	-0.620406683177	0.150386824137	0.89599609375	0.26025390625	0.2041015625	6.25	64.375	43.5625
18	12	13	20	08	14	-0.329813551309	-0.611595410376	0.14684148861	0.96044921875	0.158203125	0.24609375	27.875	74.4375	36.6875
18	12	13	20	08	14	-0.310525034305	-0.5962105071	0.127981721096	1.130859375	0.08447265625	0.31298828125	86.0625	85.5	24.1875
18	12	13	20	08	14	-0.288793608584	-0.582591671079	0.100516287688	1.12060546875	0.23779296875	0.19287109375	83.5625	98.0	25.875
18	12	13	20	08	14	-0.280871879472	-0.571081741899	0.0920371130473	0.9619140625	0.33056640625	0.19384765625	50.125	104.125	35.9375
18	12	13	20	08	14	-0.276173287289	-0.556862999607	0.0888637140978	0.81884765625	0.32080078125	0.201171875	11.25	107.8125	40.5
18	12	13	20	08	14	-0.273791383051	-0.54129642806	0.0895955751935	0.740234375	0.220703125	0.203125	-15.3125	106.1875	40.8125
18	12	13	20	08	14	-0.271838018418	-0.525854595126	0.09106024326	0.72021484375	0.08056640625	0.21826171875	-19.125	102.0	37.75
18	12	13	20	08	14	-0.267876960076	-0.512744210891	0.0910012639493	0.7548828125	-0.03857421875	0.25	0.0625	96.5625	31.0
18	12	13	20	08	14	-0.262080727131	-0.501945016284	0.0870347268021	0.8154296875	-0.10693359375	0.25927734375	29.125	91.625	21.1875
18	12	13	20	08	14	-0.255059142876	-0.493517164225	0.0789773943244	0.86572265625	-0.1083984375	0.2724609375	55.3125	85.5625	12.4375
18	12	13	20	08	14	-0.248099755227	-0.487166604236	0.0686622938819	0.8916015625	-0.0537109375	0.26318359375	66.375	77.9375	5.8125
18	12	13	20	08	14	-0.242291637535	-0.482264110782	0.0590166280848	0.8876953125	0.03955078125	0.2421875	58.375	68.375	4.25
18	12	13	20	08	14	-0.238636036375	-0.478309620734	0.0523046248526	0.86376953125	0.115234375	0.23681640625	35.9375	56.25	4.125
18	12	13	20	08	14	-0.237411340554	-0.47506680588	0.0501676406004	0.84423828125	0.134765625	0.2275390625	6.875	43.25	3.6875
18	12	13	20	08	14	-0.238209258385	-0.472573478779	0.052121626098	0.8349609375	0.12890625	0.23193359375	-17.5	31.1875	3.0
18	12	13	20	08	14	-0.23997546899	-0.471101384825	0.0563930145846	0.85986328125	0.0986328125	0.23681640625	-29.1875	21.375	1.0
18	12	13	20	08	14	-0.242368051203	-0.47088126795	0.060912443994	0.896484375	0.07958984375	0.25048828125	-29.8125	13.4375	-3.875
18	12	13	20	08	14	-0.244493116824	-0.472202507456	0.0646326037735	0.94921875	0.06884765625	0.2646484375	-23.0625	5.8125	-6.875
18	12	13	20	08	14	-0.245771011041	-0.475002676665	0.0672559359739	0.95263671875	0.09130859375	0.27099609375	-14.25	-2.375	-6.1875
18	12	13	20	08	14	-0.246506811376	-0.47897634456	0.0690267897168	0.92138671875	0.13671875	0.28466796875	-8.5	-11.125	-3.625
18	12	13	20	08	14	-0.247908481813	-0.485014452233	0.0700637462141	1.03271484375	0.18310546875	0.3701171875	-5.5	-24.75	-10.0625
18	12	13	20	08	14	-0.251641795009	-0.494006473151	0.07110421809	1.19580078125	0.150390625	0.4521484375	-6.1875	-46.0625	-29.625
18	12	13	20	08	14	-0.253708641798	-0.504487763556	0.0760454577051	1.12109375	0.267578125	0.49853515625	-21.9375	-69.6875	-5.125
18	12	13	20	08	14	-0.254930760299	-0.516819171227	0.0820270389855	0.97314453125	0.27880859375	0.4697265625	-22.375	-89.3125	2.125
18	12	13	20	08	14	-0.25694776688	-0.528238223835	0.0903284311122	0.74072265625	0.337890625	0.40771484375	-38.875	-94.4375	11.375
18	12	13	20	08	14	-0.26048011468	-0.537560649039	0.0990532394857	0.6083984375	0.2998046875	0.443359375	-46.3125	-90.1875	6.8125
18	12	13	20	08	14	-0.264450734396	-0.546295528174	0.10442538808	0.62890625	0.17626953125	0.51171875	-28.625	-86.125	-12.5
18	12	13	20	08	14	-0.267627600301	-0.55673864765	0.10522006452	0.8349609375	0.1484375	0.41455078125	-2.9375	-79.0625	-29.25
18	12	13	20	08	14	-0.267388239173	-0.567917727802	0.0993627147622	1.00634765625	0.212890625	0.3232421875	38.0	-61.75	-32.0625
18	12	13	20	08	14	-0.262994698131	-0.578661576464	0.0886821295857	1.00244140625	0.29638671875	0.3046875	72.125	-48.6875	-21.6875
18	12	13	20	08	14	-0.259878688531	-0.588663680339	0.0789157219987	0.94384765625	0.40185546875	0.24462890625	60.3125	-45.75	-18.125
18	12	13	20	08	14	-0.262497254228	-0.595791256865	0.0754961877425	0.8466796875	0.4365234375	0.21435546875	8.25	-43.1875	-18.3125
18	12	13	20	08	14	-0.269710592203	-0.599906180304	0.0791004588131	0.75927734375	0.3642578125	0.23046875	-40.5625	-42.0625	-16.75
18	12	13	20	08	14	-0.279714463321	-0.601907928708	0.0870331277973	0.7119140625	0.26171875	0.2578125	-69.375	-41.5	-19.1875
18	12	13	20	08	14	-0.290143575167	-0.602563634333	0.0958193969313	0.71630859375	0.14599609375	0.2958984375	-73.3125	-38.0	-24.125
18	12	13	20	08	14	-0.298325897738	-0.602999155002	0.101862913937	0.74365234375	0.05419921875	0.34619140625	-51.5	-32.5	-28.4375
18	12	13	20	08	14	-0.302911498139	-0.604297147506	0.103269444862	0.78515625	0.029296875	0.38427734375	-16.125	-28.0	-30.625
18	12	13	20	08	14	-0.304668045414	-0.606833809206	0.100640546252	0.8232421875	0.07275390625	0.39990234375	13.0	-25.9375	-30.25
18	12	13	20	08	14	-0.305285119458	-0.609654749753	0.0964925577495	0.84326171875	0.1435546875	0.41943359375	23.1875	-25.0625	-26.6875
18	12	13	20	08	14	-0.306683496324	-0.61184120411	0.0933782585823	0.837890625	0.20751953125	0.4384765625	14.4375	-25.5	-21.625
18	12	13	20	08	14	-0.309501471172	-0.61302164789	0.0931372993509	0.8115234375	0.21875	0.45654296875	-3.75	-27.625	-16.5
18	12	13	20	08	14	-0.313038915008	-0.613321906202	0.0953947795197	0.76513671875	0.18359375	0.48095703125	-17.0	-30.0625	-11.5
18	12	13	20	08	14	-0.315658887814	-0.613801514839	0.097956789432	0.76025390625	0.12451171875	0.49609375	-13.4375	-32.5625	-10.4375
18	12	13	20	08	14	-0.316387685849	-0.615381372766	0.0986880571023	0.80810546875	0.087890625	0.4853515625	3.5	-33.125	-12.9375
18	12	13	20	08	14	-0.30974729602	-0.623766968537	0.0879499218848	0.974609375	0.26806640625	0.33984375	33.0625	-13.5	-8.5625
18	12	13	20	08	14	-0.308035322985	-0.625530815391	0.0848973913756	1.1669921875	0.32470703125	0.384765625	24.25	-13.0625	-5.75
18	12	13	20	08	14	-0.308214224394	-0.626865009654	0.0847131373186	1.30078125	0.29736328125	0.29541015625	2.875	-10.6875	-8.75
18	12	13	20	08	14	-0.310723203759	-0.626207045879	0.0903300611989	1.32470703125	0.359375	0.2275390625	-34.25	-7.0625	7.6875
18	12	13	20	08	15	-0.314018580544	-0.623642731973	0.0969215754916	1.31787109375	0.33935546875	0.203125	-44.4375	5.5	10.375
18	12	13	20	08	15	-0.317677222711	-0.618387246976	0.104976911251	1.14013671875	0.328125	0.138671875	-57.0	23.4375	22.5
18	12	13	20	08	15	-0.319252319381	-0.610796637806	0.112601898157	0.9482421875	0.29052734375	0.15380859375	-50.0	39.3125	37.75
18	12	13	20	08	15	-0.316701720847	-0.602215432568	0.117000809186	0.857421875	0.20166015625	0.212890625	-20.3125	53.375	45.875
18	12	13	20	08	15	-0.310294198483	-0.594221934782	0.116146707261	0.90234375	0.0927734375	0.2685546875	19.375	61.9375	39.75
18	12	13	20	08	15	-0.301138333325	-0.58738453991	0.110531317724	0.966796875	0.06591796875	0.30029296875	52.0625	66.8125	33.4375
18	12	13	20	08	15	-0.27739536814	-0.57694574588	0.0892303692454	1.1328125	0.13818359375	0.31201171875	89.875	70.25	26.9375
18	12	13	20	08	15	-0.265738022807	-0.572063042666	0.0783054394261	1.103515625	0.22216796875	0.25146484375	81.1875	72.0625	32.1875
18	12	13	20	08	15	-0.255422445918	-0.565896515784	0.0705539659454	0.96240234375	0.30810546875	0.20654296875	57.75	73.1875	44.1875
18	12	13	20	08	15	-0.246875552162	-0.558140154394	0.0662810505929	0.8154296875	0.3369140625	0.203125	32.375	73.5	52.0625
18	12	13	20	08	15	-0.239918100707	-0.549352028609	0.0651214992252	0.7158203125	0.26953125	0.2109375	13.5625	71.4375	52.0625
18	12	13	20	08	15	-0.233631795654	-0.540441366383	0.065609764976	0.67919921875	0.15380859375	0.23291015625	6.0625	67.25	47.375
18	12	13	20	08	15	-0.22691660106	-0.532320224434	0.0653041320963	0.69580078125	0.05126953125	0.24365234375	14.875	63.25	39.5625
18	12	13	20	08	15	-0.21915955144	-0.525531299764	0.0623118635535	0.73828125	-0.009765625	0.263671875	33.8125	59.6875	30.9375
18	12	13	20	08	15	-0.210193868129	-0.520174894909	0.05614934921	0.76220703125	-0.03857421875	0.2822265625	54.875	55.125	24.1875
18	12	13	20	08	15	-0.200799433766	-0.516219334587	0.047789044571	0.75830078125	-0.02587890625	0.2890625	67.9375	48.4375	19.0625
18	12	13	20	08	15	-0.192197340696	-0.513604516341	0.0389399502585	0.73828125	0.0380859375	0.29443359375	67.125	38.6875	15.5
18	12	13	20	08	15	-0.18578001942	-0.512359810456	0.0315533081603	0.72802734375	0.0927734375	0.2958984375	53.25	26.0625	10.8125
18	12	13	20	08	15	-0.182243497165	-0.512552206696	0.0272815951885	0.7373046875	0.11669921875	0.29052734375	29.9375	12.375	5.0625
18	12	13	20	08	15	-0.181506038672	-0.51369748739	0.0263653694372	0.75927734375	0.1142578125	0.2998046875	6.8125	0.1875	-0.3125
18	12	13	20	08	15	-0.182607296372	-0.516207390613	0.0274643326763	0.80517578125	0.0771484375	0.30810546875	-5.5	-10.6875	-7.8125
18	12	13	20	08	15	-0.184626776672	-0.520311825165	0.0285027122994	0.87548828125	0.03271484375	0.328125	-5.0	-21.6875	-17.0625
18	12	13	20	08	15	-0.187244937934	-0.526397519451	0.0286238187389	0.94775390625	0.029296875	0.318359375	-0.25	-32.1875	-26.25
18	12	13	20	08	15	-0.189994015438	-0.534033933531	0.0272204724977	0.98681640625	0.0859375	0.32568359375	6.75	-41.4375	-30.125
18	12	13	20	08	15	-0.1926170479	-0.542696701497	0.0251451912974	0.9482421875	0.16162109375	0.3134765625	9.125	-49.625	-27.6875
18	12	13	20	08	15	-0.195607892915	-0.551486090603	0.0241076810301	0.85986328125	0.23291015625	0.30810546875	1.9375	-56.0	-21.8125
18	12	13	20	08	15	-0.200372618539	-0.560957885164	0.0231926881038	1.037109375	0.27197265625	0.4462890625	-2.5	-68.375	-31.1875
18	12	13	20	08	15	-0.208911830904	-0.573820927303	0.0219714458444	1.41845703125	0.15478515625	0.46533203125	-5.4375	-89.0	-68.4375
18	12	13	20	08	15	-0.216178284295	-0.587318924273	0.0261830841227	1.40576171875	0.36669921875	0.37841796875	-30.9375	-99.4375	-32.4375
18	12	13	20	08	15	-0.220576553397	-0.599719206883	0.0321038370467	1.048828125	0.421875	0.21728515625	-32.6875	-92.5625	-3.1875
18	12	13	20	08	15	-0.223434445849	-0.608539978028	0.0359472517359	0.79296875	0.4716796875	0.1982421875	-22.5625	-69.3125	7.8125
18	12	13	20	08	15	-0.224780266059	-0.613614117556	0.0375956133294	0.64013671875	0.4248046875	0.203125	-11.0	-42.375	11.25
18	12	13	20	08	15	-0.226177945187	-0.616405085372	0.0390593321424	0.7255859375	0.37158203125	0.17333984375	-11.625	-22.8125	8.4375
18	12	13	20	08	15	-0.225446628161	-0.618116797513	0.0385102388656	0.91748046875	0.24169921875	0.20703125	6.0	-9.625	1.3125
18	12	13	20	08	15	-0.219775626951	-0.62008341289	0.0343609214033	1.029296875	0.1142578125	0.208984375	41.8125	-0.875	1.0625
18	12	13	20	08	15	-0.211903280343	-0.622587950109	0.0269761664492	1.03955078125	0.16796875	0.1787109375	63.5	3.3125	2.75
18	12	13	20	08	15	-0.20665335355	-0.624781565355	0.0194691139346	1.00048828125	0.291015625	0.16845703125	51.8125	2.25	-1.1875
18	12	13	20	08	15	-0.207874161871	-0.625453438301	0.0178212728321	0.9013671875	0.35888671875	0.2041015625	1.3125	-3.625	-3.375
18	12	13	20	08	15	-0.215385251038	-0.624489058832	0.0247793743047	0.79248046875	0.3525390625	0.2373046875	-59.6875	-12.25	1.875
18	12	13	20	08	15	-0.238021179049	-0.619892593743	0.0551720886821	0.6904296875	0.14208984375	0.35107421875	-113.8125	-19.1875	2.125
18	12	13	20	08	15	-0.247668605023	-0.616058871145	0.0679898536215	0.7109375	0.01318359375	0.4404296875	-88.4375	-19.375	-4.875
18	12	13	20	08	15	-0.252733692196	-0.613738229588	0.0740929008274	0.75537109375	-0.021484375	0.486328125	-40.1875	-18.1875	-11.6875
18	12	13	20	08	15	-0.253104083679	-0.613626346107	0.0723852045438	0.78857421875	0.044921875	0.49658203125	11.9375	-16.6875	-15.5625
18	12	13	20	08	15	-0.250287983467	-0.615558303157	0.065730348255	0.79248046875	0.13818359375	0.45458984375	45.625	-17.1875	-15.0
18	12	13	20	08	15	-0.246572252067	-0.618444710444	0.0582252298198	0.75341796875	0.2001953125	0.4169921875	52.0625	-20.5	-10.5
18	12	13	20	08	15	-0.242659659796	-0.621418676066	0.0523036540354	0.70556640625	0.2109375	0.40380859375	46.0625	-24.125	-3.625
18	12	13	20	08	15	-0.238216926061	-0.624442062652	0.0471795244287	0.71923828125	0.15966796875	0.39453125	45.4375	-25.3125	-2.5
18	12	13	20	08	16	-0.233263768256	-0.627468550873	0.0415016646818	0.783203125	0.1015625	0.373046875	50.25	-22.125	-6.75
18	12	13	20	08	16	-0.227594295436	-0.630232956468	0.0344839841569	0.86279296875	0.09619140625	0.34912109375	58.4375	-15.5	-10.125
18	12	13	20	08	16	-0.221419567591	-0.632583742579	0.0261211617775	0.9345703125	0.14501953125	0.3330078125	64.25	-8.6875	-10.5625
18	12	13	20	08	16	-0.15965933014	-0.575286256078	-0.0111077974333	1.2138671875	0.1171875	0.28466796875	98.6875	101.6875	24.125
18	12	13	20	08	16	-0.144766410262	-0.564051923963	-0.0267317401748	1.19873046875	0.1787109375	0.26123046875	109.5	104.4375	24.375
18	12	13	20	08	16	-0.130363916866	-0.551727438422	-0.0406471763262	1.07470703125	0.263671875	0.24267578125	98.75	107.6875	28.5625
18	12	13	20	08	16	-0.118525796276	-0.538187678456	-0.049558674859	0.9169921875	0.3505859375	0.244140625	65.3125	108.25	34.25
18	12	13	20	08	16	-0.109915337377	-0.523882985031	-0.0529131579708	0.7666015625	0.3515625	0.2744140625	28.125	105.8125	36.25
18	12	13	20	08	16	-0.10387692577	-0.509314304082	-0.052365688784	0.66796875	0.26123046875	0.3076171875	2.375	101.875	34.0
18	12	13	20	08	16	-0.0991764013195	-0.494905500492	-0.0509003807388	0.63525390625	0.13818359375	0.34814453125	-5.0625	99.1875	28.375
18	12	13	20	08	16	-0.0938046940813	-0.480802459318	-0.0510219416083	0.6669921875	0.01123046875	0.3798828125	9.4375	98.4375	18.8125
18	12	13	20	08	16	-0.0877065751162	-0.467646331622	-0.0555413941237	0.74267578125	-0.037109375	0.35888671875	35.75	99.0	6.8125
18	12	13	20	08	16	-0.0805007736306	-0.455479358306	-0.0648156342651	0.77001953125	0.01904296875	0.333984375	61.3125	98.0625	1.875
18	12	13	20	08	16	-0.072508977698	-0.444148005647	-0.077574840618	0.7451171875	0.1201171875	0.318359375	77.5625	94.0	1.4375
18	12	13	20	08	16	-0.0654897558168	-0.433587348856	-0.091185177251	0.70654296875	0.1953125	0.29638671875	77.125	88.125	-1.6875
18	12	13	20	08	16	-0.0606056115999	-0.423628952784	-0.103023436436	0.69384765625	0.23779296875	0.27490234375	61.3125	83.375	-7.0
18	12	13	20	08	16	-0.05798100849	-0.413984400619	-0.111933862706	0.6943359375	0.25048828125	0.3251953125	41.25	76.9375	-11.875
18	12	13	20	08	16	-0.0571256715276	-0.405616680526	-0.117852213376	0.728515625	0.220703125	0.3740234375	24.5625	67.0	-15.875
18	12	13	20	08	16	-0.0576755684661	-0.398846391456	-0.121332306995	0.74462890625	0.2109375	0.39892578125	10.5625	55.8125	-17.9375
18	12	13	20	08	16	-0.0595059466303	-0.393593692122	-0.123039988109	0.7197265625	0.25341796875	0.41259765625	-2.25	44.1875	-17.8125
18	12	13	20	08	16	-0.0624958005077	-0.389256069959	-0.122794483029	0.6376953125	0.3115234375	0.45703125	-16.375	31.8125	-14.375
18	12	13	20	08	16	-0.0656705252995	-0.385478659658	-0.121148692119	0.5576171875	0.318359375	0.5283203125	-23.25	21.4375	-10.25
18	12	13	20	08	16	-0.0692715782656	-0.382550002263	-0.119195940399	0.560546875	0.251953125	0.5888671875	-20.9375	13.1875	-14.75
18	12	13	20	08	16	-0.0754957231826	-0.387243624571	-0.118583823883	1.08837890625	0.13037109375	0.59326171875	-8.0	-11.375	-43.75
18	12	13	20	08	16	-0.0851980538361	-0.394315634552	-0.115957236596	1.02294921875	0.27783203125	0.56005859375	-31.625	-32.25	-48.1875
18	12	13	20	08	16	-0.0877656641474	-0.404100460584	-0.113338552379	0.74365234375	0.4296875	0.63427734375	-19.125	-61.1875	3.9375
18	12	13	20	08	16	-0.0888003829227	-0.414340755782	-0.112663578608	0.60791015625	0.45703125	0.625	-6.25	-69.75	11.8125
18	12	13	20	08	16	-0.0939287813561	-0.424479970326	-0.109919256155	0.64501953125	0.34375	0.5205078125	-22.75	-67.9375	-10.5625
18	12	13	20	08	16	-0.101558204867	-0.435101227463	-0.103450214694	0.78076171875	0.345703125	0.4814453125	-48.3125	-67.5625	-16.125
18	12	13	20	08	16	-0.106747763705	-0.445606302348	-0.0982030599204	0.8505859375	0.3203125	0.4814453125	-34.5625	-63.9375	-9.1875
18	12	13	20	08	16	-0.110038194483	-0.456570012717	-0.0954518780764	0.87158203125	0.29443359375	0.39990234375	-16.5625	-60.75	-7.0625
18	12	13	20	08	16	-0.11248175872	-0.466527706812	-0.0935008433851	0.8349609375	0.3525390625	0.39306640625	-13.0	-56.4375	-1.375
18	12	13	20	08	16	-0.11449363177	-0.474880036673	-0.0928887566915	0.8056640625	0.34619140625	0.4599609375	-4.875	-51.625	-2.8125
18	12	13	20	08	16	-0.117733752001	-0.482409318723	-0.0917334521812	0.78125	0.31005859375	0.44970703125	-10.1875	-49.3125	-9.25
18	12	13	20	08	16	-0.122674952155	-0.489296065386	-0.0895954376932	0.71484375	0.33251953125	0.404296875	-21.4375	-48.1875	-12.375
18	12	13	20	08	16	-0.129753807696	-0.495334855722	-0.0855056841876	0.63134765625	0.3935546875	0.390625	-39.875	-48.3125	-12.875
18	12	13	20	08	16	-0.139581757007	-0.500834236118	-0.0770232520083	0.6162109375	0.38623046875	0.39453125	-69.1875	-50.9375	-13.625
18	12	13	20	08	16	-0.151482332125	-0.506202442644	-0.0641450165443	0.658203125	0.3017578125	0.4091796875	-93.6875	-55.75	-16.1875
18	12	13	20	08	16	-0.164117223652	-0.512065268292	-0.0488872800837	0.70263671875	0.21533203125	0.4384765625	-103.6875	-61.0	-18.9375
18	12	13	20	08	16	-0.175404211055	-0.517485144584	-0.0347268601567	0.69189453125	0.12353515625	0.50244140625	-90.375	-64.9375	-19.9375
18	12	13	20	08	16	-0.184010295193	-0.523407061882	-0.0244736744187	0.693359375	0.08740234375	0.52783203125	-61.9375	-65.9375	-20.9375
18	12	13	20	08	17	-0.189816799859	-0.529961181085	-0.0191647830083	0.68310546875	0.103515625	0.537109375	-29.4375	-65.3125	-21.3125
18	12	13	20	08	17	-0.193649319021	-0.537189191939	-0.0178818942556	0.6845703125	0.169921875	0.55078125	-5.25	-66.4375	-20.125
18	12	13	20	08	17	-0.197009780922	-0.545072600191	-0.0181873961322	0.71728515625	0.23779296875	0.57275390625	3.625	-70.8125	-20.4375
18	12	13	20	08	17	-0.200305889461	-0.553618136289	-0.0180653696771	0.74169921875	0.255859375	0.60009765625	3.0	-78.125	-18.5625
18	12	13	20	08	17	-0.203846146063	-0.563018172884	-0.0166616760105	0.7919921875	0.255859375	0.56396484375	-2.75	-84.3125	-17.75
18	12	13	20	08	17	-0.208059463951	-0.572667043196	-0.0146477768696	0.84521484375	0.27197265625	0.5009765625	-8.5	-83.875	-19.125
18	12	13	20	08	17	-0.212937516113	-0.581321249921	-0.0119620960614	0.86083984375	0.3076171875	0.458984375	-15.625	-77.625	-18.125
18	12	13	20	08	17	-0.217453801083	-0.589255248232	-0.0086664158725	1.0693359375	0.32763671875	0.57568359375	-15.9375	-77.9375	-16.8125
18	12	13	20	08	17	-0.222156600743	-0.599212501675	-0.00604217128395	1.44287109375	0.20166015625	0.439453125	-9.8125	-78.125	-37.9375
18	12	13	20	08	17	-0.227950182375	-0.608538492226	0.000976493418475	1.48828125	0.3212890625	0.3984375	-36.75	-80.125	-20.5625
18	12	13	20	08	17	-0.23290219633	-0.615701613359	0.0089108282663	1.21240234375	0.3369140625	0.2734375	-43.0625	-64.625	-5.0
18	12	13	20	08	17	-0.238272373384	-0.618446198642	0.0174554044026	0.8984375	0.35986328125	0.3115234375	-52.625	-43.125	8.25
18	12	13	20	08	17	-0.240895576825	-0.619053416706	0.0241689000311	0.880859375	0.23095703125	0.3544921875	-34.4375	-25.75	9.5
18	12	13	20	08	17	-0.24223284585	-0.618551245323	0.0292949775782	0.89404296875	0.1279296875	0.31103515625	-24.0	-11.375	4.4375
18	12	13	20	08	17	-0.239922868195	-0.617842583246	0.0313102089504	0.95947265625	0.0849609375	0.32861328125	3.3125	-1.5625	7.75
18	12	13	20	08	17	-0.233568120182	-0.617335128205	0.0284407483681	1.02880859375	0.08935546875	0.31787109375	38.25	9.875	8.6875
18	12	13	20	08	17	-0.224719868708	-0.616850546723	0.022276684432	1.09130859375	0.17822265625	0.2392578125	58.875	23.3125	13.8125
18	12	13	20	08	17	-0.215319943902	-0.614650554148	0.0154410277231	1.03759765625	0.33447265625	0.189453125	57.9375	38.6875	27.4375
18	12	13	20	08	17	-0.207021475465	-0.610078616966	0.0112909708022	0.95654296875	0.408203125	0.20849609375	38.25	48.8125	40.4375
18	12	13	20	08	17	-0.200673785149	-0.6034861276	0.0110468233309	0.8935546875	0.3623046875	0.2216796875	12.4375	55.1875	45.25
18	12	13	20	08	17	-0.195547349203	-0.595491724772	0.013793289925	0.83349609375	0.2666015625	0.232421875	-4.875	59.5	46.5
18	12	13	20	08	17	-0.190116299872	-0.586583549941	0.0169670405664	0.7998046875	0.17431640625	0.25390625	-5.625	63.9375	45.125
18	12	13	20	08	17	-0.184380162287	-0.577248452471	0.0187981098923	0.79443359375	0.11669921875	0.2685546875	2.375	68.1875	39.3125
18	12	13	20	08	17	-0.178880545911	-0.56795031056	0.0191025625623	0.80859375	0.0966796875	0.2685546875	8.75	70.3125	31.75
18	12	13	20	08	17	-0.17412573552	-0.558935676794	0.0184928488828	0.82275390625	0.09375	0.28125	10.625	69.1875	24.75
18	12	13	20	08	17	-0.170580054189	-0.550616547011	0.0176377945119	0.8427734375	0.1064453125	0.294921875	7.6875	64.25	18.4375
18	12	13	20	08	17	-0.168086371743	-0.543198514347	0.0172114585445	0.84033203125	0.125	0.30322265625	3.0	57.125	15.1875
18	12	13	20	08	17	-0.166371667782	-0.536588299025	0.0173939564629	0.81103515625	0.14697265625	0.30615234375	-2.625	50.375	14.5625
18	12	13	20	08	17	-0.165946988931	-0.530310182722	0.0184317729522	0.7646484375	0.1591796875	0.3154296875	-11.0625	44.75	11.8125
18	12	13	20	08	17	-0.167231089843	-0.52451970296	0.020202003919	0.7353515625	0.15283203125	0.32958984375	-18.875	39.125	5.375
18	12	13	20	08	17	-0.169731132495	-0.519752004432	0.0219716676369	0.74072265625	0.13232421875	0.3583984375	-21.25	30.625	-2.875
18	12	13	20	08	17	-0.173271001954	-0.516944482758	0.0233143792696	0.7958984375	0.11181640625	0.3623046875	-19.5	19.25	-12.6875
18	12	13	20	08	17	-0.177845683884	-0.516265147555	0.0241074279802	0.86181640625	0.125	0.37548828125	-18.4375	6.5625	-21.125
18	12	13	20	08	17	-0.183525352385	-0.517679427646	0.0247182466631	0.9287109375	0.15380859375	0.40478515625	-19.625	-7.625	-28.125
18	12	13	20	08	17	-0.190545354483	-0.520856519909	0.026061135927	0.95947265625	0.1787109375	0.41357421875	-25.625	-21.0	-33.25
18	12	13	20	08	17	-0.198908722628	-0.526537450172	0.0277092850792	1.1513671875	0.18603515625	0.52001953125	-27.0625	-40.75	-43.75
18	12	13	20	08	17	-0.20945738576	-0.535483421519	0.0294778313875	1.22509765625	0.14892578125	0.482421875	-29.9375	-61.6875	-61.8125
18	12	13	20	08	17	-0.217826576006	-0.54679414246	0.0342394814064	1.224609375	0.30712890625	0.48681640625	-38.5625	-83.9375	-34.8125
18	12	13	20	08	17	-0.225270397447	-0.558201857234	0.0393048322828	0.93896484375	0.3310546875	0.31640625	-39.125	-85.0625	-24.75
18	12	13	20	08	17	-0.232412328848	-0.566871247463	0.0455303564392	0.71142578125	0.4453125	0.2548828125	-50.0625	-72.1875	-6.875
18	12	13	20	08	17	-0.238458888757	-0.572557674797	0.0491321744176	0.62060546875	0.3740234375	0.259765625	-35.3125	-50.6875	-9.5625
18	12	13	20	08	17	-0.243460606882	-0.576883844636	0.0507184167258	0.7314453125	0.27490234375	0.19091796875	-22.8125	-31.375	-17.875
18	12	13	20	08	17	-0.245780946429	-0.580914588554	0.0494979755534	0.9150390625	0.23486328125	0.16015625	-0.6875	-17.4375	-18.8125
18	12	13	20	08	17	-0.243697180353	-0.585044119925	0.0447357959425	0.98193359375	0.2080078125	0.1640625	31.4375	-8.75	-12.125
18	12	13	20	08	17	-0.239682168787	-0.5897145696	0.0386958225136	0.9794921875	0.22802734375	0.162109375	43.75	-9.5625	-7.0
18	12	13	20	08	17	-0.238022324961	-0.593713122364	0.0344216900712	0.9609375	0.26123046875	0.16845703125	26.9375	-11.4375	-9.5
18	12	13	20	08	17	-0.240409858168	-0.596172504337	0.0346058364004	0.88671875	0.28759765625	0.20068359375	-8.9375	-14.6875	-9.625
18	12	13	20	08	17	-0.246821607148	-0.59666865269	0.0407707303598	0.79833984375	0.2724609375	0.24072265625	-50.5	-18.5625	-6.3125
18	12	13	20	08	17	-0.255970810893	-0.595373214178	0.0512674013234	0.72607421875	0.224609375	0.287109375	-79.3125	-20.1875	-4.5
18	12	13	20	08	18	-0.265680218542	-0.593004595303	0.0629869022594	0.69970703125	0.1279296875	0.3564453125	-85.4375	-21.4375	-7.1875
18	12	13	20	08	18	-0.273966199458	-0.590836885042	0.0731756456115	0.701171875	0.0380859375	0.419921875	-71.1875	-23.75	-11.875
18	12	13	20	08	18	-0.279592017079	-0.590249813834	0.0793428557527	0.73974609375	0.001953125	0.4755859375	-40.5625	-28.4375	-17.375
18	12	13	20	08	18	-0.282644859322	-0.591839170987	0.0809300547313	0.77880859375	0.04052734375	0.50830078125	-9.125	-34.5	-21.375
18	12	13	20	08	18	-0.284358669071	-0.595267246073	0.079588689519	0.794921875	0.11328125	0.51123046875	9.5625	-40.875	-23.5625
18	12	13	20	08	18	-0.287339641665	-0.605378484637	0.0776940025147	0.75	0.1884765625	0.47705078125	6.1875	-56.5625	-17.9375
18	12	13	20	08	18	-0.288500263272	-0.610995586125	0.0779384041037	0.7373046875	0.173828125	0.4873046875	7.1875	-61.3125	-15.75
18	12	13	20	08	18	-0.288937080568	-0.617241380604	0.0772085777182	0.78271484375	0.13330078125	0.46484375	15.0625	-61.9375	-20.5
18	12	13	20	08	18	-0.288921728741	-0.623555830703	0.0750073520539	0.8642578125	0.140625	0.4287109375	22.8125	-56.5625	-25.25
18	12	13	20	08	18	-0.288258000298	-0.629431453964	0.0709811675517	0.95263671875	0.1728515625	0.3818359375	31.75	-46.0	-27.5
18	12	13	20	08	18	-0.287334501055	-0.634479497231	0.0661577313388	1.00732421875	0.25830078125	0.296875	32.125	-32.875	-23.5
18	12	13	20	08	18	-0.287700889226	-0.637287374903	0.0631672508164	0.97412109375	0.38623046875	0.23876953125	14.4375	-18.8125	-10.75
18	12	13	20	08	18	-0.289109304893	-0.637969086773	0.0634734382708	1.158203125	0.44384765625	0.3740234375	-4.0625	-17.6875	0.0
18	12	13	20	08	18	-0.291924780724	-0.638230698731	0.0667710035777	1.46044921875	0.30224609375	0.2783203125	-22.3125	-11.8125	-11.0
18	12	13	20	08	18	-0.297220009884	-0.635452719284	0.0761054111552	1.39306640625	0.30908203125	0.23095703125	-61.625	-2.5	6.5
18	12	13	20	08	18	-0.300286263056	-0.630418051039	0.0836162968267	1.14013671875	0.21923828125	0.21337890625	-48.375	18.6875	14.9375
18	12	13	20	08	18	-0.300885334565	-0.623009633924	0.0886177496529	0.875	0.2138671875	0.2421875	-31.5	38.625	28.125
18	12	13	20	08	18	-0.297532375834	-0.615083340237	0.0897174548669	0.79052734375	0.1708984375	0.27685546875	-0.3125	52.25	33.75
18	12	13	20	08	18	-0.292154898869	-0.607257414611	0.0873962429872	0.86083984375	0.10986328125	0.29931640625	22.6875	60.5	26.8125
18	12	13	20	08	18	-0.284707084988	-0.599929398806	0.0820249350962	0.98876953125	0.0458984375	0.34521484375	45.375	64.9375	20.0625
18	12	13	20	08	18	-0.274705669908	-0.593415514	0.0732385700709	1.0908203125	0.00390625	0.34716796875	70.8125	70.4375	15.1875
18	12	13	20	08	18	-0.253040555613	-0.571507902259	0.0478494441874	0.97314453125	0.36328125	0.234375	14.125	78.9375	22.25
18	12	13	20	08	18	-0.254569819145	-0.561078961255	0.0510848570185	0.853515625	0.37451171875	0.2109375	-39.1875	73.3125	28.0
18	12	13	20	08	18	-0.258653661197	-0.549349127993	0.0603606585474	0.7802734375	0.28271484375	0.20068359375	-75.25	69.125	31.5
18	12	13	20	08	18	-0.26286754892	-0.536965102252	0.0719574739208	0.7529296875	0.16064453125	0.21435546875	-84.375	68.0625	32.1875
18	12	13	20	08	18	-0.26505959549	-0.52456532886	0.0820873027709	0.75146484375	0.03857421875	0.23681640625	-68.125	70.8125	30.375
18	12	13	20	08	18	-0.264085500801	-0.513035063493	0.0875199001962	0.77978515625	-0.06396484375	0.27294921875	-31.875	73.8125	26.0
18	12	13	20	08	18	-0.260121444774	-0.503580957493	0.0870936888065	0.81884765625	-0.09423828125	0.28662109375	8.125	73.875	20.3125
18	12	13	20	08	18	-0.25457299028	-0.4962067636	0.082090786844	0.8486328125	-0.05859375	0.29345703125	36.3125	70.5	14.75
18	12	13	20	08	18	-0.248636806956	-0.490560298065	0.0746398662022	0.8525390625	0.021484375	0.3115234375	48.375	63.3125	12.375
18	12	13	20	08	18	-0.24328030272	-0.486438538054	0.0671980966621	0.83447265625	0.10498046875	0.30810546875	45.1875	52.9375	12.1875
18	12	13	20	08	18	-0.239608409504	-0.483305908014	0.0621297404165	0.80908203125	0.1650390625	0.28466796875	27.75	42.8125	11.8125
18	12	13	20	08	18	-0.238637553748	-0.480692934352	0.0602391983501	0.82177734375	0.1875	0.26220703125	4.5	35.0625	6.8125
18	12	13	20	08	18	-0.240093932223	-0.478601071808	0.0612746080203	0.86376953125	0.18310546875	0.23095703125	-16.4375	30.25	0.4375
18	12	13	20	08	18	-0.242179847292	-0.477096740495	0.0642069554817	0.8837890625	0.17138671875	0.18994140625	-26.875	26.0	0.6875
18	12	13	20	08	18	-0.24358472623	-0.476000320689	0.0676861592056	0.8349609375	0.1884765625	0.1513671875	-28.125	23.4375	7.375
18	12	13	20	08	18	-0.243091862609	-0.474953772237	0.0701261737729	0.78564453125	0.1923828125	0.20556640625	-17.3125	20.5625	14.9375
18	12	13	20	08	18	-0.242232973521	-0.477691479907	0.0685991086515	1.02392578125	0.10791015625	0.4130859375	12.3125	-0.3125	-4.6875
18	12	13	20	08	18	-0.243339572435	-0.484848147336	0.0656107450133	1.1796875	0.02099609375	0.50927734375	23.5	-28.5625	-31.375
18	12	13	20	08	18	-0.241139480772	-0.49674366844	0.0632296892129	1.21826171875	0.12646484375	0.5771484375	32.8125	-63.375	-13.0625
18	12	13	20	08	18	-0.237970399743	-0.511218278597	0.0634750489185	0.9296875	0.2548828125	0.46142578125	21.0	-90.8125	6.1875
18	12	13	20	08	18	-0.235647287489	-0.524698194908	0.0706148437256	0.6640625	0.4091796875	0.41162109375	-14.0	-100.3125	20.125
18	12	13	20	08	18	-0.236444784464	-0.537036050205	0.0789166510871	0.529296875	0.35693359375	0.53662109375	-29.8125	-100.4375	8.5
18	12	13	20	08	18	-0.240588018009	-0.550447319742	0.0853837232862	0.64892578125	0.177734375	0.49072265625	-29.625	-106.1875	-18.8125
18	12	13	20	08	18	-0.24595461737	-0.564963248882	0.0870300953771	1.044921875	0.18603515625	0.3271484375	-10.625	-102.9375	-42.75
18	12	13	20	08	18	-0.244437189394	-0.579203227801	0.0801363369972	1.162109375	0.30078125	0.27783203125	47.625	-77.0625	-28.875
18	12	13	20	08	18	-0.238938892376	-0.593227594866	0.0691488544221	1.11181640625	0.4150390625	0.23486328125	77.5625	-69.1875	-15.75
18	12	13	20	08	18	-0.238572912225	-0.605495487895	0.0617640796039	1.0712890625	0.49853515625	0.1689453125	39.8125	-65.6875	-22.0625
18	12	13	20	08	18	-0.243152827938	-0.613680141796	0.0619478213747	0.96142578125	0.5068359375	0.158203125	-14.9375	-56.5	-13.1875
18	12	13	20	08	19	-0.250231182207	-0.618681340009	0.0681727391526	0.841796875	0.4150390625	0.1455078125	-51.625	-48.6875	-4.6875
18	12	13	20	08	19	-0.25780597271	-0.62144422683	0.0762920137044	0.779296875	0.306640625	0.20458984375	-61.5625	-42.625	-3.6875
18	12	13	20	08	19	-0.263352109744	-0.623073392439	0.0816605151418	0.74462890625	0.20556640625	0.2802734375	-40.5625	-34.1875	-8.0
18	12	13	20	08	19	-0.26591703308	-0.624663950785	0.0824544208609	0.76123046875	0.15283203125	0.33642578125	-8.3125	-26.875	-13.25
18	12	13	20	08	19	-0.266291201522	-0.626940917267	0.078794852433	0.79736328125	0.14599609375	0.36376953125	19.875	-22.6875	-20.875
18	12	13	20	08	19	-0.265805174984	-0.629753799192	0.0729362076017	0.82763671875	0.15087890625	0.3642578125	33.5	-22.0625	-25.8125
18	12	13	20	08	19	-0.265611732878	-0.632353668278	0.0676235753742	0.82177734375	0.18798828125	0.38525390625	29.75	-23.6875	-23.5
18	12	13	20	08	19	-0.266407282837	-0.634189708124	0.0648166172676	0.77685546875	0.203125	0.4345703125	15.6875	-27.875	-16.375
18	12	13	20	08	19	-0.268906069894	-0.635463004934	0.0652429842753	0.7138671875	0.203125	0.47802734375	-4.0	-35.4375	-11.1875
18	12	13	20	08	19	-0.272625674253	-0.636675852656	0.0682937384127	0.67138671875	0.16796875	0.5341796875	-18.3125	-45.25	-9.4375
18	12	13	20	08	19	-0.276711979599	-0.638866564279	0.0717107578361	0.70654296875	0.09326171875	0.55322265625	-18.5625	-55.3125	-17.1875
18	12	13	20	08	19	-0.280440202961	-0.642479655402	0.0738482362531	0.78466796875	0.060546875	0.51220703125	-10.0625	-59.875	-26.625
18	12	13	20	08	19	-0.282206107052	-0.647169887367	0.0729927560628	0.86328125	0.05322265625	0.4833984375	10.875	-58.25	-32.4375
18	12	13	20	08	19	-0.281365265693	-0.652816243351	0.0689680586188	0.94775390625	0.0947265625	0.42138671875	33.4375	-52.3125	-32.875
18	12	13	20	08	19	-0.278302929701	-0.658833360992	0.0624350651501	1.24462890625	0.19580078125	0.498046875	54.125	-51.75	-32.5
18	12	13	20	08	19	-0.275797735294	-0.66523463481	0.0548055689963	1.5478515625	0.27880859375	0.34423828125	53.3125	-42.5	-41.4375
18	12	13	20	08	19	-0.277518360565	-0.668802769973	0.0537703267335	1.626953125	0.4794921875	0.1484375	1.8125	-25.875	-20.25
18	12	13	20	08	19	-0.283066056358	-0.666895816694	0.0586516774817	1.21044921875	0.49951171875	0.02294921875	-46.9375	5.5625	4.125
18	12	13	20	08	19	-0.286799994509	-0.660268640264	0.0659780366173	0.88623046875	0.41796875	0.13330078125	-53.25	30.125	32.4375
18	12	13	20	08	19	-0.283980720162	-0.65200215635	0.0704916681254	0.8232421875	0.21240234375	0.1767578125	-16.4375	52.5	43.8125
18	12	13	20	08	19	-0.266401555113	-0.635152573668	0.0630453164792	0.97216796875	0.14111328125	0.1416015625	58.3125	90.3125	31.4375
18	12	13	20	08	19	-0.253948148152	-0.625685271534	0.0505943318476	1.0126953125	0.1923828125	0.21337890625	87.5625	103.375	29.375
18	12	13	20	08	19	-0.240277560662	-0.615493827604	0.0359470366345	1.08447265625	0.1884765625	0.18603515625	100.0625	111.5625	27.0
18	12	13	20	08	19	-0.227654925371	-0.603804336914	0.0228875595212	1.11962890625	0.2685546875	0.14404296875	86.6875	117.4375	29.125
18	12	13	20	08	19	-0.217825545119	-0.589758543705	0.0154412616742	1.07177734375	0.3759765625	0.169921875	48.8125	120.9375	38.875
18	12	13	20	08	19	-0.21288401737	-0.572858195825	0.0163569141787	0.96630859375	0.4091796875	0.2109375	-8.875	122.9375	46.6875
18	12	13	20	08	19	-0.212512029949	-0.553617640342	0.0245957346552	0.8544921875	0.34814453125	0.22900390625	-60.0	123.5625	49.625
18	12	13	20	08	19	-0.214106296075	-0.533251627367	0.036315064471	0.7861328125	0.22509765625	0.25732421875	-83.0625	122.0625	49.375
18	12	13	20	08	19	-0.215438570363	-0.513024538943	0.0476650208083	0.767578125	0.08056640625	0.28076171875	-79.5625	119.625	46.625
18	12	13	20	08	19	-0.215443610763	-0.493811403593	0.0559665130509	0.78173828125	-0.0419921875	0.30126953125	-59.3125	115.8125	40.9375
18	12	13	20	08	19	-0.213920203452	-0.476666701559	0.0598732438193	0.798828125	-0.0947265625	0.32177734375	-31.1875	108.375	33.4375
18	12	13	20	08	19	-0.21013239634	-0.463109097713	0.0613979641933	0.80908203125	-0.0732421875	0.32763671875	-6.1875	98.5	27.9375
18	12	13	20	08	19	-0.205807202977	-0.452202125402	0.059996583786	0.791015625	0.00048828125	0.322265625	9.5625	86.5625	25.375
18	12	13	20	08	19	-0.201593866821	-0.443469886867	0.0573715515627	0.7568359375	0.08203125	0.32470703125	13.5	73.375	24.25
18	12	13	20	08	19	-0.198536005504	-0.436254339791	0.0559050049312	0.7060546875	0.13671875	0.3154296875	4.125	60.875	22.9375
18	12	13	20	08	19	-0.196822080481	-0.430384282651	0.0560866641742	0.68994140625	0.14453125	0.33203125	-6.9375	48.875	19.0
18	12	13	20	08	19	-0.196644001921	-0.426245099137	0.057308726817	0.708984375	0.10888671875	0.35302734375	-12.9375	36.375	10.0625
18	12	13	20	08	19	-0.197626562122	-0.424488183929	0.0590194211156	0.76806640625	0.08837890625	0.35400390625	-15.25	23.4375	1.5625
18	12	13	20	08	19	-0.198962441584	-0.425022835335	0.0602380152894	0.80908203125	0.09375	0.37109375	-11.8125	10.5	-3.125
18	12	13	20	08	19	-0.200309668252	-0.427717902227	0.0604835104319	0.82080078125	0.10400390625	0.39599609375	-4.4375	-3.0625	-6.9375
18	12	13	20	08	19	-0.201953611355	-0.432286923309	0.0599940767489	0.80029296875	0.1328125	0.421875	-1.1875	-16.5625	-10.6875
18	12	13	20	08	19	-0.205741444643	-0.440168287976	0.0580421577738	0.96240234375	0.1513671875	0.5703125	4.75	-38.125	-28.875
18	12	13	20	08	19	-0.212021062806	-0.452909702672	0.0555380446613	1.14794921875	0.099609375	0.63818359375	9.1875	-67.6875	-53.5
18	12	13	20	08	19	-0.21678197372	-0.46896190486	0.0549888959239	1.22119140625	0.24755859375	0.666015625	5.625	-100.4375	-40.875
18	12	13	20	08	19	-0.220945072116	-0.486994676909	0.0579217882425	1.015625	0.322265625	0.49755859375	-8.6875	-119.5625	-29.75
18	12	13	20	08	19	-0.226676161167	-0.503155162268	0.0659155234413	0.77197265625	0.435546875	0.4130859375	-41.0	-118.625	-20.5625
18	12	13	20	08	19	-0.235403772662	-0.51713149229	0.0748262964177	0.6591796875	0.38818359375	0.4267578125	-56.1875	-110.25	-32.0625
18	12	13	20	08	19	-0.246575507226	-0.529099770332	0.0803201404726	0.6806640625	0.283203125	0.3984375	-52.8125	-97.4375	-45.3125
18	12	13	20	08	20	-0.255355237007	-0.540798937649	0.0819651250719	0.84814453125	0.19970703125	0.31689453125	-25.25	-81.0625	-52.25
18	12	13	20	08	20	-0.259928115531	-0.5525684804	0.0770202586994	0.99951171875	0.181640625	0.26416015625	19.8125	-63.0625	-55.0625
18	12	13	20	08	20	-0.260544203115	-0.564115734222	0.0668296796466	1.04150390625	0.2529296875	0.22216796875	54.4375	-48.8125	-49.0625
18	12	13	20	08	20	-0.26085648137	-0.574628865723	0.0566389365258	0.9921875	0.34765625	0.14990234375	51.9375	-40.75	-41.1875
18	12	13	20	08	20	-0.264641649893	-0.582565624591	0.051512350671	0.90966796875	0.40283203125	0.1396484375	13.125	-37.8125	-34.875
18	12	13	20	08	20	-0.272943419022	-0.587389862403	0.0537097962297	0.822265625	0.37451171875	0.1728515625	-37.375	-38.25	-30.4375
18	12	13	20	08	20	-0.284893545525	-0.589195006105	0.0627400524421	0.75927734375	0.27685546875	0.22216796875	-80.5625	-38.8125	-27.375
18	12	13	20	08	20	-0.298018408349	-0.589140220313	0.0747639873494	0.7529296875	0.1494140625	0.287109375	-97.0	-38.5625	-29.0625
18	12	13	20	08	20	-0.309862281331	-0.588658992207	0.0859948698829	0.79833984375	0.02099609375	0.369140625	-85.6875	-39.0	-34.1875
18	12	13	20	08	20	-0.318837811031	-0.589032104568	0.0937471052343	0.85595703125	-0.05078125	0.4287109375	-56.875	-38.6875	-38.4375
18	12	13	20	08	20	-0.328656076706	-0.592679509914	0.0979559894359	0.87255859375	0.044921875	0.51513671875	-6.375	-37.9375	-34.4375
18	12	13	20	08	20	-0.323106338527	-0.62759774822	0.0975910531366	1.138671875	0.2890625	0.1650390625	-40.5	30.0625	34.0625
18	12	13	20	08	20	-0.323046490062	-0.618689263132	0.105403606336	0.892578125	0.26123046875	0.14501953125	-45.25	49.3125	47.4375
18	12	13	20	08	20	-0.321395960472	-0.607698362784	0.110712546961	0.720703125	0.2578125	0.16552734375	-31.9375	68.25	55.25
18	12	13	20	08	20	-0.318034790285	-0.595666772823	0.113274337127	0.70361328125	0.20849609375	0.22705078125	-14.5	79.5	53.8125
18	12	13	20	08	20	-0.261827533975	-0.540866108644	0.078121035778	1.0029296875	0.34912109375	0.3115234375	37.5625	85.6875	50.9375
18	12	13	20	08	20	-0.252312996597	-0.519029928172	0.0789164742623	0.72265625	0.30126953125	0.24169921875	-19.4375	80.125	53.375
18	12	13	20	08	20	-0.24895234097	-0.507853010349	0.0827603271282	0.6953125	0.17236328125	0.24609375	-24.25	76.0	48.0625
18	12	13	20	08	20	-0.244006567152	-0.497534150931	0.084834699435	0.71337890625	0.03564453125	0.26806640625	-5.875	73.3125	42.0625
18	12	13	20	08	20	-0.236686655343	-0.489058836839	0.0822727208359	0.74560546875	-0.05712890625	0.2890625	28.4375	70.625	33.6875
18	12	13	20	08	20	-0.227833045742	-0.482764369627	0.0745202648943	0.771484375	-0.0751953125	0.3173828125	61.1875	65.0625	23.0
18	12	13	20	08	20	-0.219045467542	-0.478555450263	0.0634737493016	0.7900390625	-0.02392578125	0.3369140625	77.75	56.1875	14.1875
18	12	13	20	08	20	-0.21159559755	-0.476166383642	0.0519376560471	0.79150390625	0.072265625	0.34375	74.9375	44.375	8.25
18	12	13	20	08	20	-0.206960590821	-0.475014532102	0.0430888166085	0.763671875	0.16162109375	0.3359375	51.75	30.9375	4.6875
18	12	13	20	08	20	-0.205621577376	-0.474473773382	0.0392444862728	0.728515625	0.197265625	0.3349609375	17.375	17.5625	2.125
18	12	13	20	08	20	-0.207630640804	-0.474523289904	0.0404641725024	0.71337890625	0.1689453125	0.31884765625	-15.0625	5.9375	-3.625
18	12	13	20	08	20	-0.212086759253	-0.475196405048	0.0451637990927	0.72705078125	0.10791015625	0.32421875	-36.25	-3.6875	-11.5
18	12	13	20	08	20	-0.217704521877	-0.47733867833	0.0505352800994	0.78466796875	0.05908203125	0.3330078125	-38.8125	-13.375	-20.0625
18	12	13	20	08	20	-0.223686560589	-0.481490662071	0.0544415858242	0.86376953125	0.0478515625	0.34130859375	-30.25	-22.5625	-29.5625
18	12	13	20	08	20	-0.229607476234	-0.487534428538	0.0562727520171	0.9208984375	0.1064453125	0.35791015625	-19.8125	-31.8125	-34.375
18	12	13	20	08	20	-0.235464050343	-0.495097038979	0.0570045160757	0.95068359375	0.17578125	0.373046875	-14.5	-41.4375	-35.3125
18	12	13	20	08	21	-0.242416703813	-0.504119328674	0.0584070457072	1.04052734375	0.25	0.42333984375	-20.75	-54.0625	-38.25
18	12	13	20	08	21	-0.251573947023	-0.51486604005	0.0614592345104	1.16943359375	0.2529296875	0.4755859375	-32.1875	-71.125	-49.125
18	12	13	20	08	21	-0.260428420992	-0.526410857993	0.0681129875386	1.1416015625	0.30517578125	0.47021484375	-48.3125	-86.125	-35.375
18	12	13	20	08	21	-0.269148236588	-0.538418535868	0.075800931937	1.10205078125	0.27880859375	0.46630859375	-51.25	-96.375	-34.75
18	12	13	20	08	21	-0.293254701866	-0.573143580692	0.0908143592875	0.72021484375	0.20263671875	0.33349609375	7.9375	-51.875	-31.125
18	12	13	20	08	21	-0.294170270552	-0.587791260516	0.0786081552845	0.9716796875	0.28466796875	0.2578125	38.625	-32.125	-30.0625
18	12	13	20	08	21	-0.296665946903	-0.598763547637	0.0718931259929	1.029296875	0.353515625	0.21875	0.625	-26.75	-18.5
18	12	13	20	08	21	-0.342756628584	-0.593720883701	0.103205387987	0.74609375	0.2197265625	0.47998046875	5.5625	-31.4375	-11.4375
18	12	13	20	08	21	-0.344716652064	-0.602216573285	0.104550216888	0.7138671875	0.107421875	0.4970703125	17.875	-43.875	-14.6875
18	12	13	20	08	21	-0.343298661796	-0.606891003182	0.101433311272	0.82373046875	0.12646484375	0.43408203125	31.375	-37.875	-21.25
18	12	13	20	08	21	-0.341173406644	-0.61118255709	0.0961877082059	0.8974609375	0.197265625	0.38916015625	40.125	-25.625	-20.75
18	12	13	20	08	21	-0.336112252083	-0.617599396917	0.0848367587425	1.31787109375	0.3564453125	0.42333984375	40.4375	-15.6875	-16.6875
18	12	13	20	08	21	-0.33670737891	-0.619646550313	0.0840395252418	1.46142578125	0.4248046875	0.21435546875	1.9375	-4.9375	-12.9375
18	12	13	20	08	21	-0.340011697265	-0.617770310486	0.0912434908296	1.384765625	0.46240234375	0.12451171875	-49.4375	5.625	13.125
18	12	13	20	08	21	-0.335377682726	-0.583111625252	0.107845744382	0.93603515625	0.0419921875	0.28515625	30.625	68.875	30.0
18	12	13	20	08	21	-0.326289230944	-0.576834927357	0.0998520729189	1.078125	0.06640625	0.32666015625	61.875	72.8125	21.625
18	12	13	20	08	21	-0.314380023646	-0.571511267991	0.0886806783844	1.12646484375	0.099609375	0.37744140625	86.4375	73.9375	25.0
18	12	13	20	08	21	-0.300885315513	-0.567043705158	0.0763504117051	1.1572265625	0.1650390625	0.3505859375	95.8125	73.5	30.6875
18	12	13	20	08	21	-0.289046249137	-0.561674964275	0.0659142628944	1.0830078125	0.310546875	0.2900390625	75.5	76.1875	39.6875
18	12	13	20	08	21	-0.277272676064	-0.54380355354	0.0636573632258	0.7919921875	0.4072265625	0.2744140625	-19.3125	70.9375	56.125
18	12	13	20	08	21	-0.275017356751	-0.532579106748	0.070493796504	0.6943359375	0.26513671875	0.26806640625	-43.1875	67.375	55.8125
18	12	13	20	08	21	-0.271956562854	-0.521636611919	0.0774490301305	0.68212890625	0.10546875	0.27294921875	-36.875	65.25	50.5
18	12	13	20	08	21	-0.266586510821	-0.512056049859	0.0809280479277	0.720703125	-0.025390625	0.2822265625	-8.25	65.25	42.375
18	12	13	20	08	21	-0.258845655278	-0.504263806628	0.078917102635	0.7705078125	-0.07373046875	0.2998046875	28.625	65.375	33.6875
18	12	13	20	08	21	-0.249385102726	-0.49858710332	0.0718981035269	0.80224609375	-0.05810546875	0.3046875	59.5625	62.5625	26.375
18	12	13	20	08	21	-0.239552257837	-0.494728815804	0.0617648114475	0.80712890625	0.0224609375	0.3046875	75.3125	56.3125	21.6875
18	12	13	20	08	21	-0.223747496241	-0.490462324003	0.0428452652377	0.75439453125	0.19580078125	0.29345703125	53.3125	36.9375	18.5
18	12	13	20	08	21	-0.220024891386	-0.488937421608	0.0385119851497	0.73779296875	0.21923828125	0.29638671875	24.9375	27.25	14.125
18	12	13	20	08	22	-0.219724906602	-0.487667223263	0.0385128933516	0.75732421875	0.1845703125	0.296875	-4.125	18.5	5.5
18	12	13	20	08	22	-0.221789079695	-0.486971674983	0.0416235972351	0.80810546875	0.13232421875	0.30517578125	-23.6875	10.6875	-1.9375
18	12	13	20	08	22	-0.224841573439	-0.487400870111	0.04589599979	0.86474609375	0.099609375	0.29833984375	-29.375	3.5	-7.4375
18	12	13	20	08	22	-0.228441174495	-0.489351145366	0.0498017628609	0.921875	0.10107421875	0.30126953125	-27.8125	-4.3125	-13.1875
18	12	13	20	08	22	-0.232227852887	-0.492652622471	0.0529149930231	0.95654296875	0.12939453125	0.32666015625	-23.6875	-13.25	-16.25
18	12	13	20	08	22	-0.235769824082	-0.497356535451	0.0556619413831	0.97900390625	0.17236328125	0.37744140625	-20.5625	-24.3125	-15.375
18	12	13	20	08	22	-0.24083170183	-0.504489317619	0.0582243901534	1.11376953125	0.19580078125	0.4228515625	-21.125	-40.4375	-26.5625
18	12	13	20	08	22	-0.246392944455	-0.512682866837	0.0629867522113	1.0869140625	0.23291015625	0.4560546875	-32.5	-56.4375	-22.5
18	12	13	20	08	22	-0.250901822474	-0.522676528258	0.0690269912961	1.0966796875	0.287109375	0.51708984375	-34.25	-75.625	-12.5625
18	12	13	20	08	22	-0.255413414277	-0.533713335209	0.075006711146	1.0625	0.20361328125	0.54833984375	-29.4375	-89.0	-19.0625
18	12	13	20	08	22	-0.293072768813	-0.586938945788	0.0858101443047	0.830078125	0.27197265625	0.3173828125	-67.4375	-0.75	-0.5625
18	12	13	20	08	22	-0.299065747615	-0.582262700458	0.0922221111522	0.79833984375	0.17822265625	0.38525390625	-53.5	5.8125	-1.25
18	12	13	20	08	22	-0.302846820293	-0.577801460643	0.0955169838287	0.79833984375	0.1142578125	0.4287109375	-29.9375	10.1875	-4.3125
18	12	13	20	08	22	-0.304483924102	-0.574302210023	0.0952694739474	0.79931640625	0.1064453125	0.4541015625	-5.25	12.0	-6.9375
18	12	13	20	08	22	-0.305166044438	-0.571942200486	0.0925263446737	0.796875	0.14453125	0.4638671875	9.9375	9.6875	-9.8125
18	12	13	20	08	22	-0.306450511224	-0.570604626455	0.0899637629046	0.79736328125	0.18505859375	0.46533203125	7.625	2.0625	-11.875
18	12	13	20	08	22	-0.309066033507	-0.570160917264	0.0896560037958	0.783203125	0.2099609375	0.44970703125	-6.5	-9.1875	-12.0625
18	12	13	20	08	22	-0.313037778665	-0.570596645105	0.0914883272021	0.77490234375	0.21044921875	0.43017578125	-19.6875	-19.6875	-13.625
18	12	13	20	08	22	-0.317843408697	-0.571605484995	0.0939859541846	0.76953125	0.193359375	0.42431640625	-24.25	-26.0625	-17.875
18	12	13	20	08	22	-0.322551702536	-0.573330310997	0.0959415849359	0.77783203125	0.17236328125	0.41748046875	-20.0	-29.375	-22.4375
18	12	13	20	08	22	-0.330437052345	-0.57902776424	0.096128252206	0.78662109375	0.220703125	0.396484375	-4.3125	-32.3125	-26.0625
18	12	13	20	08	22	-0.333663122126	-0.58249146471	0.0950881917455	0.8017578125	0.24560546875	0.39990234375	-0.375	-33.25	-24.6875
18	12	13	20	08	22	-0.336591484277	-0.585968239445	0.0944775372004	0.8408203125	0.25	0.376953125	-1.375	-32.0	-23.25
18	12	13	20	08	22	-0.351428015689	-0.591837003845	0.101803044489	1.19580078125	0.216796875	0.4072265625	-17.75	-16.375	-15.375
18	12	13	20	08	22	-0.354047450195	-0.591584543137	0.106623150403	1.25341796875	0.25048828125	0.3974609375	-27.6875	-14.625	-5.25
18	12	13	20	08	22	-0.358992533256	-0.587192649176	0.117853550105	1.00439453125	0.27587890625	0.2587890625	-41.4375	7.25	12.125
18	12	13	20	08	22	-0.360822436518	-0.581636979029	0.123712293441	0.79443359375	0.2421875	0.26220703125	-40.375	20.125	23.5625
18	12	13	20	08	22	-0.361194756909	-0.574566989108	0.128474985349	0.66796875	0.1572265625	0.27197265625	-31.375	31.5625	28.5
18	12	13	20	08	22	-0.353804712013	-0.564549523222	0.12700838463	0.8740234375	-0.025390625	0.38134765625	32.9375	32.1875	11.9375
18	12	13	20	08	22	-0.345928564744	-0.563446102631	0.119378312039	1.0283203125	-0.0029296875	0.3974609375	65.625	31.9375	5.25
18	12	13	20	08	22	-0.335735837583	-0.563994705527	0.108941732428	1.11376953125	0.07177734375	0.388671875	86.5	32.1875	8.375
18	12	13	20	08	22	-0.325364695718	-0.565161711188	0.0980793595983	1.134765625	0.2060546875	0.3271484375	85.3125	32.75	14.3125
18	12	13	20	08	22	-0.316697831337	-0.565161286988	0.0894736983504	1.0732421875	0.3271484375	0.263671875	64.1875	35.5625	22.6875
18	12	13	20	08	23	-0.310409961335	-0.563083425732	0.0852010039369	0.96435546875	0.35009765625	0.22802734375	32.1875	37.625	30.6875
