18	12	12	15	27	33	0.766619793235	0.206975136852	0.394784778873	-0.51708984375	0.33984375	0.43017578125	207.3125	-9.0625	-80.0
18	12	12	15	27	33	0.753044877819	0.225339738119	0.385860732499	-0.486328125	0.33984375	0.51611328125	163.75	17.6875	-79.875
18	12	12	15	27	33	0.738561519565	0.238964326372	0.385272753016	-0.49853515625	0.326171875	0.580078125	110.8125	49.6875	-83.0625
18	12	12	15	27	33	0.724831214619	0.248914668902	0.390462760414	-0.51611328125	0.29736328125	0.61474609375	57.0	80.5625	-89.875
18	12	12	15	27	33	0.708622164726	0.253175257475	0.406801613083	-0.5625	0.27001953125	0.681640625	7.4375	110.0	-98.0625
18	12	12	15	27	33	0.690572063496	0.254218900872	0.430920873986	-0.68310546875	0.2958984375	0.7216796875	-35.0625	141.75	-109.5
18	12	12	15	27	33	0.670855758723	0.251654835157	0.462903291252	-0.830078125	0.2724609375	0.73193359375	-82.1875	173.125	-116.4375
18	12	12	15	27	33	0.65024925947	0.244827727376	0.50076456629	-0.9658203125	0.1826171875	0.66455078125	-128.4375	192.0625	-118.875
18	12	12	15	27	33	0.629662451609	0.234994226318	0.540730870376	-1.12109375	0.041015625	0.61181640625	-159.0	197.375	-112.3125
18	12	12	15	27	33	0.60939935735	0.224252127294	0.578941597002	-1.263671875	-0.15771484375	0.51904296875	-163.9375	190.125	-101.5
18	12	12	15	27	33	0.590468048702	0.215031934627	0.612380187372	-1.3603515625	-0.30419921875	0.4814453125	-148.8125	174.8125	-83.4375
18	12	12	15	27	33	0.574678875071	0.20789763659	0.639929190255	-1.4931640625	-0.3828125	0.41650390625	-131.25	150.375	-58.625
18	12	12	15	27	33	0.565627224856	0.201299081426	0.660661387919	-1.37841796875	-0.51513671875	0.298828125	-123.5625	105.625	-23.4375
18	12	12	15	27	33	0.564397779361	0.193422359986	0.674872525835	-1.16455078125	-0.57568359375	0.32763671875	-124.625	54.3125	5.25
18	12	12	15	27	33	0.570202799931	0.184330170819	0.683486507561	-0.9755859375	-0.5341796875	0.34765625	-127.375	8.0	28.5625
18	12	12	15	27	33	0.58188074402	0.172922285514	0.688515136111	-0.85498046875	-0.4013671875	0.37841796875	-142.1875	-29.25	44.5
18	12	12	15	27	33	0.598100751855	0.158146652521	0.690815829114	-0.7822265625	-0.33154296875	0.42578125	-162.4375	-60.9375	52.375
18	12	12	15	27	33	0.617256636208	0.14099306137	0.690011497313	-0.796875	-0.30029296875	0.4375	-169.875	-86.8125	54.9375
18	12	12	15	27	33	0.63821338252	0.122503276465	0.685945102598	-0.85595703125	-0.26025390625	0.41650390625	-168.8125	-109.0625	54.5625
18	12	12	15	27	33	0.659972968742	0.103820773128	0.67889386214	-0.9296875	-0.21826171875	0.3916015625	-161.75	-124.9375	54.8125
18	12	12	15	27	33	0.681593832	0.0843523485112	0.669691727833	-1.013671875	-0.1572265625	0.3671875	-157.5	-135.3125	48.5625
18	12	12	15	27	33	0.702298448777	0.0637232383559	0.658900726103	-1.125	-0.1357421875	0.32470703125	-153.8125	-142.5	37.3125
18	12	12	15	27	33	0.721829043842	0.0414444377447	0.646569851295	-1.2890625	-0.171875	0.27880859375	-149.1875	-148.8125	21.6875
18	12	12	15	27	33	0.740712215835	0.019471544858	0.631634941035	-1.36083984375	-0.27587890625	0.244140625	-131.3125	-159.875	9.875
18	12	12	15	27	33	0.759544309066	0.000793480875752	0.613238642975	-1.3603515625	-0.41162109375	0.2451171875	-97.1875	-171.1875	6.875
18	12	12	15	27	33	0.778464772641	-0.0115359763234	0.59126456426	-1.33056640625	-0.46533203125	0.23388671875	-47.6875	-180.8125	9.8125
18	12	12	15	27	33	0.797707566946	-0.0159919949912	0.56600675402	-1.26708984375	-0.4111328125	0.22021484375	3.4375	-187.9375	20.0625
18	12	12	15	27	33	0.81668366129	-0.0145269589975	0.538962386337	-1.17919921875	-0.28125	0.20166015625	36.125	-189.25	32.0
18	12	12	15	27	33	0.835004803276	-0.0108037902178	0.511501480369	-1.09033203125	-0.14453125	0.17138671875	41.8125	-187.6875	43.75
18	12	12	15	27	33	0.852397921368	-0.00805703728038	0.484581961886	-0.99365234375	-0.0546875	0.15234375	27.375	-183.875	53.4375
18	12	12	15	27	33	0.868566345344	-0.00830112599907	0.459003437596	-0.90576171875	0.013671875	0.17236328125	1.125	-177.25	60.25
18	12	12	15	27	33	0.883099677227	-0.0119634736478	0.435384987397	-0.8583984375	0.0615234375	0.205078125	-25.8125	-167.1875	62.375
18	12	12	15	27	33	0.895903557469	-0.0184942620189	0.413770964442	-0.837890625	0.05712890625	0.22802734375	-46.0625	-155.375	61.4375
18	12	12	15	27	33	0.906957873833	-0.026185135465	0.394058821823	-0.82177734375	0.0166015625	0.2568359375	-54.5625	-142.875	60.375
18	12	12	15	27	33	0.916435601008	-0.0332050730617	0.376120698908	-0.8193359375	-0.02685546875	0.28564453125	-51.875	-129.25	59.625
18	12	12	15	27	33	0.92445610761	-0.0382087365221	0.360114289905	-0.81396484375	-0.05908203125	0.3076171875	-41.125	-114.625	60.4375
18	12	12	15	27	34	0.930005430573	-0.0404058275933	0.349614169871	-0.8115234375	-0.0966796875	0.32080078125	-28.9375	-99.875	63.75
18	12	12	15	27	34	0.934362647598	-0.0407120385385	0.341566068458	-0.8193359375	-0.1162109375	0.3310546875	-18.25	-84.125	66.75
18	12	12	15	27	34	0.937598899924	-0.0392471904597	0.336073142568	-0.8330078125	-0.12939453125	0.341796875	-9.3125	-67.6875	70.0625
18	12	12	15	27	34	0.939766132331	-0.0368045059294	0.333132658977	-0.83154296875	-0.14404296875	0.345703125	-4.6875	-51.8125	74.6875
18	12	12	15	27	34	0.941158142779	-0.0337544881611	0.331929306728	-0.810546875	-0.1513671875	0.361328125	-1.9375	-39.125	78.25
18	12	12	15	27	34	0.941782351205	-0.0306399702077	0.332339915898	-0.82177734375	-0.123046875	0.4169921875	-3.75	-27.125	77.875
18	12	12	15	27	34	0.941335637368	-0.0286880916589	0.335101325973	-0.84814453125	-0.095703125	0.48095703125	-11.875	-11.0	73.875
18	12	12	15	27	34	0.939651851472	-0.0295415067303	0.34052079762	-0.86669921875	-0.10888671875	0.5322265625	-26.5	7.75	68.375
18	12	12	15	27	34	0.936756588208	-0.0336321678571	0.348346246752	-0.89453125	-0.197265625	0.58154296875	-38.25	24.5625	61.3125
18	12	12	15	27	34	0.932822543882	-0.0390023951803	0.358162840247	-0.923828125	-0.28466796875	0.60498046875	-36.9375	39.125	51.9375
18	12	12	15	27	34	0.928129420636	-0.0430311220274	0.369518315963	-0.89404296875	-0.3720703125	0.6083984375	-20.375	52.6875	45.875
18	12	12	15	27	34	0.922938850521	-0.0441907101235	0.381968872863	-0.80810546875	-0.4345703125	0.58740234375	2.375	65.5625	43.75
18	12	12	15	27	34	0.91738779997	-0.0421766446959	0.395215303048	-0.73046875	-0.47119140625	0.54248046875	26.0	73.9375	42.0625
18	12	12	15	27	34	0.911836979482	-0.0376600452735	0.408278837657	-0.6962890625	-0.4326171875	0.4912109375	41.625	73.8125	35.875
18	12	12	15	27	34	0.906263919751	-0.0328984545222	0.420965938478	-0.720703125	-0.3193359375	0.453125	41.4375	70.6875	22.6875
18	12	12	15	27	34	0.900327709136	-0.0303364658604	0.433805357887	-0.767578125	-0.2216796875	0.4169921875	28.0625	70.6875	6.625
18	12	12	15	27	34	0.893863482155	-0.03186265622	0.446992780649	-0.80712890625	-0.25146484375	0.3984375	10.6875	73.3125	-8.0625
18	12	12	15	27	34	0.887001872774	-0.0350967572836	0.460347379883	-0.82080078125	-0.291015625	0.42529296875	6.1875	78.4375	-17.875
18	12	12	15	27	34	0.879616726864	-0.0366837591316	0.474264240354	-0.83203125	-0.26708984375	0.4560546875	18.625	86.375	-25.875
18	12	12	15	27	34	0.871584912175	-0.035769224633	0.488866416528	-0.84228515625	-0.19384765625	0.4853515625	34.5625	95.75	-36.5625
18	12	12	15	27	34	0.862765212518	-0.0328992182205	0.504108800155	-0.85009765625	-0.1494140625	0.51318359375	46.9375	103.9375	-49.875
18	12	12	15	27	34	0.852807607261	-0.0295418610016	0.520156486479	-0.8427734375	-0.11865234375	0.537109375	56.8125	112.875	-62.8125
18	12	12	15	27	34	0.841602193805	-0.0255752334787	0.536835748079	-0.8388671875	-0.109375	0.5498046875	66.375	121.25	-73.8125
18	12	12	15	27	34	0.828873101836	-0.0213627088102	0.554209702847	-0.85302734375	-0.091796875	0.5615234375	73.5625	130.25	-83.9375
18	12	12	15	27	34	0.814348132986	-0.0170902021613	0.572338663095	-0.888671875	-0.06884765625	0.5625	78.0625	140.625	-93.375
18	12	12	15	27	34	0.797904311415	-0.0134896613236	0.59110353058	-0.93994140625	-0.07373046875	0.54541015625	78.0625	149.625	-101.9375
18	12	12	15	27	34	0.779811711536	-0.0111087767298	0.610067161615	-0.98046875	-0.078125	0.53759765625	72.0	156.0625	-108.1875
18	12	12	15	27	34	0.760396324098	-0.0106204013801	0.628984116217	-0.98779296875	-0.091796875	0.5078125	59.375	158.75	-110.9375
18	12	12	15	27	34	0.740324825389	-0.0123295914526	0.647364588843	-0.98291015625	-0.109375	0.48193359375	42.4375	157.5	-110.125
18	12	12	15	27	34	0.720118524661	-0.0156865961042	0.664940770271	-0.98486328125	-0.1435546875	0.45751953125	26.25	153.0	-105.8125
18	12	12	15	27	34	0.700353062049	-0.0201426277215	0.681370161378	-0.9814453125	-0.17333984375	0.44482421875	13.0	145.4375	-99.0
18	12	12	15	27	34	0.681523759399	-0.0250246051723	0.696416451257	-0.98291015625	-0.20263671875	0.42578125	3.0	135.6875	-89.5
18	12	12	15	27	34	0.664441064954	-0.0299077826408	0.709668956662	-1.0078125	-0.23193359375	0.419921875	-5.3125	121.75	-77.1875
18	12	12	15	27	34	0.64976124222	-0.034548131808	0.720932835308	-1.07177734375	-0.240234375	0.4208984375	-13.1875	105.0625	-63.125
18	12	12	15	27	34	0.641374000277	-0.0375375913752	0.727374758404	-1.150390625	-0.2373046875	0.3720703125	-22.3125	84.0625	-49.5
18	12	12	15	27	34	0.637035201861	-0.0410163510252	0.73109204253	-1.18896484375	-0.31787109375	0.35888671875	-31.9375	55.9375	-32.3125
18	12	12	15	27	34	0.636993098244	-0.0434590921761	0.73178519115	-1.1953125	-0.3798828125	0.34130859375	-31.875	27.25	-10.9375
18	12	12	15	27	34	0.640867849033	-0.043273838568	0.729734857432	-1.1845703125	-0.3876953125	0.32470703125	-24.0	2.1875	12.0625
18	12	12	15	27	34	0.648454529569	-0.040833591894	0.724994625586	-1.16259765625	-0.33984375	0.33544921875	-17.375	-20.9375	31.0
18	12	12	15	27	34	0.659039326931	-0.0371728211634	0.718125190456	-1.22705078125	-0.22900390625	0.3525390625	-18.4375	-40.6875	40.6875
18	12	12	15	27	34	0.67166178898	-0.0346085272948	0.709871556328	-1.2587890625	-0.1484375	0.3212890625	-31.3125	-60.1875	46.0625
18	12	12	15	27	34	0.686064791281	-0.0348525796994	0.699981408044	-1.19287109375	-0.17333984375	0.29736328125	-49.6875	-81.5	52.25
18	12	12	15	27	34	0.700588388908	-0.0372328730819	0.689357489487	-1.05908203125	-0.251953125	0.30078125	-55.25	-101.4375	61.125
18	12	12	15	27	34	0.716872840074	-0.0386360585583	0.676344652266	-0.92138671875	-0.2412109375	0.3134765625	-51.5625	-117.6875	70.9375
18	12	12	15	27	34	0.734021174822	-0.039917665752	0.661693294216	-0.8623046875	-0.12060546875	0.341796875	-55.9375	-127.875	76.6875
18	12	12	15	27	34	0.750831435143	-0.0439475354282	0.646517076744	-0.8935546875	0.03173828125	0.359375	-76.6875	-132.25	74.5
18	12	12	15	27	34	0.766843816267	-0.052978385269	0.630857822742	-0.9521484375	0.126953125	0.3515625	-107.0	-136.375	64.0
18	12	12	15	27	34	0.782029220843	-0.0665323018045	0.614111457298	-1.0224609375	0.10205078125	0.36962890625	-129.0	-141.875	49.6875
18	12	12	15	27	34	0.79618041781	-0.0816689205021	0.596280780557	-1.1015625	0.05029296875	0.4111328125	-128.25	-143.8125	34.4375
18	12	12	15	27	34	0.809182227927	-0.094914261479	0.578030904312	-1.1796875	0.0078125	0.427734375	-105.625	-139.5625	21.5
18	12	12	15	27	34	0.820716686351	-0.104680136627	0.560633851267	-1.23486328125	-0.001953125	0.37646484375	-74.9375	-129.5625	11.3125
18	12	12	15	27	35	0.831242564874	-0.111145657584	0.544070506152	-1.240234375	-0.0302734375	0.30419921875	-47.75	-121.4375	5.5
18	12	12	15	27	35	0.841287288182	-0.114629436785	0.527917997206	-1.169921875	-0.07568359375	0.22509765625	-26.3125	-117.5625	5.3125
18	12	12	15	27	35	0.851172564706	-0.1154835778	0.511802219796	-1.08349609375	-0.11767578125	0.18994140625	-10.3125	-116.625	9.25
18	12	12	15	27	35	0.860813065687	-0.114323397294	0.495808305508	-1.01806640625	-0.0927734375	0.15625	-0.6875	-115.4375	14.75
18	12	12	15	27	35	0.869946763391	-0.112550468792	0.480109537699	-0.9580078125	-0.0625	0.1669921875	-0.8125	-113.1875	21.4375
18	12	12	15	27	35	0.878300991398	-0.111397547384	0.464939790915	-0.92919921875	-0.00048828125	0.19189453125	-9.3125	-109.3125	27.75
18	12	12	15	27	35	0.885572914914	-0.110719502905	0.450934778095	-0.939453125	0.017578125	0.2431640625	-18.8125	-102.125	38.0625
18	12	12	15	27	35	0.89073021017	-0.109075233713	0.440512569506	-0.92138671875	-0.0107421875	0.2451171875	-24.5625	-99.125	52.0
18	12	12	15	27	35	0.897098617872	-0.107795887539	0.426727661261	-0.8955078125	-0.0087890625	0.2060546875	-25.125	-101.3125	58.5625
18	12	12	15	27	35	0.901200727353	-0.104433081239	0.417305070973	-0.9521484375	0.0048828125	0.216796875	-18.875	-98.5625	64.0625
18	12	12	15	27	35	0.904884287389	-0.0992473424145	0.408159273509	-0.955078125	0.02978515625	0.2294921875	-14.8125	-98.375	78.875
18	12	12	15	27	35	0.907721403934	-0.093994819934	0.399539020317	-0.94775390625	0.03466796875	0.25	-19.9375	-95.125	92.25
18	12	12	15	27	35	0.911102141647	-0.090029855894	0.387769270844	-0.97021484375	0.05859375	0.2890625	-29.9375	-89.4375	102.0625
18	12	12	15	27	35	0.913320920615	-0.0867969223494	0.376608305834	-0.974609375	0.07275390625	0.33740234375	-37.625	-83.875	110.125
18	12	12	15	27	35	0.914457774984	-0.0831325249985	0.366283614182	-0.93603515625	0.00830078125	0.3818359375	-36.1875	-77.5625	117.8125
18	12	12	15	27	35	0.914779574791	-0.0773964436402	0.356890383253	-0.8798828125	-0.0439453125	0.45947265625	-23.625	-70.9375	123.1875
18	12	12	15	27	35	0.914077978494	-0.0687267497185	0.349615295193	-0.869140625	-0.00927734375	0.54345703125	-4.75	-59.75	125.5
18	12	12	15	27	35	0.91184983099	-0.0588408352014	0.345659387703	-0.90478515625	0.08740234375	0.60205078125	6.0	-40.0	124.1875
18	12	12	15	27	35	0.908060703563	-0.0517601315199	0.344436818593	-0.9267578125	0.1484375	0.654296875	-4.6875	-18.75	117.1875
18	12	12	15	27	35	0.902895745839	-0.0502965180213	0.345239206224	-0.92626953125	0.1533203125	0.73095703125	-30.4375	2.875	106.0625
18	12	12	15	27	35	0.895802628799	-0.0555451343832	0.349323960522	-0.86767578125	0.06689453125	0.751953125	-57.5625	26.5	96.3125
18	12	12	15	27	35	0.887923545408	-0.0661044338817	0.353838784129	-0.7421875	-0.1103515625	0.73681640625	-74.0	45.75	90.75
18	12	12	15	27	35	0.879542655449	-0.0784324991154	0.359019423966	-0.6328125	-0.27392578125	0.68505859375	-71.6875	58.375	87.9375
18	12	12	15	27	35	0.871087637497	-0.0902766880988	0.363853507611	-0.5888671875	-0.3486328125	0.677734375	-64.6875	59.125	87.875
18	12	12	15	27	35	0.862100311895	-0.101933412692	0.368913500785	-0.6064453125	-0.25146484375	0.6357421875	-68.875	59.1875	83.8125
18	12	12	15	27	35	0.852583030653	-0.114507858355	0.37495830164	-0.6640625	-0.13330078125	0.52783203125	-75.5625	60.8125	71.0
18	12	12	15	27	35	0.843134396302	-0.130379719865	0.38051833972	-0.70458984375	-0.11083984375	0.4482421875	-90.125	61.375	51.875
18	12	12	15	27	35	0.834329118064	-0.148505577895	0.385211139374	-0.7294921875	-0.1513671875	0.45068359375	-95.0	62.8125	32.4375
18	12	12	15	27	35	0.827069304598	-0.16553593757	0.390340088775	-0.73779296875	-0.197265625	0.48876953125	-75.375	66.25	11.25
18	12	12	15	27	35	0.821489613322	-0.178897842087	0.397835596971	-0.7470703125	-0.20068359375	0.5224609375	-40.125	74.25	-8.5
18	12	12	15	27	35	0.817294342209	-0.188606386664	0.40815886978	-0.7646484375	-0.20361328125	0.52197265625	-4.4375	83.375	-24.625
18	12	12	15	27	35	0.814058408782	-0.195869643382	0.420365918968	-0.802734375	-0.22705078125	0.51904296875	21.25	88.8125	-36.0625
18	12	12	15	27	35	0.811386256442	-0.202098841125	0.432763752214	-0.84521484375	-0.23486328125	0.50146484375	31.0	88.375	-43.25
18	12	12	15	27	35	0.808680841302	-0.208869034564	0.444167143343	-0.8857421875	-0.2333984375	0.47998046875	25.9375	84.0	-46.875
18	12	12	15	27	35	0.806020722053	-0.216688645459	0.453886413418	-0.9091796875	-0.2568359375	0.470703125	16.5	77.6875	-48.375
18	12	12	15	27	35	0.80343537231	-0.224922840307	0.462297311394	-0.919921875	-0.31640625	0.4658203125	12.0625	72.9375	-46.6875
18	12	12	15	27	35	0.800946524806	-0.232312336032	0.470240209351	-0.9453125	-0.36083984375	0.44970703125	15.5	68.6875	-42.1875
18	12	12	15	27	35	0.798629301292	-0.237501269591	0.478176547411	-0.95361328125	-0.3427734375	0.43212890625	23.0	64.375	-36.6875
18	12	12	15	27	35	0.796450431884	-0.241047114923	0.485817672238	-0.93798828125	-0.302734375	0.42333984375	26.1875	60.25	-31.5
18	12	12	15	27	35	0.794235176107	-0.243849487285	0.492887261533	-0.91455078125	-0.24560546875	0.42578125	23.25	56.9375	-28.8125
18	12	12	15	27	35	0.791849440218	-0.246838752505	0.499109910789	-0.88916015625	-0.205078125	0.4423828125	14.6875	54.6875	-26.125
18	12	12	15	27	35	0.788950106629	-0.2507965332	0.504583825739	-0.8779296875	-0.18115234375	0.458984375	2.3125	54.125	-23.1875
18	12	12	15	27	35	0.785130380966	-0.256053949168	0.509666382731	-0.90234375	-0.1591796875	0.47119140625	-12.8125	55.3125	-19.125
18	12	12	15	27	35	0.78018994088	-0.262952453866	0.514551807356	-0.95947265625	-0.14697265625	0.45703125	-28.125	56.0	-15.5
18	12	12	15	27	35	0.774493310774	-0.271063503282	0.518933101757	-0.99267578125	-0.1796875	0.43115234375	-40.25	53.6875	-9.8125
18	12	12	15	27	35	0.768591634037	-0.27955445393	0.522425015543	-1.00439453125	-0.2412109375	0.40966796875	-46.875	48.1875	-1.0
18	12	12	15	27	35	0.762899166424	-0.286934073235	0.525343877543	-1.00390625	-0.2509765625	0.37890625	-46.625	40.4375	7.625
18	12	12	15	27	35	0.757470129382	-0.293161082306	0.527665533321	-1.0302734375	-0.2392578125	0.3603515625	-46.3125	32.1875	14.9375
18	12	12	15	27	35	0.75229071521	-0.298535812421	0.52938071992	-1.056640625	-0.2373046875	0.32373046875	-46.3125	23.6875	20.5
18	12	12	15	27	36	0.747900110104	-0.302810123743	0.530055052325	-1.03662109375	-0.2861328125	0.31005859375	-43.1875	13.5	28.375
18	12	12	15	27	36	0.744713854656	-0.304819358262	0.53004631701	-1.12353515625	-0.26513671875	0.36669921875	-34.3125	5.6875	31.625
18	12	12	15	27	36	0.742239733793	-0.304342706636	0.530921151688	-1.251953125	-0.15625	0.3359375	-19.1875	1.1875	27.0625
18	12	12	15	27	36	0.740801299881	-0.302680534408	0.53138470106	-1.24609375	-0.1552734375	0.263671875	-9.1875	-9.0	25.5625
18	12	12	15	27	36	0.741603021448	-0.299998259294	0.529498453586	-1.10107421875	-0.2333984375	0.2373046875	-1.8125	-26.375	26.3125
18	12	12	15	27	36	0.745249934044	-0.294071595596	0.526191620098	-0.94189453125	-0.26025390625	0.23388671875	20.4375	-42.3125	26.5
18	12	12	15	27	36	0.751176812266	-0.283636844609	0.522717008227	-0.84814453125	-0.162109375	0.2548828125	45.5625	-52.4375	25.25
18	12	12	15	27	36	0.757466429802	-0.271125373181	0.519667138061	-0.8388671875	0.03125	0.291015625	52.6875	-53.3125	18.1875
18	12	12	15	27	36	0.763028466125	-0.260324486683	0.516193243582	-0.8857421875	0.1552734375	0.376953125	39.375	-47.5	7.75
18	12	12	15	27	36	0.767804362056	-0.252272472245	0.511991651874	-0.9052734375	0.18310546875	0.48681640625	21.875	-39.0	0.375
18	12	12	15	27	36	0.772226639801	-0.246341030528	0.507696900874	-0.955078125	0.2119140625	0.5390625	14.0	-32.25	-11.6875
18	12	12	15	27	36	0.776809823198	-0.242863698162	0.502634469556	-0.9951171875	0.150390625	0.5166015625	7.8125	-33.4375	-22.9375
18	12	12	15	27	36	0.78243188041	-0.23847112542	0.497999977554	-1.05078125	0.046875	0.5322265625	25.1875	-34.0	-28.0
18	12	12	15	27	36	0.788333522965	-0.230591827947	0.495790740713	-1.12744140625	0.06494140625	0.43017578125	52.3125	-35.8125	-27.9375
18	12	12	15	27	36	0.79390927045	-0.221198369809	0.493850996172	-1.1123046875	0.0947265625	0.2919921875	55.6875	-47.3125	-18.5625
18	12	12	15	27	36	0.799501599767	-0.213090554649	0.488563964311	-1.05029296875	0.0205078125	0.28369140625	34.6875	-66.125	-1.0625
18	12	12	15	27	36	0.805027334015	-0.206429785703	0.480550473933	-0.9990234375	-0.0966796875	0.2900390625	17.75	-80.3125	15.4375
18	12	12	15	27	36	0.811139722119	-0.198496980686	0.470972540889	-0.96630859375	-0.1494140625	0.28955078125	20.375	-93.3125	26.5
18	12	12	15	27	36	0.818916698014	-0.185853867888	0.459416112838	-0.92626953125	-0.1806640625	0.30859375	36.375	-104.75	34.0625
18	12	12	15	27	36	0.827741327534	-0.169198359997	0.447594362865	-0.90185546875	-0.1640625	0.32568359375	59.6875	-113.875	35.5
18	12	12	15	27	36	0.837333893005	-0.148508045027	0.436063080014	-0.8525390625	-0.12548828125	0.33056640625	86.0	-119.3125	34.0625
18	12	12	15	27	36	0.847160483337	-0.124763745799	0.424831541467	-0.7939453125	-0.0537109375	0.33984375	105.75	-121.625	31.125
18	12	12	15	27	36	0.856409117945	-0.100405744353	0.414257621231	-0.73681640625	0.0166015625	0.35302734375	113.1875	-116.8125	25.1875
18	12	12	15	27	36	0.864905988251	-0.0769686980371	0.404009367413	-0.70458984375	0.0927734375	0.376953125	110.9375	-110.875	17.9375
18	12	12	15	27	36	0.872427766849	-0.0565219416569	0.394066582437	-0.6552734375	0.1552734375	0.39892578125	96.875	-101.1875	9.0
18	12	12	15	27	36	0.878823193643	-0.0402239536471	0.385332047609	-0.615234375	0.1826171875	0.44384765625	76.125	-91.125	-4.375
18	12	12	15	27	36	0.884679163651	-0.0296032423327	0.376907260628	-0.5869140625	0.16455078125	0.47265625	50.9375	-77.75	-18.375
18	12	12	15	27	36	0.890051100318	-0.0242929871024	0.369583007298	-0.5791015625	0.11962890625	0.521484375	30.9375	-60.8125	-33.375
18	12	12	15	27	36	0.894596661965	-0.0226456987984	0.365322122125	-0.6044921875	0.09765625	0.5537109375	23.3125	-37.8125	-50.4375
18	12	12	15	27	36	0.897973026927	-0.0230108639989	0.365793389775	-0.64501953125	0.0947265625	0.57080078125	26.4375	-8.9375	-69.625
18	12	12	15	27	36	0.899700872278	-0.0245983345677	0.372026921067	-0.72607421875	0.1123046875	0.5703125	34.375	23.5625	-89.0625
18	12	12	15	27	36	0.900023230906	-0.027162450848	0.382593802056	-0.78125	0.13134765625	0.5927734375	42.875	57.5	-107.6875
18	12	12	15	27	36	0.898317461412	-0.0308859574284	0.398282356167	-0.83251953125	0.173828125	0.60986328125	50.6875	90.625	-129.3125
18	12	12	15	27	36	0.894229358089	-0.0362574906966	0.418670250316	-0.88916015625	0.20556640625	0.61865234375	57.125	123.25	-154.125
18	12	12	15	27	36	0.88731134462	-0.043520189084	0.442953733776	-0.96240234375	0.19970703125	0.6298828125	60.8125	153.0625	-179.5
18	12	12	15	27	36	0.877367053292	-0.0523710123643	0.46981314938	-1.0390625	0.1484375	0.59326171875	67.125	176.4375	-207.5625
18	12	12	15	27	36	0.864023650023	-0.062256578343	0.497930555022	-1.0771484375	0.0380859375	0.53369140625	70.375	193.375	-223.0
18	12	12	15	27	36	0.847419529663	-0.0715948651897	0.526066618133	-1.03173828125	-0.10986328125	0.45166015625	78.625	203.875	-229.0
18	12	12	15	27	36	0.828134542089	-0.0784921153542	0.552923851473	-1.01708984375	-0.24462890625	0.35498046875	94.75	206.1875	-229.25
18	12	12	15	27	36	0.807669333239	-0.0813651164758	0.576270116015	-1.0615234375	-0.3173828125	0.2275390625	119.4375	193.75	-225.1875
18	12	12	15	27	36	0.787850210014	-0.0798958727074	0.594061519528	-1.10986328125	-0.42138671875	0.119140625	143.8125	166.9375	-213.6875
18	12	12	15	27	36	0.770338209245	-0.0738538335462	0.605235217723	-1.0849609375	-0.5927734375	0.06640625	166.3125	131.75	-189.75
18	12	12	15	27	36	0.75556689365	-0.0601206390052	0.609934564039	-1.03662109375	-0.7060546875	0.0478515625	207.0625	101.875	-159.4375
18	12	12	15	27	36	0.743200091635	-0.0374163646659	0.608305856869	-1.0986328125	-0.5830078125	0.01513671875	255.75	76.9375	-130.625
18	12	12	15	27	36	0.732593379585	-0.0100104411141	0.601175820325	-1.2353515625	-0.26220703125	0.01708984375	276.9375	53.75	-110.75
18	12	12	15	27	36	0.72280034376	0.0144657727978	0.591631796323	-1.259765625	-0.03759765625	0.08544921875	249.125	35.6875	-101.1875
18	12	12	15	27	36	0.713327737913	0.0333256562763	0.582222408826	-1.216796875	0.09326171875	0.1240234375	204.75	24.375	-96.6875
18	12	12	15	27	36	0.704395233111	0.0465080294282	0.574209371208	-1.15185546875	0.193359375	0.1923828125	157.6875	17.875	-91.8125
18	12	12	15	27	36	0.696178343883	0.0543832109766	0.568368642665	-1.052734375	0.23681640625	0.3076171875	111.5	15.0625	-85.5625
18	12	12	15	27	36	0.690959765757	0.0625037809306	0.563571688801	-0.919921875	0.1904296875	0.44384765625	71.375	17.8125	-76.25
18	12	12	15	27	37	0.686251894415	0.066897809862	0.561062653514	-0.80517578125	0.1806640625	0.54638671875	35.625	24.875	-69.4375
18	12	12	15	27	37	0.681533714693	0.0678115669912	0.561596964794	-0.73388671875	0.109375	0.60107421875	3.375	33.8125	-62.3125
18	12	12	15	27	37	0.676363617474	0.0664705332938	0.56484693765	-0.69921875	-0.02978515625	0.62744140625	-18.375	43.5	-53.9375
18	12	12	15	27	37	0.670552719248	0.0659199833231	0.569292300421	-0.70361328125	-0.1337890625	0.61865234375	-18.375	52.375	-45.125
18	12	12	15	27	37	0.664648061185	0.0675696026937	0.573212410927	-0.7392578125	-0.15380859375	0.5810546875	-5.9375	54.125	-39.6875
18	12	12	15	27	37	0.659441726014	0.0709247765298	0.576187513288	-0.75146484375	-0.12744140625	0.55322265625	2.3125	51.25	-32.75
18	12	12	15	27	37	0.655156646332	0.0746465975837	0.578984157547	-0.75439453125	-0.12109375	0.53857421875	-0.3125	48.75	-25.3125
18	12	12	15	27	37	0.651248749055	0.078125435688	0.582217602365	-0.7607421875	-0.1455078125	0.513671875	-4.75	47.75	-19.625
18	12	12	15	27	37	0.648381702682	0.0814215561873	0.585759126484	-0.83056640625	-0.17822265625	0.50146484375	-11.625	44.25	-10.9375
18	12	12	15	27	37	0.647524389702	0.0846560777185	0.588930420985	-0.87841796875	-0.19873046875	0.4990234375	-19.5625	36.75	3.1875
18	12	12	15	27	37	0.649551488841	0.086794044083	0.591810865984	-0.90380859375	-0.18212890625	0.49169921875	-35.4375	24.125	19.25
18	12	12	15	27	37	0.654504407002	0.0866121191397	0.594931871216	-0.92626953125	-0.20849609375	0.4736328125	-59.0625	10.0	36.1875
18	12	12	15	27	37	0.661827113955	0.085024916512	0.597615906367	-0.98095703125	-0.3134765625	0.45263671875	-71.5	-3.5	54.625
18	12	12	15	27	37	0.671055059473	0.0847211590457	0.597992215541	-1.02880859375	-0.39404296875	0.43896484375	-61.4375	-16.5	72.4375
18	12	12	15	27	37	0.682208103929	0.0877098546431	0.59516965388	-1.04296875	-0.3505859375	0.416015625	-40.75	-28.9375	88.9375
18	12	12	15	27	37	0.695052373831	0.0932067247598	0.590187178587	-1.12353515625	-0.22412109375	0.40234375	-31.8125	-39.8125	99.875
18	12	12	15	27	37	0.708195573148	0.0971075719106	0.58465960486	-1.228515625	-0.1416015625	0.3759765625	-34.9375	-49.5625	106.25
18	12	12	15	27	37	0.722305267788	0.099733548045	0.578381334929	-1.27197265625	-0.14111328125	0.373046875	-44.4375	-57.9375	111.9375
18	12	12	15	27	37	0.73702057501	0.100955033629	0.571549537424	-1.28759765625	-0.12890625	0.38427734375	-54.5	-64.625	115.9375
18	12	12	15	27	37	0.752095572893	0.10010036841	0.564529455745	-1.28466796875	-0.08642578125	0.345703125	-68.8125	-70.6875	117.625
18	12	12	15	27	37	0.767928125832	0.0955866342146	0.557344544708	-1.24658203125	-0.091796875	0.2890625	-93.6875	-80.0	120.5625
18	12	12	15	27	37	0.784428179327	0.0874638640659	0.5494415243	-1.22705078125	-0.138671875	0.2705078125	-116.5	-90.875	123.4375
18	12	12	15	27	37	0.80124685119	0.0770300545595	0.540186991166	-1.234375	-0.1748046875	0.23828125	-130.0625	-101.375	126.6875
18	12	12	15	27	37	0.81815724429	0.0651278558384	0.529079901038	-1.248046875	-0.2001953125	0.22509765625	-138.4375	-112.75	130.25
18	12	12	15	27	37	0.83487699861	0.0522484801002	0.516014778933	-1.2578125	-0.23876953125	0.22412109375	-143.375	-123.0625	134.1875
18	12	12	15	27	37	0.851018828318	0.0396120791493	0.500857814328	-1.24462890625	-0.298828125	0.21875	-140.5625	-131.5	138.1875
18	12	12	15	27	37	0.866533167436	0.0295415970303	0.482919660545	-1.1923828125	-0.34521484375	0.2353515625	-120.375	-141.5625	139.75
18	12	12	15	27	37	0.881372253941	0.023926448999	0.462171101582	-1.10888671875	-0.3125	0.2646484375	-89.625	-150.5	139.75
18	12	12	15	27	37	0.895126421745	0.0222179350505	0.439902906343	-1.0224609375	-0.23388671875	0.28466796875	-65.3125	-153.1875	140.75
18	12	12	15	27	37	0.907666875809	0.0220340086186	0.416815082705	-0.93408203125	-0.173828125	0.28125	-54.25	-153.625	138.375
18	12	12	15	27	37	0.918982533293	0.022950148281	0.39308232694	-0.8623046875	-0.10595703125	0.32666015625	-44.5625	-153.6875	129.625
18	12	12	15	27	37	0.928898437939	0.024354742853	0.369532865244	-0.81396484375	-0.02197265625	0.3671875	-37.0	-149.125	117.8125
18	12	12	15	27	37	0.937198775581	0.0252092675729	0.347375161641	-0.76708984375	0.0322265625	0.38818359375	-36.375	-138.75	105.25
18	12	12	15	27	37	0.943989824352	0.0250249468501	0.327094366268	-0.720703125	0.04541015625	0.41455078125	-37.8125	-125.3125	92.5
18	12	12	15	27	37	0.949397408726	0.0242934401873	0.309100455046	-0.67138671875	0.05126953125	0.421875	-35.625	-110.3125	78.9375
18	12	12	15	27	37	0.952910483485	0.0237434139172	0.295968673739	-0.615234375	0.0244140625	0.42041015625	-26.5625	-95.0	65.3125
18	12	12	15	27	37	0.95553153653	0.0243536942239	0.28522509551	-0.56640625	0.0341796875	0.42529296875	-15.8125	-79.0	53.9375
18	12	12	15	27	37	0.957204800318	0.0259413365728	0.27754178211	-0.552734375	0.0546875	0.41455078125	-6.4375	-61.875	42.75
18	12	12	15	27	37	0.958058306899	0.0278334982127	0.272963605279	-0.55322265625	0.09619140625	0.42529296875	-2.5625	-43.875	30.25
18	12	12	15	27	37	0.958094762046	0.0286872993669	0.271918975914	-0.58154296875	0.13916015625	0.43212890625	-5.3125	-24.875	15.5
18	12	12	15	27	37	0.957311364193	0.0275278899038	0.274668524539	-0.63671875	0.13427734375	0.4404296875	-10.3125	-4.8125	-0.4375
18	12	12	15	27	37	0.955635069005	0.0247210144958	0.281331248917	-0.6962890625	0.103515625	0.44873046875	-11.875	16.25	-15.25
18	12	12	15	27	37	0.952910179953	0.0213629620153	0.291940135198	-0.72705078125	0.05517578125	0.45654296875	-6.3125	39.0625	-27.875
18	12	12	15	27	37	0.948805538044	0.0188601422487	0.30688930494	-0.78955078125	0.0439453125	0.51513671875	5.5	64.625	-39.125
18	12	12	15	27	37	0.942937006864	0.0177014326768	0.326560913175	-0.8359375	0.04638671875	0.50390625	19.25	92.25	-52.375
18	12	12	15	27	37	0.936257755273	0.0173347155941	0.347182613729	-0.85400390625	0.00927734375	0.54296875	28.6875	117.6875	-62.875
18	12	12	15	27	37	0.927579883276	0.0167851857538	0.371410382953	-0.88525390625	0.01806640625	0.58349609375	32.9375	141.8125	-74.8125
18	12	12	15	27	37	0.916534769152	0.0153203401077	0.399122326551	-0.943359375	0.03564453125	0.5771484375	33.375	165.8125	-89.5625
18	12	12	15	27	37	0.903177855675	0.0116582395373	0.429096460458	-0.994140625	-0.02490234375	0.52783203125	26.3125	183.1875	-101.0
18	12	12	15	27	37	0.88808170633	0.00604261779565	0.459422062099	-1.00732421875	-0.130859375	0.4814453125	16.75	189.625	-104.75
18	12	12	15	27	37	0.872346492939	-0.000793486174657	0.487871922618	-1.0068359375	-0.22998046875	0.37255859375	10.75	181.6875	-104.9375
18	12	12	15	27	38	0.857223291113	-0.00848433761498	0.512600484105	-1.03369140625	-0.25927734375	0.2529296875	5.6875	159.875	-105.5625
18	12	12	15	27	38	0.843358712071	-0.0162360438164	0.533164822316	-1.07275390625	-0.33203125	0.189453125	6.3125	135.125	-103.875
18	12	12	15	27	38	0.830317405944	-0.0222793393494	0.550940594432	-1.072265625	-0.46435546875	0.17431640625	14.6875	120.4375	-94.0
18	12	12	15	27	38	0.818075797631	-0.0229498246594	0.566177057288	-1.06787109375	-0.5224609375	0.1865234375	45.8125	109.3125	-83.3125
18	12	12	15	27	38	0.805920827849	-0.0192263753993	0.579415814812	-1.09619140625	-0.4501953125	0.19287109375	86.875	93.5	-78.625
18	12	12	15	27	38	0.79649365735	-0.009827226518	0.587497237489	-1.119140625	-0.3056640625	0.22412109375	113.3125	75.0625	-77.6875
18	12	12	15	27	38	0.788084503342	0.00170898126499	0.592772358771	-1.1220703125	-0.20166015625	0.2900390625	126.125	62.0625	-74.625
18	12	12	15	27	38	0.780052649218	0.0142826541406	0.596209254895	-1.1064453125	-0.109375	0.33203125	132.5	54.4375	-72.625
18	12	12	15	27	38	0.772008534634	0.0271008688628	0.598477520721	-1.07666015625	-0.00146484375	0.3740234375	132.5625	50.625	-72.0625
18	12	12	15	27	38	0.763694460236	0.0383922486803	0.600420588662	-1.03564453125	0.087890625	0.392578125	121.625	48.9375	-73.1875
18	12	12	15	27	38	0.754919089136	0.0468772526242	0.602873208554	-0.98193359375	0.1396484375	0.42138671875	101.3125	50.25	-75.6875
18	12	12	15	27	38	0.747154877235	0.0549333705997	0.604999521539	-0.9365234375	0.1533203125	0.4228515625	78.125	54.4375	-78.5625
18	12	12	15	27	38	0.738787429008	0.0596327923117	0.60865732337	-0.9150390625	0.146484375	0.423828125	53.4375	59.5625	-81.375
18	12	12	15	27	38	0.729898504666	0.061587856766	0.613803258314	-0.91650390625	0.10498046875	0.41748046875	32.5625	64.4375	-81.5
18	12	12	15	27	38	0.720539556884	0.0615861425579	0.619950891933	-0.9150390625	0.025390625	0.40625	19.375	67.375	-79.9375
18	12	12	15	27	38	0.710913824921	0.0615266708612	0.626314652487	-0.927734375	-0.0625	0.38720703125	18.3125	69.125	-74.25
18	12	12	15	27	38	0.701253960987	0.0632953570844	0.632160089994	-0.92822265625	-0.10888671875	0.361328125	27.5625	69.3125	-65.5
18	12	12	15	27	38	0.692144441156	0.0671392315055	0.636846128662	-0.9072265625	-0.12744140625	0.32470703125	38.5	65.3125	-55.875
18	12	12	15	27	38	0.684400972419	0.0722060421271	0.64002752134	-0.90478515625	-0.13671875	0.341796875	42.1875	58.6875	-44.375
18	12	12	15	27	38	0.678230344752	0.0784310648854	0.642341266034	-0.9453125	-0.099609375	0.3466796875	38.9375	53.125	-32.0625
18	12	12	15	27	38	0.673834118195	0.0844734075709	0.644536982622	-1.00634765625	-0.05126953125	0.3515625	24.5	47.5	-19.8125
18	12	12	15	27	38	0.671600774783	0.0891154349889	0.646697283361	-1.0673828125	-0.05029296875	0.36767578125	3.25	39.25	-7.0625
18	12	12	15	27	38	0.67182639611	0.0921647913261	0.648632607564	-1.1572265625	-0.05029296875	0.38671875	-19.0	29.375	6.0
18	12	12	15	27	38	0.674045991373	0.0936327583779	0.650607282627	-1.23095703125	-0.0625	0.36328125	-38.75	18.75	18.5625
18	12	12	15	27	38	0.67835259461	0.0933848722111	0.651740957824	-1.1923828125	-0.1435546875	0.35546875	-52.5	6.125	33.25
18	12	12	15	27	38	0.684654259503	0.0931427654455	0.651205874533	-1.1865234375	-0.16796875	0.37158203125	-54.875	-6.0	46.25
18	12	12	15	27	38	0.692529172735	0.0938753629179	0.649131654507	-1.2138671875	-0.12158203125	0.34521484375	-53.125	-18.0	56.8125
18	12	12	15	27	38	0.702347646088	0.0934469667299	0.645705722427	-1.2060546875	-0.07275390625	0.314453125	-64.125	-33.625	64.0
18	12	12	15	27	38	0.714197334708	0.0898468914358	0.641013623545	-1.11474609375	-0.06640625	0.2880859375	-84.3125	-52.25	69.75
18	12	12	15	27	38	0.727249119434	0.0818498589309	0.635511358082	-1.0576171875	-0.0615234375	0.28125	-106.625	-70.9375	74.0
18	12	12	15	27	38	0.741781033205	0.070314469699	0.628679720399	-1.06005859375	-0.0166015625	0.26708984375	-130.9375	-86.0	76.0
18	12	12	15	27	38	0.757276133842	0.0543832542317	0.620616081962	-1.07470703125	0.0009765625	0.23583984375	-160.6875	-100.0625	76.125
18	12	12	15	27	38	0.773272943363	0.0343636172637	0.610854496581	-1.08251953125	-0.04931640625	0.24755859375	-186.3125	-113.5	75.625
18	12	12	15	27	38	0.788966822051	0.0121464024128	0.599019061706	-1.10693359375	-0.09423828125	0.240234375	-196.4375	-124.125	72.75
18	12	12	15	27	38	0.803900424833	-0.0102539876526	0.585026616963	-1.15673828125	-0.1201171875	0.22705078125	-193.0	-132.75	68.375
18	12	12	15	27	38	0.817897702816	-0.0314341281306	0.569049274877	-1.216796875	-0.13720703125	0.21728515625	-179.625	-139.125	63.5625
18	12	12	15	27	38	0.831019974721	-0.0502945618193	0.551348030235	-1.234375	-0.15380859375	0.18701171875	-159.5625	-144.0	58.9375
18	12	12	15	27	38	0.843454423427	-0.0657356114068	0.532232619747	-1.1982421875	-0.18017578125	0.1708984375	-133.6875	-148.0	55.5
18	12	12	15	27	38	0.855499251565	-0.0768460015497	0.511920107226	-1.1337890625	-0.19140625	0.158203125	-102.5	-150.6875	53.4375
18	12	12	15	27	38	0.867106843772	-0.0828286630296	0.491173361385	-1.06640625	-0.1796875	0.15087890625	-69.0	-150.5	53.0
18	12	12	15	27	38	0.878210784785	-0.0842320602587	0.470478782952	-0.99853515625	-0.13427734375	0.16943359375	-39.375	-147.5625	53.25
18	12	12	15	27	38	0.888518700621	-0.0820340134392	0.450515664579	-0.95703125	-0.0732421875	0.19189453125	-16.9375	-141.125	53.25
18	12	12	15	27	38	0.89772661897	-0.0777606549203	0.431834092277	-0.93505859375	0.013671875	0.22509765625	-4.875	-131.3125	52.1875
18	12	12	15	27	38	0.905562903713	-0.0734900064755	0.414876722603	-0.9169921875	0.091796875	0.25048828125	-3.75	-119.1875	49.1875
18	12	12	15	27	38	0.912018898914	-0.0706201222088	0.399733085865	-0.89794921875	0.123046875	0.2646484375	-10.9375	-105.625	44.25
18	12	12	15	27	38	0.91570069001	-0.0685463188163	0.390036489079	-0.8720703125	0.1171875	0.27685546875	-19.375	-91.6875	39.3125
18	12	12	15	27	38	0.918356791527	-0.0681778902124	0.382089160904	-0.83154296875	0.07373046875	0.27685546875	-25.1875	-78.1875	36.625
18	12	12	15	27	38	0.920066899675	-0.0688493739441	0.375924906136	-0.78662109375	0.0595703125	0.28515625	-28.8125	-64.3125	35.25
18	12	12	15	27	38	0.920668940348	-0.0705577628641	0.372137266594	-0.79345703125	0.05224609375	0.26611328125	-31.875	-50.5	32.4375
18	12	12	15	27	38	0.920353133591	-0.0733694433331	0.370204387533	-0.81591796875	0.048828125	0.28173828125	-37.125	-38.4375	30.75
18	12	12	15	27	39	0.918883850333	-0.0784353492545	0.370568875739	-0.8935546875	0.02978515625	0.27294921875	-46.125	-26.6875	26.3125
18	12	12	15	27	39	0.916578739593	-0.0851453247474	0.372808346636	-0.9921875	-0.06396484375	0.23291015625	-46.5625	-19.8125	20.9375
18	12	12	15	27	39	0.914296673361	-0.0907643469716	0.375631332389	-1.04345703125	-0.18798828125	0.2255859375	-30.1875	-19.0625	18.8125
18	12	12	15	27	39	0.912702925863	-0.0921675528692	0.378558386023	-1.08740234375	-0.25537109375	0.27783203125	0.875	-20.3125	16.0
18	12	12	15	27	39	0.911317334536	-0.0879576878142	0.383204971615	-1.13916015625	-0.20849609375	0.35791015625	35.375	-12.5	12.1875
18	12	12	15	27	39	0.909344418507	-0.0803260340149	0.390460212457	-1.09619140625	-0.1689453125	0.4150390625	57.125	6.9375	10.125
18	12	12	15	27	39	0.906653852812	-0.0723296630929	0.399735834258	-1.06494140625	-0.17236328125	0.5029296875	65.4375	27.375	2.4375
18	12	12	15	27	39	0.903139787603	-0.0644576652953	0.410978655713	-1.0126953125	-0.14501953125	0.58935546875	69.625	49.0	-9.3125
18	12	12	15	27	39	0.898765661214	-0.0580459180859	0.423594817577	-0.8974609375	-0.169921875	0.63134765625	67.4375	69.25	-17.625
18	12	12	15	27	39	0.893704316585	-0.0537125938119	0.436964158068	-0.76611328125	-0.2490234375	0.62060546875	63.75	83.6875	-24.125
18	12	12	15	27	39	0.888100163443	-0.0501730813986	0.450642165409	-0.69921875	-0.28466796875	0.60546875	62.25	90.5625	-25.8125
18	12	12	15	27	39	0.881942100021	-0.0470605134692	0.464501306745	-0.70751953125	-0.2265625	0.54248046875	55.5625	91.6875	-27.125
18	12	12	15	27	39	0.87547424896	-0.047121670515	0.477686779081	-0.73876953125	-0.16748046875	0.44970703125	31.5	84.4375	-30.4375
18	12	12	15	27	39	0.869196508361	-0.0526156875146	0.489167192276	-0.7822265625	-0.158203125	0.39111328125	-2.8125	73.5625	-35.875
18	12	12	15	27	39	0.863025987276	-0.0623815375201	0.499357493593	-0.83056640625	-0.193359375	0.37109375	-27.4375	66.25	-41.875
18	12	12	15	27	39	0.856949464842	-0.0733656165769	0.508737449391	-0.8837890625	-0.25048828125	0.384765625	-30.875	63.0625	-46.1875
18	12	12	15	27	39	0.850982382756	-0.0819731272444	0.517901701168	-0.9189453125	-0.28515625	0.40185546875	-13.0	63.9375	-49.375
18	12	12	15	27	39	0.845183841621	-0.0863678151147	0.527118340163	-0.9423828125	-0.2763671875	0.4326171875	14.8125	66.5625	-52.6875
18	12	12	15	27	39	0.839521205797	-0.0870406601329	0.536282776948	-0.9453125	-0.23095703125	0.43212890625	37.8125	68.1875	-56.4375
18	12	12	15	27	39	0.833886474921	-0.0860010278996	0.545120780817	-0.955078125	-0.18359375	0.4365234375	46.8125	68.5625	-59.75
18	12	12	15	27	39	0.828229932262	-0.0844771336318	0.553496132784	-0.94970703125	-0.15673828125	0.453125	47.75	68.875	-60.8125
18	12	12	15	27	39	0.822179626755	-0.083560795028	0.561853263866	-0.92919921875	-0.13427734375	0.44189453125	40.9375	71.25	-61.25
18	12	12	15	27	39	0.815643746855	-0.0839875623492	0.570334144325	-0.91650390625	-0.1240234375	0.43994140625	28.875	73.5625	-59.625
18	12	12	15	27	39	0.808682817683	-0.0859404790775	0.578938525604	-0.90283203125	-0.12255859375	0.42431640625	14.625	74.6875	-56.5625
18	12	12	15	27	39	0.801615286712	-0.0890548011355	0.587310004473	-0.89306640625	-0.1357421875	0.3955078125	3.8125	73.0625	-53.0
18	12	12	15	27	39	0.794713970733	-0.0927776678583	0.595180946899	-0.85693359375	-0.1748046875	0.38330078125	-2.375	69.9375	-47.375
18	12	12	15	27	39	0.788362043747	-0.0961953066697	0.602197268784	-0.8291015625	-0.2021484375	0.390625	-2.8125	66.625	-41.4375
18	12	12	15	27	39	0.78238945907	-0.098271729529	0.608735378008	-0.82275390625	-0.19482421875	0.39111328125	2.0	64.5	-37.0
18	12	12	15	27	39	0.776856393389	-0.099182246956	0.614746825441	-0.82177734375	-0.17626953125	0.38330078125	6.3125	61.3125	-33.5
18	12	12	15	27	39	0.771928704132	-0.0996726159443	0.620069874696	-0.8173828125	-0.15087890625	0.39697265625	4.4375	57.8125	-29.5
18	12	12	15	27	39	0.767496837236	-0.100102975431	0.624850097247	-0.8349609375	-0.138671875	0.40625	0.5625	53.875	-25.875
18	12	12	15	27	39	0.7634488405	-0.100527681508	0.629289858135	-0.88232421875	-0.12548828125	0.40234375	-3.75	50.1875	-22.5
18	12	12	15	27	39	0.759772267913	-0.10058681696	0.633367354124	-0.9365234375	-0.146484375	0.39111328125	-3.75	46.5	-18.375
18	12	12	15	27	39	0.756804106782	-0.0996742565025	0.636743321393	-0.96533203125	-0.1708984375	0.39208984375	1.0625	41.5625	-12.75
18	12	12	15	27	39	0.754716012712	-0.0970479951647	0.639296038588	-1.00634765625	-0.17626953125	0.40283203125	9.0	36.8125	-7.25
18	12	12	15	27	39	0.753314181795	-0.0924705060298	0.641250915082	-1.07177734375	-0.14794921875	0.41455078125	19.1875	33.3125	-3.9375
18	12	12	15	27	39	0.752708550315	-0.0863673855576	0.642475689314	-1.0771484375	-0.119140625	0.42041015625	24.875	28.4375	1.5
18	12	12	15	27	39	0.752899241768	-0.0800203409775	0.642909421446	-1.123046875	-0.07861328125	0.43359375	23.375	22.0	3.5625
18	12	12	15	27	39	0.753569744734	-0.0739775255643	0.642847606637	-1.18505859375	-0.0576171875	0.39697265625	19.5	14.5625	5.0
18	12	12	15	27	39	0.754899438525	-0.0690933185972	0.64210398555	-1.181640625	-0.0927734375	0.3203125	11.6875	2.3125	10.3125
18	12	12	15	27	39	0.757833398652	-0.0657366760912	0.639605040631	-1.162109375	-0.14404296875	0.27587890625	1.6875	-16.6875	18.125
18	12	12	15	27	39	0.762535623005	-0.063722659923	0.635273414251	-1.14892578125	-0.12109375	0.2353515625	-12.125	-36.0	25.875
18	12	12	15	27	39	0.768644164128	-0.0639061732583	0.629478858465	-1.16357421875	-0.10400390625	0.20263671875	-34.25	-54.25	35.0625
18	12	12	15	27	39	0.77608820746	-0.0672019753373	0.621969235865	-1.18505859375	-0.125	0.1962890625	-61.125	-72.1875	45.0625
18	12	12	15	27	39	0.784692130881	-0.0727561465472	0.612506653188	-1.21923828125	-0.1611328125	0.1962890625	-80.4375	-89.5	54.375
18	12	12	15	27	39	0.794907139009	-0.0791061700189	0.600071572111	-1.26171875	-0.22119140625	0.20654296875	-88.1875	-104.75	63.625
18	12	12	15	27	39	0.806071536662	-0.0839886744243	0.585418151456	-1.29150390625	-0.28564453125	0.19140625	-82.3125	-119.125	72.375
18	12	12	15	27	39	0.818208966788	-0.0852084832253	0.568565201464	-1.267578125	-0.36669921875	0.19677734375	-60.5625	-132.1875	81.0625
18	12	12	15	27	40	0.831459511872	-0.0794714641358	0.549708145935	-1.1904296875	-0.427734375	0.2109375	-16.5625	-143.9375	89.625
18	12	12	15	27	40	0.84532268329	-0.0656164260623	0.529570337225	-1.08154296875	-0.38720703125	0.21484375	33.5625	-151.1875	98.4375
18	12	12	15	27	40	0.859181447933	-0.0448634814031	0.508391750485	-0.9560546875	-0.33056640625	0.19482421875	73.3125	-156.75	107.625
18	12	12	15	27	40	0.872766879352	-0.0191655920076	0.485670750333	-0.85009765625	-0.25341796875	0.19921875	102.4375	-164.0	112.5
18	12	12	15	27	40	0.885290352796	0.00885046202119	0.461933079837	-0.79541015625	-0.10009765625	0.24560546875	115.25	-166.125	113.3125
18	12	12	15	27	40	0.89616063193	0.035463106331	0.438070075968	-0.765625	0.037109375	0.2880859375	105.8125	-161.9375	111.1875
18	12	12	15	27	40	0.905578892681	0.0567054995484	0.414395733514	-0.73486328125	0.13427734375	0.35400390625	74.625	-154.5625	103.8125
18	12	12	15	27	40	0.913763728892	0.0707449673871	0.391752545894	-0.7060546875	0.185546875	0.4267578125	35.5	-142.4375	91.4375
18	12	12	15	27	40	0.920789750246	0.0780650994673	0.371099143676	-0.671875	0.166015625	0.4814453125	2.5	-126.0625	76.0625
18	12	12	15	27	40	0.926705292024	0.0808166122144	0.352870721459	-0.6201171875	0.0966796875	0.52490234375	-17.1875	-107.9375	62.375
18	12	12	15	27	40	0.931257884678	0.0809364852254	0.338334040426	-0.552734375	0.048828125	0.5537109375	-19.1875	-88.625	50.9375
18	12	12	15	27	40	0.934538098771	0.0813623725205	0.327158527164	-0.505859375	0.041015625	0.56103515625	-10.625	-67.4375	40.1875
18	12	12	15	27	40	0.93640560718	0.0820369686493	0.320212751142	-0.4990234375	0.0888671875	0.55029296875	-5.0	-44.3125	28.4375
18	12	12	15	27	40	0.936949969911	0.0814261407075	0.31795259891	-0.53125	0.16357421875	0.52392578125	-9.875	-20.0	13.1875
18	12	12	15	27	40	0.936490064634	0.0773338272757	0.320321961754	-0.61181640625	0.18310546875	0.49609375	-22.4375	3.375	-6.375
18	12	12	15	27	40	0.935099315202	0.0694610326827	0.326979571249	-0.6708984375	0.14208984375	0.4697265625	-33.8125	25.375	-25.0
18	12	12	15	27	40	0.932683692136	0.0593304024055	0.337304324787	-0.71630859375	0.09228515625	0.48583984375	-36.5	47.625	-40.25
18	12	12	15	27	40	0.928665555204	0.0492562013178	0.351995679058	-0.77783203125	0.11962890625	0.5205078125	-29.75	73.125	-55.875
18	12	12	15	27	40	0.922696158737	0.0397961166565	0.371349039476	-0.833984375	0.14404296875	0.5087890625	-18.0625	99.625	-74.9375
18	12	12	15	27	40	0.915773948407	0.0308859306735	0.392178072287	-0.88818359375	0.1376953125	0.521484375	-4.3125	122.5	-95.9375
18	12	12	15	27	40	0.906880505591	0.0228276557471	0.41614694354	-0.9609375	0.11865234375	0.5419921875	12.75	142.1875	-118.3125
18	12	12	15	27	40	0.895731031238	0.0159919270995	0.44264677605	-1.06103515625	0.05908203125	0.54248046875	31.8125	160.0625	-139.1875
18	12	12	15	27	40	0.882155923057	0.00994889749245	0.470711027373	-1.1181640625	-0.05810546875	0.50439453125	45.5	173.875	-151.75
18	12	12	15	27	40	0.866929325329	0.00524930803199	0.498134916849	-1.07861328125	-0.23974609375	0.427734375	56.4375	175.4375	-150.9375
18	12	12	15	27	40	0.851403622102	0.00286873397654	0.522658915769	-1.0146484375	-0.39208984375	0.3310546875	67.875	162.0	-140.9375
18	12	12	15	27	40	0.836985334157	0.00305179513657	0.542609175283	-0.974609375	-0.47021484375	0.22216796875	80.0	136.625	-128.75
18	12	12	15	27	40	0.824562312599	0.00524926781283	0.557582110118	-0.9638671875	-0.46435546875	0.169921875	84.6875	107.0625	-112.125
18	12	12	15	27	40	0.812750432275	0.00622563413127	0.570316914928	-0.9765625	-0.4365234375	0.119140625	81.4375	81.1875	-93.8125
18	12	12	15	27	40	0.802834716112	0.00848430210139	0.579801335691	-1.01220703125	-0.36083984375	0.10107421875	76.125	60.3125	-78.625
18	12	12	15	27	40	0.794736411665	0.0117806549502	0.586652200654	-1.07421875	-0.2421875	0.126953125	68.875	45.125	-68.9375
18	12	12	15	27	40	0.787986539683	0.0150761173743	0.591935976905	-1.1220703125	-0.11474609375	0.173828125	56.0	36.75	-63.0625
18	12	12	15	27	40	0.781960168831	0.0169686150133	0.596770320089	-1.16259765625	-0.0107421875	0.236328125	37.25	35.125	-62.125
18	12	12	15	27	40	0.776268142233	0.0174565724704	0.601580343596	-1.1796875	0.064453125	0.30615234375	20.6875	38.375	-63.0
18	12	12	15	27	40	0.770706476646	0.0168460432054	0.606518591782	-1.1484375	0.0654296875	0.369140625	9.625	43.0	-60.9375
18	12	12	15	27	40	0.765421845337	0.016358297811	0.610933592502	-1.06982421875	0.00732421875	0.43017578125	10.8125	46.3125	-56.1875
18	12	12	15	27	40	0.760150251228	0.0181278805697	0.614577876957	-0.966796875	-0.0380859375	0.47314453125	26.6875	50.5	-50.8125
18	12	12	15	27	40	0.754463131158	0.0228273773201	0.618048189152	-0.89453125	-0.0126953125	0.462890625	43.5	55.75	-46.5
18	12	12	15	27	40	0.74815479333	0.0286883211932	0.622109297024	-0.837890625	0.04296875	0.41845703125	45.8125	60.8125	-44.4375
18	12	12	15	27	40	0.741504541871	0.0330832615817	0.627117028579	-0.8203125	0.05712890625	0.37841796875	31.4375	62.8125	-43.125
18	12	12	15	27	40	0.735011401232	0.0350354213841	0.632773891095	-0.798828125	0.017578125	0.35498046875	12.75	61.9375	-38.9375
18	12	12	15	27	40	0.728898166279	0.0354011837583	0.638442038124	-0.77978515625	-0.0556640625	0.3427734375	2.3125	58.75	-33.4375
18	12	12	15	27	40	0.723429351112	0.0361348444025	0.643468800154	-0.77197265625	-0.103515625	0.3525390625	2.5	55.5	-25.6875
18	12	12	15	27	40	0.718713936217	0.0383924472085	0.647666545834	-0.80517578125	-0.10986328125	0.36767578125	7.5625	52.9375	-17.5
18	12	12	15	27	40	0.714794637709	0.041504598552	0.651378052568	-0.876953125	-0.06884765625	0.38330078125	5.8125	50.5	-11.1875
18	12	12	15	27	40	0.711870711926	0.0437632942168	0.654984533111	-0.9814453125	-0.0390625	0.3818359375	-7.5	45.625	-6.4375
18	12	12	15	27	40	0.710178741149	0.0440695359785	0.658540475999	-1.0810546875	-0.02001953125	0.38623046875	-28.0	38.625	-1.6875
18	12	12	15	27	40	0.70987698997	0.0421775580455	0.661534550068	-1.14208984375	-0.099609375	0.37255859375	-44.1875	27.6875	5.875
18	12	12	15	27	40	0.711149782141	0.0398575922872	0.662991068029	-1.19189453125	-0.2099609375	0.375	-45.25	15.0625	16.625
18	12	12	15	27	40	0.713830753275	0.039735256125	0.662376343269	-1.201171875	-0.28515625	0.35009765625	-28.875	2.5	29.0
18	12	12	15	27	40	0.718161089081	0.042970032867	0.659199367846	-1.14892578125	-0.31884765625	0.3388671875	-5.8125	-11.25	42.875
18	12	12	15	27	40	0.724085664394	0.0493791875997	0.653709640535	-1.13330078125	-0.27587890625	0.3408203125	12.4375	-23.875	53.4375
18	12	12	15	27	40	0.731217182338	0.0578625950632	0.64662060348	-1.14404296875	-0.19140625	0.31884765625	21.25	-35.25	60.6875
18	12	12	15	27	41	0.739652932511	0.066042620315	0.638269575447	-1.09326171875	-0.12841796875	0.283203125	15.6875	-48.3125	67.125
18	12	12	15	27	41	0.749727362816	0.0719635724791	0.62862835705	-0.9931640625	-0.126953125	0.29248046875	-1.9375	-61.5	74.5625
18	12	12	15	27	41	0.761330688129	0.0754433360481	0.617951726659	-0.947265625	-0.05908203125	0.3359375	-25.0625	-70.5	80.6875
18	12	12	15	27	41	0.773639645849	0.0750140532346	0.607680971525	-0.99560546875	0.08447265625	0.34716796875	-64.5	-75.4375	83.3125
18	12	12	15	27	41	0.786098615541	0.0654929586517	0.598531176644	-1.09716796875	0.13720703125	0.330078125	-121.0625	-82.625	82.3125
18	12	12	15	27	41	0.799218943887	0.0477919988593	0.588702208171	-1.2080078125	0.10498046875	0.33740234375	-175.0	-93.5	78.375
18	12	12	15	27	41	0.812179015517	0.0250258076328	0.577241616545	-1.30517578125	-0.0048828125	0.33642578125	-204.0	-104.6875	73.1875
18	12	12	15	27	41	0.824495349177	0.00195320189322	0.563498746195	-1.3525390625	-0.15673828125	0.34423828125	-198.4375	-114.25	68.25
18	12	12	15	27	41	0.836168155267	-0.0159310817231	0.547577525432	-1.35302734375	-0.26904296875	0.34130859375	-158.4375	-121.9375	65.875
18	12	12	15	27	41	0.847514273273	-0.0252087428781	0.530116057859	-1.2841796875	-0.3017578125	0.30029296875	-98.9375	-127.4375	66.625
18	12	12	15	27	41	0.858928227001	-0.0262463855607	0.511377251692	-1.166015625	-0.2646484375	0.24462890625	-45.125	-133.8125	69.1875
18	12	12	15	27	41	0.870677241664	-0.0212404963266	0.49103388778	-1.0361328125	-0.21826171875	0.20703125	-7.8125	-142.625	73.0625
18	12	12	15	27	41	0.882458756672	-0.0125123838095	0.469305946884	-0.91748046875	-0.1533203125	0.21875	14.6875	-149.4375	75.375
18	12	12	15	27	41	0.89366610767	-0.00225842811173	0.446985650329	-0.82861328125	-0.05859375	0.24365234375	22.25	-150.8125	76.4375
18	12	12	15	27	41	0.904103699441	0.00714151585435	0.424340326662	-0.7685546875	0.03759765625	0.27685546875	16.6875	-149.75	74.6875
18	12	12	15	27	41	0.913506452947	0.014405153207	0.402062475315	-0.74560546875	0.11181640625	0.3154296875	4.25	-144.875	69.8125
18	12	12	15	27	41	0.921711627891	0.0190433764586	0.380928565636	-0.728515625	0.1533203125	0.34912109375	-8.5	-134.875	62.3125
18	12	12	15	27	41	0.928603012438	0.0214847022728	0.361760881735	-0.71728515625	0.158203125	0.36865234375	-17.125	-121.3125	52.625
18	12	12	15	27	41	0.934241047621	0.0227670136393	0.344984346083	-0.6884765625	0.1328125	0.37109375	-18.4375	-105.5	43.0625
18	12	12	15	27	41	0.937899610184	0.0244759692623	0.333202783548	-0.65185546875	0.09716796875	0.384765625	-11.3125	-89.25	35.1875
18	12	12	15	27	41	0.940524825059	0.0271005920129	0.324291543613	-0.6328125	0.0927734375	0.3935546875	-0.8125	-72.0625	28.25
18	12	12	15	27	41	0.942052563268	0.030579780627	0.318737753362	-0.6328125	0.12353515625	0.388671875	7.3125	-53.4375	20.0625
18	12	12	15	27	41	0.942533241526	0.0337534569722	0.316720955205	-0.66015625	0.16357421875	0.39404296875	8.5625	-33.75	9.4375
18	12	12	15	27	41	0.942002228062	0.0350969533555	0.318497221929	-0.72412109375	0.171875	0.39208984375	4.375	-14.375	-3.9375
18	12	12	15	27	41	0.940402916738	0.0344861198129	0.324108488861	-0.7880859375	0.14501953125	0.39599609375	0.5625	5.9375	-15.625
18	12	12	15	27	41	0.937789533266	0.0325333130194	0.333146008368	-0.82373046875	0.0771484375	0.396484375	2.9375	26.375	-26.125
18	12	12	15	27	41	0.933925411135	0.0308846649261	0.345651892246	-0.8662109375	0.0546875	0.4541015625	11.6875	48.4375	-33.6875
18	12	12	15	27	41	0.928393759526	0.0299698445712	0.362262785193	-0.9052734375	0.0595703125	0.45068359375	21.5	72.875	-43.6875
18	12	12	15	27	41	0.921459311891	0.0288089551045	0.381596583291	-0.919921875	0.0283203125	0.4765625	26.875	93.6875	-52.5625
18	12	12	15	27	41	0.914124391448	0.0280780729211	0.400661892726	-0.9384765625	0.005859375	0.52392578125	30.75	110.6875	-61.25
18	12	12	15	27	41	0.905147597772	0.0268571679156	0.422206887436	-1.01123046875	0.01806640625	0.53955078125	33.75	127.3125	-74.375
18	12	12	15	27	41	0.894523484199	0.0240492837103	0.445583175343	-1.05517578125	-0.0390625	0.50537109375	29.9375	141.3125	-84.0625
18	12	12	15	27	41	0.882809744576	0.0200818921362	0.469147182245	-1.0205078125	-0.20361328125	0.4619140625	24.25	146.0	-82.5625
18	12	12	15	27	41	0.870699748293	0.0164801214188	0.491534880687	-0.98388671875	-0.3125	0.41650390625	25.3125	141.875	-77.125
18	12	12	15	27	41	0.858854941773	0.0140385641822	0.511797220295	-0.97216796875	-0.31787109375	0.33056640625	29.4375	130.125	-70.75
18	12	12	15	27	41	0.848165123013	0.0108034849434	0.528943505759	-0.955078125	-0.27392578125	0.251953125	18.875	111.125	-64.1875
18	12	12	15	27	41	0.837927313057	0.00311292926616	0.544579508093	-0.93505859375	-0.28076171875	0.212890625	-3.25	91.875	-55.375
18	12	12	15	27	41	0.828956722617	-0.0058596454879	0.557642928932	-0.96484375	-0.314453125	0.2197265625	-17.0625	77.625	-45.9375
18	12	12	15	27	41	0.820637805596	-0.0133670271049	0.569227830047	-1.0380859375	-0.26806640625	0.232421875	-15.0625	69.25	-41.0
18	12	12	15	27	41	0.812771677514	-0.0187384278309	0.579792592723	-1.0908203125	-0.173828125	0.2568359375	-9.25	66.375	-39.25
18	12	12	15	27	41	0.805270516111	-0.0228281037691	0.589502209096	-1.11962890625	-0.1064453125	0.310546875	-5.0625	66.125	-41.625
18	12	12	15	27	41	0.797857724001	-0.0255739279649	0.598698471139	-1.11328125	-0.0615234375	0.37353515625	3.3125	70.1875	-46.1875
18	12	12	15	27	41	0.790493561882	-0.0264291338348	0.607381780116	-1.0771484375	-0.046875	0.42822265625	17.6875	75.0	-49.9375
18	12	12	15	27	41	0.783142362624	-0.0247802820688	0.615478730005	-1.021484375	-0.06103515625	0.46533203125	37.4375	78.875	-51.875
18	12	12	15	27	41	0.775666267043	-0.020142419588	0.623072179255	-0.9697265625	-0.04541015625	0.47705078125	58.8125	81.6875	-53.5625
18	12	12	15	27	41	0.767901818039	-0.0135501314367	0.630325258317	-0.92333984375	-0.0078125	0.46142578125	71.5625	83.625	-55.0625
18	12	12	15	27	41	0.759770439467	-0.00701908744687	0.637516246805	-0.88818359375	0.03515625	0.419921875	69.125	83.5	-57.0625
18	12	12	15	27	41	0.751646092755	-0.00238036521457	0.644529658099	-0.84326171875	0.04638671875	0.38427734375	54.8125	80.4375	-56.6875
18	12	12	15	27	41	0.743845189486	-0.000366215732905	0.651253645016	-0.81494140625	0.009765625	0.3720703125	35.625	76.1875	-54.375
18	12	12	15	27	42	0.736532941098	-0.000183110866271	0.65755112078	-0.81494140625	-0.037109375	0.36474609375	21.625	71.4375	-50.5625
18	12	12	15	27	42	0.729823155663	-0.000183111940034	0.66317040949	-0.85205078125	-0.07958984375	0.35986328125	17.875	66.5	-45.4375
18	12	12	15	27	42	0.723914984305	0.00048830690341	0.667881767139	-0.9091796875	-0.09814453125	0.37255859375	19.0	61.1875	-39.5
18	12	12	15	27	42	0.719031963491	0.00195322774463	0.671666190684	-0.994140625	-0.08056640625	0.38330078125	18.0	55.1875	-33.5
18	12	12	15	27	42	0.715308800327	0.00347918778212	0.674596199438	-1.0849609375	-0.07421875	0.39013671875	12.0	47.5625	-27.3125
18	12	12	15	27	42	0.712839569412	0.00433355676241	0.676706251055	-1.1484375	-0.10498046875	0.38623046875	2.3125	38.625	-19.25
18	12	12	15	27	42	0.711815055876	0.00500504498215	0.67769529801	-1.1669921875	-0.16943359375	0.36474609375	-2.5	26.875	-8.375
18	12	12	15	27	42	0.712605962103	0.00659198663016	0.677082478596	-1.16943359375	-0.201171875	0.3623046875	-1.0625	14.125	4.5
18	12	12	15	27	42	0.715183959097	0.00946091266195	0.67508189704	-1.18359375	-0.15625	0.36474609375	-2.1875	2.5	16.6875
18	12	12	15	27	42	0.719621201795	0.0123904244245	0.671951637876	-1.150390625	-0.0517578125	0.39892578125	-15.0625	-7.1875	27.5
18	12	12	15	27	42	0.725437286569	0.0128179916011	0.668488781027	-1.11181640625	0.064453125	0.3994140625	-44.4375	-16.625	33.5
18	12	12	15	27	42	0.732710321796	0.00817920552488	0.664468890626	-1.12255859375	0.09033203125	0.396484375	-85.4375	-29.75	37.125
18	12	12	15	27	42	0.739414497093	-0.00317397670867	0.661163763621	-1.138671875	0.06787109375	0.357421875	-121.875	-44.8125	41.1875
18	12	12	15	27	42	0.747897180205	-0.0180672133633	0.655424787484	-1.095703125	0.001953125	0.3125	-148.3125	-65.0625	45.4375
18	12	12	15	27	42	0.757949446499	-0.0349738309586	0.646680172786	-1.09912109375	-0.0576171875	0.27880859375	-162.9375	-86.25	49.0625
18	12	12	15	27	42	0.769261200167	-0.0521874415728	0.634672535058	-1.16015625	-0.08935546875	0.240234375	-164.0625	-107.125	50.3125
18	12	12	15	27	42	0.781787155495	-0.0692792334078	0.619118294674	-1.23828125	-0.11181640625	0.19921875	-159.9375	-128.375	48.4375
18	12	12	15	27	42	0.795388218044	-0.0852703047048	0.600066117074	-1.32958984375	-0.15576171875	0.17333984375	-147.625	-148.8125	44.0625
18	12	12	15	27	42	0.809817029769	-0.098884720602	0.577987295914	-1.412109375	-0.20849609375	0.17333984375	-127.4375	-165.75	39.75
18	12	12	15	27	42	0.824721661804	-0.108278288043	0.553842832979	-1.4404296875	-0.28759765625	0.15234375	-97.0625	-177.4375	39.8125
18	12	12	15	27	42	0.840036013643	-0.111573482013	0.528387108197	-1.427734375	-0.384765625	0.14306640625	-56.5	-185.75	44.3125
18	12	12	15	27	42	0.855705102112	-0.106329858612	0.502411633889	-1.361328125	-0.4375	0.123046875	-4.5	-190.875	54.75
18	12	12	15	27	42	0.871490451491	-0.0914338630294	0.476335024754	-1.24365234375	-0.421875	0.1064453125	51.25	-193.8125	68.8125
18	12	12	15	27	42	0.886703396354	-0.0679356288389	0.450340583624	-1.10498046875	-0.32861328125	0.1181640625	98.4375	-194.8125	83.4375
18	12	12	15	27	42	0.900527476358	-0.0385748519085	0.424323370994	-0.98046875	-0.13623046875	0.16943359375	126.0	-192.5625	97.3125
18	12	12	15	27	42	0.91191339863	-0.0099492559556	0.398824775545	-0.8447265625	0.111328125	0.2548828125	113.625	-182.625	106.6875
18	12	12	15	27	42	0.92085931129	0.0117190288174	0.374215446246	-0.7197265625	0.296875	0.2724609375	67.9375	-167.5625	106.8125
18	12	12	15	27	42	0.928374148175	0.0234992798848	0.349681492104	-0.64306640625	0.29833984375	0.30859375	11.5	-156.75	98.5
18	12	12	15	27	42	0.934947563766	0.0278341769979	0.32552558318	-0.61328125	0.26123046875	0.36767578125	-26.6875	-147.5	83.8125
18	12	12	15	27	42	0.940361661375	0.0281998628817	0.303301122639	-0.6103515625	0.21728515625	0.39404296875	-43.0625	-132.3125	69.625
18	12	12	15	27	42	0.944517458219	0.0264909252208	0.284014458646	-0.587890625	0.13134765625	0.39306640625	-47.25	-112.8125	58.3125
18	12	12	15	27	42	0.94683737582	0.0241104153848	0.27052496452	-0.5478515625	0.04638671875	0.3974609375	-40.3125	-91.6875	51.8125
18	12	12	15	27	42	0.948218995604	0.023194285055	0.260447406131	-0.50927734375	0.01025390625	0.3935546875	-24.1875	-72.125	46.0625
18	12	12	15	27	42	0.948850085227	0.0245376477492	0.253860888032	-0.49853515625	0.029296875	0.39794921875	-6.125	-54.25	37.5
18	12	12	15	27	42	0.948837749462	0.0267347014644	0.250866719221	-0.50927734375	0.06787109375	0.4033203125	3.3125	-36.0625	26.9375
18	12	12	15	27	42	0.948256586206	0.0281986703673	0.25146866215	-0.54345703125	0.12060546875	0.43505859375	3.125	-16.1875	14.625
18	12	12	15	27	42	0.947104805924	0.0274664666279	0.25617057875	-0.61572265625	0.1396484375	0.46044921875	-1.625	6.0	-0.75
18	12	12	15	27	42	0.945249820544	0.0242935185701	0.265214417555	-0.68310546875	0.10986328125	0.47607421875	-5.0	30.25	-15.9375
18	12	12	15	27	42	0.942657887971	0.019165668015	0.278024260535	-0.70068359375	0.02197265625	0.4931640625	-2.5	54.375	-27.6875
18	12	12	15	27	42	0.939143640046	0.0140389339146	0.294329301463	-0.72802734375	-0.0185546875	0.5498046875	7.0625	77.0625	-37.3125
18	12	12	15	27	42	0.935034060527	0.0107426068707	0.312451162337	-0.78515625	0.04833984375	0.55322265625	17.3125	101.875	-51.9375
18	12	12	15	27	42	0.92954281701	0.00622584328157	0.334364406828	-0.80322265625	0.0556640625	0.55712890625	18.75	125.875	-67.125
18	12	12	15	27	42	0.92250664845	-0.000671402218668	0.359139150422	-0.82861328125	0.0419921875	0.607421875	12.5625	147.3125	-80.875
18	12	12	15	27	42	0.913358846943	-0.0101931921571	0.387219227814	-0.90673828125	0.07080078125	0.6337890625	5.1875	171.9375	-96.5
18	12	12	15	27	42	0.901581821205	-0.0224617229845	0.418471665167	-1.01123046875	0.0458984375	0.59814453125	-2.4375	196.3125	-111.1875
18	12	12	15	27	42	0.887406353696	-0.0371100531706	0.45093597504	-1.06103515625	-0.06982421875	0.5068359375	-11.0	209.5	-119.875
18	12	12	15	27	42	0.871625416268	-0.0524318090038	0.482384850474	-1.06298828125	-0.18798828125	0.41064453125	-15.125	208.625	-118.3125
18	12	12	15	27	42	0.855532097659	-0.0671436435092	0.510780008077	-1.072265625	-0.25341796875	0.2861328125	-16.0625	193.5	-112.625
18	12	12	15	27	42	0.840229464809	-0.0809955324569	0.534985562912	-1.0966796875	-0.31103515625	0.1875	-16.875	168.75	-103.5
18	12	12	15	27	42	0.826257788871	-0.0938138599021	0.555009387176	-1.087890625	-0.3916015625	0.1669921875	-19.8125	144.0	-89.9375
18	12	12	15	27	43	0.813378508885	-0.104006977273	0.572282522836	-1.07080078125	-0.462890625	0.1533203125	-12.875	127.0	-73.75
18	12	12	15	27	43	0.801894571452	-0.109438039779	0.587352067368	-1.07177734375	-0.46630859375	0.15380859375	9.75	112.4375	-60.0
18	12	12	15	27	43	0.791087514145	-0.111695868443	0.601204537792	-1.11669921875	-0.36572265625	0.16943359375	32.875	99.875	-52.5625
18	12	12	15	27	43	0.781853459724	-0.110054007954	0.612957486342	-1.14306640625	-0.25146484375	0.2109375	47.75	90.0	-49.1875
18	12	12	15	27	43	0.773777109981	-0.106450049681	0.622952526975	-1.150390625	-0.17626953125	0.27734375	55.5	84.8125	-49.125
18	12	12	15	27	43	0.766514031512	-0.100712545946	0.631681295757	-1.1357421875	-0.099609375	0.32177734375	65.375	82.0625	-50.25
18	12	12	15	27	43	0.760026422458	-0.0932637627301	0.639113127976	-1.0927734375	-0.060546875	0.3671875	74.0	79.25	-49.375
18	12	12	15	27	43	0.7544002897	-0.0841681229366	0.64508549044	-1.03759765625	-0.0576171875	0.408203125	84.6875	75.125	-46.375
18	12	12	15	27	43	0.749364230747	-0.0732456688846	0.649872197179	-0.98974609375	-0.04052734375	0.42578125	95.0625	71.625	-43.5625
18	12	12	15	27	43	0.744545602845	-0.0615876793959	0.653903676281	-0.94775390625	-0.00732421875	0.42333984375	96.75	68.4375	-41.25
18	12	12	15	27	43	0.739599053628	-0.0509058026513	0.65774691771	-0.908203125	0.0361328125	0.41748046875	85.5	67.125	-39.4375
18	12	12	15	27	43	0.734525055181	-0.0430314246221	0.661585264509	-0.88818359375	0.0234375	0.39990234375	64.25	64.375	-38.0625
18	12	12	15	27	43	0.729743751047	-0.0376590744727	0.665228934649	-0.87841796875	-0.0263671875	0.40478515625	44.1875	60.75	-33.5625
18	12	12	15	27	43	0.725373751423	-0.0335708148168	0.668547517615	-0.8828125	-0.080078125	0.3955078125	33.5625	55.8125	-28.1875
18	12	12	15	27	43	0.721841199451	-0.0296647068267	0.671118213086	-0.87353515625	-0.10546875	0.39404296875	29.0	49.625	-21.0625
18	12	12	15	27	43	0.719386930211	-0.0256357127684	0.67287642276	-0.87451171875	-0.0888671875	0.392578125	23.5625	42.1875	-14.25
18	12	12	15	27	43	0.71803985242	-0.022217486083	0.674032139602	-0.90234375	-0.060546875	0.4033203125	11.75	34.75	-7.0
18	12	12	15	27	43	0.717807651344	-0.0202035997105	0.674775815103	-0.97412109375	-0.0302734375	0.392578125	-6.0625	26.4375	-1.125
18	12	12	15	27	43	0.718825158183	-0.0202030336553	0.674878982256	-1.03369140625	-0.0576171875	0.369140625	-24.8125	14.3125	6.25
18	12	12	15	27	43	0.721407624585	-0.0215463991436	0.673736979454	-1.072265625	-0.126953125	0.3486328125	-36.0625	-0.0625	15.25
18	12	12	15	27	43	0.725538154491	-0.0223392752203	0.671093800675	-1.12646484375	-0.16552734375	0.345703125	-35.8125	-12.6875	25.6875
18	12	12	15	27	43	0.730741825732	-0.0216683384677	0.667323787231	-1.1787109375	-0.1787109375	0.3134765625	-29.75	-23.5625	35.875
18	12	12	15	27	43	0.737251875343	-0.0197145753569	0.662055724136	-1.1845703125	-0.2099609375	0.3046875	-23.625	-36.0625	46.9375
18	12	12	15	27	43	0.745146512548	-0.0163580656424	0.655177151515	-1.2197265625	-0.18115234375	0.3193359375	-19.5625	-47.75	55.625
18	12	12	15	27	43	0.753980847557	-0.0125124321015	0.647167402789	-1.26953125	-0.123046875	0.298828125	-22.3125	-59.625	62.5
18	12	12	15	27	43	0.763845955163	-0.0102546044804	0.637799775091	-1.2802734375	-0.10888671875	0.27783203125	-35.625	-74.4375	68.125
18	12	12	15	27	43	0.774998882337	-0.0101323001077	0.626493544011	-1.2001953125	-0.13916015625	0.2529296875	-50.375	-92.125	74.8125
18	12	12	15	27	43	0.787492966479	-0.0115358991369	0.612867530338	-1.1318359375	-0.1435546875	0.2587890625	-64.3125	-107.5	81.3125
18	12	12	15	27	43	0.800454379074	-0.0149543482441	0.597624586359	-1.1279296875	-0.078125	0.24951171875	-81.5	-118.6875	84.625
18	12	12	15	27	43	0.813462673919	-0.0219739298125	0.580844211376	-1.1708984375	-0.009765625	0.234375	-106.3125	-128.0	83.1875
18	12	12	15	27	43	0.826194452614	-0.0330819587261	0.562393298344	-1.201171875	-0.01123046875	0.23388671875	-131.625	-136.6875	78.1875
18	12	12	15	27	43	0.838341314707	-0.0468763108624	0.542312528662	-1.2294921875	-0.0546875	0.25732421875	-144.1875	-143.4375	70.0625
18	12	12	15	27	43	0.849891272107	-0.0601222998438	0.520897164332	-1.2490234375	-0.10546875	0.28125	-133.875	-147.8125	60.25
18	12	12	15	27	43	0.860883353163	-0.0694004801862	0.499109697874	-1.26513671875	-0.1591796875	0.30615234375	-100.6875	-148.875	50.8125
18	12	12	15	27	43	0.871425175853	-0.0723288389288	0.477980706879	-1.23681640625	-0.19384765625	0.302734375	-53.9375	-145.1875	44.375
18	12	12	15	27	43	0.882013091926	-0.0668987092561	0.457548106372	-1.14892578125	-0.2451171875	0.29150390625	3.375	-144.0	41.5625
18	12	12	15	27	43	0.892491738718	-0.0529195963253	0.438066831403	-1.05517578125	-0.21044921875	0.2734375	59.1875	-141.8125	40.75
18	12	12	15	27	43	0.902178606918	-0.0325934223729	0.419747126702	-0.9384765625	-0.130859375	0.24072265625	97.4375	-136.3125	44.1875
18	12	12	15	27	43	0.910773962483	-0.0109253812682	0.401858716592	-0.8310546875	-0.046875	0.2197265625	104.25	-132.0	47.0
18	12	12	15	27	43	0.918407719374	0.0090333184334	0.383854997484	-0.751953125	0.03466796875	0.2333984375	92.25	-128.8125	47.375
18	12	12	15	27	43	0.92521486551	0.0250256033025	0.365740036557	-0.7060546875	0.095703125	0.25390625	67.625	-124.8125	45.8125
18	12	12	15	27	43	0.931135544882	0.0354631105589	0.348283147761	-0.69140625	0.13330078125	0.2783203125	34.75	-116.4375	43.375
18	12	12	15	27	43	0.936207786585	0.0404684941	0.332110220812	-0.693359375	0.13720703125	0.30224609375	4.1875	-104.375	39.75
18	12	12	15	27	43	0.939559097655	0.0412007010275	0.320571973032	-0.68798828125	0.09521484375	0.3173828125	-16.0	-92.125	34.25
18	12	12	15	27	43	0.942429839415	0.040468327949	0.31050133375	-0.6708984375	0.02880859375	0.34228515625	-17.375	-81.875	28.5625
18	12	12	15	27	43	0.944663919391	0.040589358816	0.302375464022	-0.6494140625	0.0126953125	0.376953125	-7.8125	-69.5	24.25
18	12	12	15	27	43	0.946045729544	0.0420559718469	0.29689440793	-0.63720703125	0.04150390625	0.40869140625	1.75	-53.375	20.0625
18	12	12	15	27	43	0.94644802391	0.0435197627401	0.294811295981	-0.66552734375	0.1142578125	0.43408203125	2.375	-34.375	13.125
18	12	12	15	27	43	0.945972418229	0.0431541166401	0.296463287865	-0.73388671875	0.16357421875	0.4375	-5.25	-15.125	0.0625
18	12	12	15	27	43	0.944755227319	0.0396140420293	0.301530612673	-0.7939453125	0.1376953125	0.44091796875	-15.6875	3.5625	-13.25
18	12	12	15	27	43	0.942777222661	0.0331430811799	0.309640609256	-0.81591796875	0.04736328125	0.4580078125	-21.9375	23.3125	-22.3125
18	12	12	15	27	44	0.939734276632	0.0260020006395	0.320935491461	-0.8310546875	-0.0224609375	0.48046875	-17.75	44.5625	-27.3125
18	12	12	15	27	44	0.935293905063	0.0201427258808	0.336078329392	-0.89013671875	0.01220703125	0.50244140625	-6.75	66.1875	-36.0625
18	12	12	15	27	44	0.929520148366	0.0147707581525	0.354376123279	-0.90966796875	0.03125	0.48193359375	0.5	86.0	-47.0
18	12	12	15	27	44	0.92370509912	0.00958314283763	0.371728279498	-0.9013671875	-0.0107421875	0.505859375	1.625	101.125	-53.9375
18	12	12	15	27	44	0.916373162468	0.00274673898029	0.391807055877	-0.95263671875	0.0458984375	0.52978515625	-3.9375	120.0	-64.625
18	12	12	15	27	44	0.907250868462	-0.00610367914735	0.414500850897	-1.00341796875	0.041015625	0.49658203125	-10.875	138.875	-73.9375
18	12	12	15	27	44	0.896573790565	-0.0172124589107	0.438490442605	-0.9853515625	-0.06787109375	0.43603515625	-21.0625	150.5625	-77.75
18	12	12	15	27	44	0.884743436482	-0.028260518185	0.462605760959	-0.90673828125	-0.1982421875	0.38720703125	-21.0625	155.0625	-73.25
18	12	12	15	27	44	0.872288728063	-0.0370498396147	0.486042624138	-0.8828125	-0.25146484375	0.33935546875	-10.0	152.8125	-66.0625
18	12	12	15	27	44	0.859779622918	-0.0436420864963	0.50801830197	-0.92919921875	-0.19140625	0.2861328125	0.3125	145.125	-62.0625
18	12	12	15	27	44	0.847548086405	-0.0501106855062	0.528023800626	-0.97705078125	-0.15673828125	0.244140625	-2.875	133.9375	-58.125
18	12	12	15	27	44	0.835718742454	-0.0579851596064	0.545976055452	-0.99658203125	-0.1748046875	0.220703125	-16.3125	122.6875	-52.0625
18	12	12	15	27	44	0.824196925972	-0.0656159146427	0.562465724123	-1.01171875	-0.25341796875	0.22119140625	-19.625	114.8125	-43.8125
18	12	12	15	27	44	0.813021425436	-0.0708647053252	0.577904418621	-1.03662109375	-0.271484375	0.25537109375	-8.0	109.4375	-37.3125
18	12	12	15	27	44	0.80211755621	-0.0730030132583	0.5926306486	-1.09228515625	-0.20751953125	0.2744140625	10.0625	106.8125	-34.0
18	12	12	15	27	44	0.791461602655	-0.072755628161	0.606642775413	-1.1142578125	-0.1494140625	0.31640625	24.875	104.5	-33.3125
18	12	12	15	27	44	0.780858551955	-0.0711092169958	0.620084579795	-1.12353515625	-0.1025390625	0.3681640625	35.125	103.75	-34.75
18	12	12	15	27	44	0.77023404091	-0.0679959364112	0.633021415189	-1.09814453125	-0.0888671875	0.40673828125	45.5	104.0	-35.875
18	12	12	15	27	44	0.759565969878	-0.0635413190809	0.645423542711	-1.056640625	-0.08056640625	0.41796875	55.8125	103.3125	-36.0
18	12	12	15	27	44	0.74894726485	-0.0579869520463	0.657144763926	-1.02392578125	-0.07275390625	0.43115234375	62.9375	101.5625	-35.5625
18	12	12	15	27	44	0.740449144682	-0.0514548371088	0.666044107392	-1.00244140625	-0.0419921875	0.43017578125	61.4375	98.5	-35.0
18	12	12	15	27	44	0.732281286028	-0.0461452573341	0.674233482159	-1.005859375	-0.01953125	0.4189453125	49.1875	94.0	-34.1875
18	12	12	15	27	44	0.724764627214	-0.04309279323	0.681549758082	-1.01123046875	-0.04052734375	0.40185546875	31.0	86.5	-31.625
18	12	12	15	27	44	0.718183006592	-0.0420557616473	0.687785663631	-0.998046875	-0.1064453125	0.39208984375	16.0	76.75	-26.875
18	12	12	15	27	44	0.713046428527	-0.041383793746	0.692476607742	-0.97314453125	-0.1767578125	0.400390625	12.5	66.1875	-20.0
18	12	12	15	27	44	0.709277111151	-0.0395534912243	0.695787417385	-0.95166015625	-0.18115234375	0.38818359375	16.8125	55.4375	-13.25
18	12	12	15	27	44	0.70699623825	-0.0368055539726	0.697718553003	-0.9345703125	-0.1416015625	0.3857421875	17.9375	44.4375	-7.75
18	12	12	15	27	44	0.706279035263	-0.0344258383794	0.698344001594	-0.9306640625	-0.0869140625	0.39697265625	9.1875	32.9375	-3.5
18	12	12	15	27	44	0.706949285154	-0.0334491632071	0.697915569543	-0.947265625	-0.06396484375	0.40478515625	-6.5625	22.25	0.3125
18	12	12	15	27	44	0.708839376202	-0.0342425635107	0.696570650238	-0.99267578125	-0.056640625	0.4052734375	-23.25	11.6875	3.9375
18	12	12	15	27	44	0.712062056188	-0.0363172401365	0.694056029566	-1.04736328125	-0.06640625	0.4033203125	-35.5625	-0.25	7.75
18	12	12	15	27	44	0.716684146576	-0.039246117037	0.690133507523	-1.10302734375	-0.0849609375	0.3994140625	-42.75	-13.1875	11.0625
18	12	12	15	27	44	0.722418140418	-0.0424197877315	0.684942241616	-1.16650390625	-0.109375	0.3837890625	-43.8125	-25.625	14.0
18	12	12	15	27	44	0.729152719081	-0.044984560017	0.678491681341	-1.193359375	-0.1357421875	0.3330078125	-38.5	-39.4375	17.1875
18	12	12	15	27	44	0.737456844834	-0.0466327619147	0.670071283115	-1.18115234375	-0.203125	0.333984375	-29.125	-54.625	23.0
18	12	12	15	27	44	0.746771537992	-0.0458988309416	0.6603450159	-1.28369140625	-0.15185546875	0.34814453125	-16.3125	-65.4375	26.0625
18	12	12	15	27	44	0.756426503614	-0.044129457122	0.650039721092	-1.36328125	-0.06005859375	0.259765625	-14.375	-78.4375	27.5625
18	12	12	15	27	44	0.767496838666	-0.0445580318296	0.637607123962	-1.24755859375	-0.1220703125	0.205078125	-26.625	-99.4375	32.3125
18	12	12	15	27	44	0.780479624603	-0.04522838835	0.62227182082	-1.1044921875	-0.21875	0.244140625	-29.375	-117.5625	39.8125
18	12	12	15	27	44	0.793955994365	-0.0443121196117	0.605598968027	-1.09765625	-0.12744140625	0.24951171875	-22.0625	-125.8125	44.5625
18	12	12	15	27	44	0.807325262965	-0.0449836485072	0.58808338313	-1.15673828125	0.04345703125	0.1953125	-36.6875	-132.1875	44.625
18	12	12	15	27	44	0.820641780068	-0.0507217046661	0.569169549954	-1.197265625	0.06591796875	0.19775390625	-70.375	-140.8125	41.25
18	12	12	15	27	44	0.833521812226	-0.0606097802827	0.549028170839	-1.2431640625	0.01806640625	0.2314453125	-95.4375	-146.375	36.25
18	12	12	15	27	44	0.84558395055	-0.0715996516275	0.528299219809	-1.2919921875	-0.03515625	0.236328125	-99.9375	-147.8125	31.8125
18	12	12	15	27	44	0.856788449029	-0.081302430299	0.507468772902	-1.31884765625	-0.11181640625	0.23974609375	-89.25	-146.625	30.625
18	12	12	15	27	44	0.867396302787	-0.0870387114048	0.486891865972	-1.3046875	-0.20654296875	0.23193359375	-63.1875	-144.375	33.125
18	12	12	15	27	44	0.877885053436	-0.0861222144475	0.466683523505	-1.2353515625	-0.27880859375	0.216796875	-20.6875	-143.25	38.4375
18	12	12	15	27	45	0.888407834905	-0.0773351237942	0.446920107672	-1.12158203125	-0.2646484375	0.18798828125	26.6875	-143.0625	46.125
18	12	12	15	27	45	0.898585843496	-0.0623187166288	0.427563770798	-0.99462890625	-0.20166015625	0.16015625	60.625	-141.9375	56.375
18	12	12	15	27	45	0.907989972227	-0.0443130357513	0.408400168336	-0.8779296875	-0.11865234375	0.1318359375	74.4375	-140.1875	65.375
18	12	12	15	27	45	0.916482520631	-0.0257579502968	0.389115955313	-0.7958984375	-0.01806640625	0.146484375	73.625	-138.4375	70.6875
18	12	12	15	27	45	0.92383221474	-0.00909487941832	0.370082241029	-0.75	0.10400390625	0.169921875	60.0	-133.4375	72.25
18	12	12	15	27	45	0.929904946379	0.00366224461981	0.352002745374	-0.734375	0.1806640625	0.197265625	36.25	-123.6875	70.1875
18	12	12	15	27	45	0.935048858979	0.0118414699812	0.334613084726	-0.7197265625	0.16162109375	0.22216796875	11.1875	-115.0625	65.875
18	12	12	15	27	45	0.939392121343	0.0172130330227	0.318441110919	-0.693359375	0.09326171875	0.26611328125	-1.0625	-104.6875	58.875
18	12	12	15	27	45	0.941972378753	0.0224003021449	0.307378532975	-0.662109375	0.0283203125	0.29345703125	7.625	-93.125	52.125
18	12	12	15	27	45	0.943885136662	0.0303356772453	0.298351690895	-0.625	0.01025390625	0.3203125	28.8125	-80.5625	47.875
18	12	12	15	27	45	0.944967886225	0.040711379674	0.291571605251	-0.57421875	0.06689453125	0.36279296875	43.5	-65.75	45.1875
18	12	12	15	27	45	0.945285350723	0.0502337343349	0.287363816827	-0.548828125	0.14111328125	0.38818359375	38.875	-47.6875	36.4375
18	12	12	15	27	45	0.944949095066	0.0555457448815	0.28645734146	-0.56689453125	0.20068359375	0.43798828125	19.3125	-25.125	20.1875
18	12	12	15	27	45	0.944038395001	0.0545048352451	0.289553122511	-0.63427734375	0.19189453125	0.45849609375	-8.125	-0.5	0.1875
18	12	12	15	27	45	0.942460903959	0.0471810296458	0.296697264047	-0.72509765625	0.11376953125	0.486328125	-31.375	24.0	-16.75
18	12	12	15	27	45	0.939835756526	0.0358892989244	0.307744634654	-0.7744140625	0.00439453125	0.5078125	-40.8125	49.1875	-26.5625
18	12	12	15	27	45	0.935720415011	0.0239270973701	0.322954775983	-0.81689453125	-0.0478515625	0.55517578125	-36.125	76.125	-33.1875
18	12	12	15	27	45	0.930594360414	0.0140388759606	0.340290145566	-0.87939453125	-0.01220703125	0.56689453125	-26.5625	104.3125	-44.875
18	12	12	15	27	45	0.923787664347	0.00347908139199	0.361336172642	-0.90283203125	-0.00244140625	0.54736328125	-24.0	127.5	-55.875
18	12	12	15	27	45	0.915488444453	-0.009277568075	0.384469745424	-0.92333984375	0.00537109375	0.55078125	-32.625	144.5	-64.25
18	12	12	15	27	45	0.905292677692	-0.0257573833593	0.409737712065	-1.02392578125	0.04931640625	0.53369140625	-49.875	161.6875	-75.9375
18	12	12	15	27	45	0.893083236009	-0.0454720483069	0.436348554827	-1.10986328125	-0.00146484375	0.45654296875	-65.375	174.9375	-83.1875
18	12	12	15	27	45	0.879408110584	-0.0663462393257	0.462531556219	-1.06982421875	-0.17236328125	0.37890625	-72.625	177.5	-79.625
18	12	12	15	27	45	0.865094909614	-0.0851483383131	0.487329271034	-1.01220703125	-0.31640625	0.3369140625	-63.1875	171.875	-71.125
18	12	12	15	27	45	0.85117691079	-0.0994921738679	0.510034726896	-1.00244140625	-0.33984375	0.2998046875	-39.625	159.1875	-63.4375
18	12	12	15	27	45	0.838155863771	-0.109682936731	0.530408859319	-1.02880859375	-0.30517578125	0.2294921875	-18.5	143.5625	-56.9375
18	12	12	15	27	45	0.826125376811	-0.117921996897	0.548227420356	-1.05322265625	-0.3046875	0.2060546875	-11.9375	127.4375	-50.1875
18	12	12	15	27	45	0.8148525062	-0.124638862746	0.564170914967	-1.09912109375	-0.33837890625	0.22705078125	-6.3125	116.1875	-44.4375
18	12	12	15	27	45	0.804046686964	-0.12903322677	0.579184621013	-1.15185546875	-0.28125	0.26806640625	6.6875	111.25	-42.6875
18	12	12	15	27	45	0.793539216563	-0.131778414627	0.593460641692	-1.20458984375	-0.16748046875	0.30322265625	16.75	108.1875	-45.3125
18	12	12	15	27	45	0.783109433334	-0.134465322029	0.60695558886	-1.19140625	-0.0986328125	0.35302734375	18.1875	106.9375	-49.125
18	12	12	15	27	45	0.772797421896	-0.136541176272	0.61977608577	-1.13720703125	-0.09375	0.40087890625	24.4375	105.5	-52.375
18	12	12	15	27	45	0.763112722857	-0.136422727211	0.631634175022	-1.0546875	-0.1083984375	0.43603515625	39.875	101.75	-52.5
18	12	12	15	27	45	0.756243506528	-0.132266317889	0.640334998143	-0.9658203125	-0.1044921875	0.4462890625	59.1875	95.0625	-50.8125
18	12	12	15	27	45	0.750248879384	-0.126099429288	0.647831240301	-0.89599609375	-0.05859375	0.43798828125	70.375	88.625	-49.8125
18	12	12	15	27	45	0.744487607289	-0.120246010196	0.65457777327	-0.86279296875	0.00732421875	0.41259765625	63.25	82.8125	-48.875
18	12	12	15	27	45	0.738809198156	-0.116827561572	0.660680003374	-0.865234375	0.04296875	0.38916015625	40.5	76.0	-47.3125
18	12	12	15	27	45	0.733431986163	-0.116643519104	0.665985053347	-0.8798828125	0.00439453125	0.37353515625	14.1875	67.5625	-43.625
18	12	12	15	27	45	0.728741583078	-0.118537243851	0.670266464845	-0.9072265625	-0.08837890625	0.35693359375	-0.9375	57.625	-37.4375
18	12	12	15	27	45	0.725496687995	-0.119756394232	0.673065116819	-0.91455078125	-0.18408203125	0.35302734375	1.9375	46.125	-28.1875
18	12	12	15	27	45	0.72398397715	-0.118415725122	0.674359242859	-0.91552734375	-0.23193359375	0.34130859375	16.3125	34.125	-16.6875
18	12	12	15	27	45	0.724270124144	-0.114139990911	0.674219432942	-0.931640625	-0.23046875	0.3291015625	29.4375	21.4375	-5.0625
18	12	12	15	27	45	0.726236355047	-0.108160264006	0.672705569757	-0.93408203125	-0.19677734375	0.3193359375	32.5625	7.75	6.25
18	12	12	15	27	45	0.729721643586	-0.102240380845	0.669903390913	-0.97119140625	-0.15087890625	0.33349609375	21.375	-5.3125	15.875
18	12	12	15	27	45	0.734272874979	-0.0975978659261	0.666155790317	-1.02685546875	-0.12451171875	0.3271484375	3.3125	-17.875	24.9375
18	12	12	15	27	45	0.739940138437	-0.0943007105408	0.661264658899	-1.09375	-0.123046875	0.33447265625	-13.9375	-30.25	33.0625
18	12	12	15	27	45	0.746580192706	-0.0919262341767	0.655203318494	-1.166015625	-0.13818359375	0.34716796875	-24.6875	-41.5625	40.25
18	12	12	15	27	45	0.753820588887	-0.0895428991009	0.648285706442	-1.24609375	-0.12890625	0.33935546875	-28.25	-51.3125	45.375
18	12	12	15	27	45	0.761673984994	-0.0869769555747	0.64033350241	-1.22314453125	-0.162109375	0.32177734375	-26.8125	-60.5	51.0
18	12	12	15	27	45	0.770182513908	-0.0836836445212	0.631259118627	-1.20166015625	-0.189453125	0.33642578125	-21.25	-68.75	56.125
18	12	12	15	27	45	0.779150246867	-0.0783728097907	0.621366981051	-1.2275390625	-0.1611328125	0.3330078125	-8.5	-75.6875	59.25
18	12	12	15	27	45	0.788041773902	-0.071839916961	0.611219140567	-1.25927734375	-0.07080078125	0.30029296875	-4.9375	-82.1875	60.4375
18	12	12	15	27	45	0.797139356267	-0.066468970825	0.600112875254	-1.189453125	-0.0703125	0.2548828125	-12.0	-91.875	63.0625
18	12	12	15	27	46	0.807298973453	-0.0624426772904	0.586765842417	-1.07861328125	-0.12060546875	0.244140625	-20.75	-102.375	66.6875
18	12	12	15	27	46	0.817650291793	-0.0587174963201	0.572281959977	-1.04833984375	-0.10302734375	0.2490234375	-24.875	-109.0	70.0625
18	12	12	15	27	46	0.827429762146	-0.056643170498	0.557459133791	-1.08984375	0.0	0.24951171875	-38.5	-109.8125	70.0625
18	12	12	15	27	46	0.836339147034	-0.0587183082358	0.542320341658	-1.115234375	0.0673828125	0.2392578125	-66.0	-109.25	66.5625
18	12	12	15	27	46	0.844314862283	-0.0657360736412	0.526621024491	-1.1220703125	0.05615234375	0.25390625	-96.9375	-109.0625	62.1875
18	12	12	15	27	46	0.851294903612	-0.0760531619632	0.510520583194	-1.12158203125	0.01806640625	0.283203125	-115.4375	-107.0	57.0625
18	12	12	15	27	46	0.857141626527	-0.0874659225816	0.494643291418	-1.12451171875	-0.00927734375	0.28857421875	-119.4375	-102.5	51.875
18	12	12	15	27	46	0.861994113628	-0.0986391791264	0.479278981745	-1.11962890625	-0.03662109375	0.2939453125	-114.5625	-96.875	47.875
18	12	12	15	27	46	0.866011439793	-0.108281949126	0.464806675643	-1.07666015625	-0.0673828125	0.27783203125	-102.25	-91.0	45.5625
18	12	12	15	27	46	0.868028190727	-0.116461415365	0.453943158318	-0.998046875	-0.0908203125	0.2529296875	-85.25	-85.9375	45.125
18	12	12	15	27	46	0.869773894518	-0.122073529055	0.443920388409	-0.90234375	-0.08251953125	0.23681640625	-69.0625	-80.9375	46.0
18	12	12	15	27	46	0.871023916317	-0.125739962692	0.434962608807	-0.82275390625	-0.02685546875	0.2177734375	-59.125	-75.0625	46.5
18	12	12	15	27	46	0.871668848087	-0.129032136745	0.426770435251	-0.7822265625	0.03955078125	0.21142578125	-59.25	-69.375	45.0625
18	12	12	15	27	46	0.871644349116	-0.133493430778	0.41897526697	-0.767578125	0.09228515625	0.2236328125	-67.8125	-64.125	40.5625
18	12	12	15	27	46	0.871002315406	-0.139775424126	0.41151349758	-0.775390625	0.11669921875	0.2431640625	-77.25	-58.3125	33.3125
18	12	12	15	27	46	0.869864292228	-0.147836033666	0.404565330776	-0.78759765625	0.1181640625	0.2587890625	-83.125	-51.3125	24.125
18	12	12	15	27	46	0.868452104772	-0.156868281506	0.398457642673	-0.814453125	0.06787109375	0.27392578125	-80.9375	-44.1875	15.125
18	12	12	15	27	46	0.866982735917	-0.165168634426	0.393694638599	-0.8173828125	0.0078125	0.28173828125	-67.75	-36.3125	9.6875
18	12	12	15	27	46	0.865767212394	-0.171334501212	0.390584065998	-0.82421875	-0.05126953125	0.28857421875	-46.9375	-29.5	6.0625
18	12	12	15	27	46	0.86492297837	-0.17426641519	0.389551054901	-0.8408203125	-0.07080078125	0.28564453125	-21.0625	-23.125	3.75
18	12	12	15	27	46	0.864336692554	-0.174258968805	0.390572028505	-0.8671875	-0.0673828125	0.291015625	1.125	-17.0625	1.9375
18	12	12	15	27	46	0.863578736309	-0.172801201759	0.39357899998	-0.9384765625	-0.046875	0.28955078125	13.5625	-10.625	-1.375
18	12	12	15	27	46	0.862643923283	-0.171088298094	0.39790389414	-0.99267578125	-0.06591796875	0.2880859375	20.375	-4.375	-4.5
18	12	12	15	27	46	0.861672559736	-0.169136124037	0.403155575339	-1.01123046875	-0.140625	0.30517578125	29.1875	1.25	-5.3125
18	12	12	15	27	46	0.860998053359	-0.164984952377	0.409624127045	-1.02392578125	-0.16943359375	0.3671875	46.75	9.0	-5.6875
18	12	12	15	27	46	0.859883358262	-0.158450965222	0.41871094816	-1.083984375	-0.1064453125	0.43017578125	63.125	23.0625	-8.75
18	12	12	15	27	46	0.857917345434	-0.151562345693	0.429782712857	-1.05712890625	-0.05126953125	0.4443359375	67.1875	38.5	-11.6875
18	12	12	15	27	46	0.855449772061	-0.146613653406	0.44087860889	-1.00537109375	-0.08349609375	0.4892578125	60.0	49.0625	-15.25
18	12	12	15	27	46	0.852639426286	-0.142706777769	0.452413446033	-1.02587890625	-0.07080078125	0.53271484375	57.5625	58.3125	-23.9375
18	12	12	15	27	46	0.849145127354	-0.139652390123	0.464978980749	-1.0244140625	-0.06201171875	0.5	57.0	67.5625	-31.0
18	12	12	15	27	46	0.8453470686	-0.138612504895	0.476995475893	-0.939453125	-0.142578125	0.4453125	50.25	69.6875	-33.125
18	12	12	15	27	46	0.841878876203	-0.138614291877	0.48743889693	-0.83447265625	-0.26318359375	0.43115234375	46.8125	66.6875	-28.3125
18	12	12	15	27	46	0.838776888048	-0.137334303457	0.497089141047	-0.791015625	-0.2939453125	0.41796875	52.5	62.0	-23.125
18	12	12	15	27	46	0.835982662924	-0.134406675216	0.506130858715	-0.78173828125	-0.25	0.37109375	57.625	55.3125	-20.4375
18	12	12	15	27	46	0.833409161519	-0.131597345264	0.513937684195	-0.77783203125	-0.20556640625	0.35107421875	50.25	47.5	-17.8125
18	12	12	15	27	46	0.830905760209	-0.13013230594	0.520529223761	-0.77197265625	-0.2021484375	0.34033203125	37.5625	41.625	-15.25
18	12	12	15	27	46	0.828326135733	-0.129885639735	0.526378645241	-0.79736328125	-0.1630859375	0.3486328125	25.6875	39.0	-15.4375
18	12	12	15	27	46	0.825543351085	-0.130316824737	0.532010044219	-0.85205078125	-0.09912109375	0.36767578125	17.3125	39.0	-17.9375
18	12	12	15	27	46	0.822560482498	-0.131660949892	0.537569766204	-0.900390625	-0.056640625	0.40576171875	10.9375	42.0	-23.1875
18	12	12	15	27	46	0.819193410408	-0.133734651829	0.543544990662	-0.9462890625	-0.02392578125	0.4443359375	8.0	48.6875	-30.6875
18	12	12	15	27	46	0.815516415726	-0.135563352992	0.55018823227	-0.95166015625	-0.0185546875	0.47265625	13.0625	56.4375	-36.625
18	12	12	15	27	46	0.8117627817	-0.136667183114	0.557289585452	-0.93359375	-0.05126953125	0.4921875	23.1875	62.75	-41.375
18	12	12	15	27	46	0.807890624366	-0.136357483744	0.564961893256	-0.90283203125	-0.0732421875	0.49072265625	35.9375	68.4375	-43.5625
18	12	12	15	27	46	0.803624587729	-0.135259918457	0.573145593102	-0.876953125	-0.06787109375	0.45849609375	41.8125	71.5	-44.125
18	12	12	15	27	46	0.79897578993	-0.134403719589	0.581378487325	-0.87451171875	-0.06103515625	0.4267578125	39.125	72.5625	-44.625
18	12	12	15	27	46	0.793786375652	-0.134952839413	0.589495487586	-0.90283203125	-0.0546875	0.39697265625	27.0625	71.6875	-44.0
18	12	12	15	27	46	0.788237723418	-0.137700503642	0.597068407191	-0.93603515625	-0.0771484375	0.34912109375	10.5625	67.5625	-41.75
18	12	12	15	27	46	0.782992431426	-0.142034875891	0.603480368687	-0.955078125	-0.14990234375	0.34033203125	-1.9375	60.4375	-36.8125
18	12	12	15	27	46	0.778529604755	-0.146184116299	0.608663051244	-0.962890625	-0.2099609375	0.34814453125	-3.4375	53.25	-30.375
18	12	12	15	27	46	0.774817940714	-0.148688869039	0.613127951353	-0.970703125	-0.2177734375	0.3603515625	3.0625	48.125	-23.9375
18	12	12	15	27	47	0.771644231401	-0.149604493843	0.617156685943	-0.96875	-0.16943359375	0.3818359375	6.125	45.4375	-19.0625
18	12	12	15	27	47	0.768700039483	-0.150517254039	0.62074633965	-0.99951171875	-0.09912109375	0.4111328125	-0.75	43.9375	-17.625
18	12	12	15	27	47	0.765822310241	-0.152468648361	0.623851903481	-1.0419921875	-0.04443359375	0.435546875	-13.875	41.5	-17.8125
18	12	12	15	27	47	0.762866564888	-0.156748386833	0.626322117324	-1.0771484375	-0.03369140625	0.45361328125	-32.4375	39.0625	-18.125
18	12	12	15	27	47	0.759920449812	-0.162726740498	0.628200905178	-1.10205078125	-0.06494140625	0.47021484375	-45.1875	37.0625	-17.1875
18	12	12	15	27	47	0.757010959591	-0.169079209649	0.629804796086	-1.1591796875	-0.07861328125	0.4794921875	-49.4375	35.9375	-16.3125
18	12	12	15	27	47	0.754041918925	-0.174868876293	0.631542151135	-1.1796875	-0.095703125	0.4208984375	-45.5	33.0625	-14.3125
18	12	12	15	27	47	0.75205052869	-0.179818266173	0.632293760791	-1.1611328125	-0.15185546875	0.4052734375	-39.5	25.375	-9.8125
18	12	12	15	27	47	0.751022556565	-0.183055644273	0.632362945873	-1.1728515625	-0.13232421875	0.396484375	-30.0625	17.875	-7.6875
18	12	12	15	27	47	0.750749715844	-0.185062856784	0.631850492554	-1.17626953125	-0.111328125	0.33935546875	-24.0625	8.125	-4.375
18	12	12	15	27	47	0.751562783838	-0.187081940426	0.629913743946	-1.1259765625	-0.1279296875	0.2783203125	-26.5	-6.875	0.5625
18	12	12	15	27	47	0.754046061016	-0.189091362881	0.625747144046	-0.99560546875	-0.16796875	0.23388671875	-30.875	-27.0	10.25
18	12	12	15	27	47	0.757976466446	-0.191172676188	0.61935796465	-0.92822265625	-0.13134765625	0.23291015625	-40.6875	-45.125	18.625
18	12	12	15	27	47	0.762078863154	-0.193861631508	0.611799475001	-0.958984375	-0.01318359375	0.2177734375	-58.6875	-57.5625	24.25
18	12	12	15	27	47	0.765715299634	-0.199653626553	0.602684166487	-1.00439453125	0.02978515625	0.19287109375	-88.5625	-69.75	27.6875
18	12	12	15	27	47	0.769502702945	-0.210091877809	0.590601106821	-1.07080078125	-0.0126953125	0.21728515625	-115.75	-82.25	29.125
18	12	12	15	27	47	0.773357978655	-0.221508769103	0.576630846437	-1.16015625	-0.0537109375	0.21923828125	-125.25	-92.5625	29.625
18	12	12	15	27	47	0.777564115997	-0.231944708438	0.561245156338	-1.22802734375	-0.11669921875	0.22021484375	-121.0	-101.5	31.125
18	12	12	15	27	47	0.782520120251	-0.239395000907	0.545078367694	-1.25	-0.1962890625	0.205078125	-103.25	-109.625	35.0
18	12	12	15	27	47	0.788733453064	-0.241588531746	0.5289555877	-1.205078125	-0.265625	0.18017578125	-70.625	-116.875	41.625
18	12	12	15	27	47	0.796428147016	-0.237500147152	0.513271328039	-1.1083984375	-0.28662109375	0.154296875	-32.0625	-123.5	50.3125
18	12	12	15	27	47	0.805170000132	-0.227371560192	0.498386252072	-1.01611328125	-0.25732421875	0.1435546875	2.5	-128.8125	60.0
18	12	12	15	27	47	0.814266637312	-0.212844659993	0.484043061011	-0.947265625	-0.1845703125	0.14013671875	26.1875	-132.125	68.75
18	12	12	15	27	47	0.822854430471	-0.196359521017	0.469932220176	-0.91015625	-0.0771484375	0.14501953125	33.9375	-133.1875	75.0
18	12	12	15	27	47	0.830249501021	-0.180674792165	0.455532423623	-0.876953125	0.02392578125	0.1767578125	24.5	-130.8125	78.0
18	12	12	15	27	47	0.836226534784	-0.167428422256	0.440758526108	-0.85400390625	0.08154296875	0.21923828125	8.0625	-126.3125	77.0
18	12	12	15	27	47	0.840912347293	-0.157232358759	0.425796946702	-0.833984375	0.13232421875	0.2705078125	-8.75	-118.5625	72.375
18	12	12	15	27	47	0.844219697878	-0.149970920229	0.411458678577	-0.8291015625	0.13525390625	0.302734375	-22.625	-107.25	66.1875
18	12	12	15	27	47	0.845368707852	-0.145208097905	0.400405684008	-0.82373046875	0.11279296875	0.33642578125	-31.75	-94.5625	59.125
18	12	12	15	27	47	0.84583178559	-0.142029915216	0.390750114832	-0.78759765625	0.05615234375	0.35546875	-30.9375	-81.125	53.75
18	12	12	15	27	47	0.845965199232	-0.138857924116	0.38288165186	-0.744140625	0.01123046875	0.36328125	-21.8125	-68.5	49.6875
18	12	12	15	27	47	0.845672368641	-0.135075637084	0.377454920799	-0.7275390625	0.0263671875	0.37890625	-10.625	-54.6875	44.625
18	12	12	15	27	47	0.844576726594	-0.131658018303	0.37495373502	-0.75390625	0.076171875	0.37646484375	-5.8125	-38.6875	37.75
18	12	12	15	27	47	0.842585534849	-0.130623952809	0.374902952408	-0.81787109375	0.11962890625	0.365234375	-11.8125	-22.75	27.625
18	12	12	15	27	47	0.840070029661	-0.133063479231	0.376240039441	-0.86669921875	0.08251953125	0.353515625	-21.125	-8.9375	17.1875
18	12	12	15	27	47	0.837426849023	-0.137699341938	0.378612153388	-0.8671875	0.00146484375	0.36767578125	-22.1875	3.3125	9.5625
18	12	12	15	27	47	0.83483453705	-0.142282613575	0.382960582398	-0.87890625	-0.056640625	0.39599609375	-10.3125	15.875	2.75
18	12	12	15	27	47	0.832137703829	-0.145576793342	0.39028009083	-0.92822265625	-0.01513671875	0.43310546875	5.875	30.875	-5.625
18	12	12	15	27	47	0.829072903568	-0.148931597195	0.400467298852	-0.95849609375	0.0234375	0.44189453125	15.3125	47.875	-16.875
18	12	12	15	27	47	0.826036864914	-0.153146123851	0.411889216319	-0.9677734375	0.0	0.48095703125	19.875	61.4375	-28.3125
18	12	12	15	27	47	0.823214931365	-0.157904428519	0.424516930944	-1.001953125	-0.025390625	0.52734375	27.875	73.5625	-41.3125
18	12	12	15	27	47	0.82012558385	-0.162914199412	0.439239632434	-1.07177734375	-0.03564453125	0.54833984375	38.0625	88.8125	-54.125
18	12	12	15	27	47	0.816977026242	-0.16699657406	0.45484593198	-1.07275390625	-0.12109375	0.5029296875	48.125	101.4375	-62.1875
18	12	12	15	27	47	0.813610932447	-0.169314083016	0.471198529519	-0.95263671875	-0.27587890625	0.451171875	62.6875	104.1875	-60.5625
18	12	12	15	27	47	0.811277992566	-0.170605822679	0.486486013148	-0.830078125	-0.35009765625	0.4140625	82.4375	97.0	-56.0
18	12	12	15	27	47	0.809753358964	-0.16804243911	0.500587011673	-0.779296875	-0.28515625	0.3759765625	96.8125	84.375	-52.375
18	12	12	15	27	47	0.80803913987	-0.165599802573	0.512730682498	-0.7724609375	-0.17578125	0.3056640625	82.875	71.125	-50.625
18	12	12	15	27	47	0.805718208995	-0.167186528367	0.521824618841	-0.7958984375	-0.1455078125	0.26025390625	45.4375	58.125	-47.5625
18	12	12	15	27	47	0.803023788717	-0.172800269524	0.52822802277	-0.8505859375	-0.16357421875	0.25537109375	12.375	47.875	-44.625
18	12	12	15	27	48	0.799800129037	-0.180371623392	0.533301818469	-0.94189453125	-0.1591796875	0.2646484375	-8.0625	42.1875	-39.5625
18	12	12	15	27	48	0.796210248507	-0.188111919195	0.537846279022	-1.0244140625	-0.12353515625	0.29736328125	-17.875	40.0625	-34.5
18	12	12	15	27	48	0.792473656928	-0.195814179421	0.541968235374	-1.09912109375	-0.08349609375	0.35546875	-23.375	40.75	-33.25
18	12	12	15	27	48	0.788722457285	-0.203253813865	0.545916549912	-1.12451171875	-0.076171875	0.40234375	-24.375	42.875	-33.0625
18	12	12	15	27	48	0.785328423869	-0.209730177554	0.549778727949	-1.1005859375	-0.10986328125	0.43798828125	-17.5625	45.625	-32.375
18	12	12	15	27	48	0.782799479707	-0.213263265661	0.554215927933	-1.0322265625	-0.16259765625	0.4677734375	5.1875	49.0625	-30.125
18	12	12	15	27	48	0.781013405204	-0.212770610389	0.559758826127	-0.9580078125	-0.150390625	0.4677734375	32.375	53.0	-27.75
18	12	12	15	27	48	0.779436399209	-0.208928018363	0.566479970326	-0.888671875	-0.08251953125	0.4345703125	52.0	55.8125	-26.375
18	12	12	15	27	48	0.777451598378	-0.204602163599	0.573520861927	-0.861328125	-0.00244140625	0.400390625	51.125	56.8125	-26.9375
18	12	12	15	27	48	0.774888976469	-0.2022829514	0.579930694402	-0.84375	0.02294921875	0.38818359375	35.375	55.6875	-28.25
18	12	12	15	27	48	0.771978538812	-0.202577227255	0.585331608729	-0.83740234375	-0.00146484375	0.3828125	17.75	53.8125	-29.8125
18	12	12	15	27	48	0.768888131888	-0.204597365888	0.590048548938	-0.8330078125	-0.0419921875	0.39404296875	6.875	53.1875	-30.1875
18	12	12	15	27	48	0.765722738235	-0.207102212103	0.594510918327	-0.8349609375	-0.0654296875	0.41552734375	3.5	54.875	-29.5625
18	12	12	15	27	48	0.762293736898	-0.209479710548	0.599141270029	-0.84765625	-0.0439453125	0.4384765625	1.375	58.0	-28.875
18	12	12	15	27	48	0.758493750985	-0.212405106094	0.603767617667	-0.86669921875	-0.02099609375	0.45751953125	-5.3125	60.3125	-28.625
18	12	12	15	27	48	0.754361276983	-0.216560709664	0.607932544603	-0.8876953125	-0.0087890625	0.48291015625	-18.1875	60.6875	-27.75
18	12	12	15	27	48	0.749542931338	-0.222543446878	0.611719809273	-0.9482421875	0.017578125	0.48876953125	-35.875	60.375	-26.5
18	12	12	15	27	48	0.743867265145	-0.230844834396	0.615016539231	-1.0234375	0.017578125	0.439453125	-56.4375	56.4375	-24.1875
18	12	12	15	27	48	0.737990166894	-0.241398652722	0.616894104441	-1.107421875	-0.037109375	0.40966796875	-76.6875	47.25	-20.0
18	12	12	15	27	48	0.732269370568	-0.253184408529	0.617213292922	-1.21875	-0.080078125	0.3779296875	-91.6875	35.0	-14.3125
18	12	12	15	27	48	0.727185754539	-0.264958314626	0.616038762848	-1.27294921875	-0.1708984375	0.30029296875	-95.125	19.625	-5.3125
18	12	12	15	27	48	0.7242740138	-0.274364713638	0.612941146686	-1.244140625	-0.30224609375	0.2734375	-82.8125	0.875	7.875
18	12	12	15	27	48	0.723846758946	-0.278942548982	0.608912662724	-1.2314453125	-0.2958984375	0.2705078125	-57.8125	-16.1875	19.25
18	12	12	15	27	48	0.725195418741	-0.279372058882	0.604339688659	-1.24267578125	-0.1943359375	0.2490234375	-40.1875	-31.875	27.125
18	12	12	15	27	48	0.727670148931	-0.278812048341	0.598151942587	-1.17724609375	-0.14306640625	0.2021484375	-40.875	-49.9375	31.875
18	12	12	15	27	48	0.731669004461	-0.278274713551	0.589082970056	-1.04345703125	-0.15283203125	0.2236328125	-48.5	-69.5	36.8125
18	12	12	15	27	48	0.73651977044	-0.277530073439	0.577826524137	-0.96044921875	-0.11962890625	0.2509765625	-55.5	-84.0	41.1875
18	12	12	15	27	48	0.740942884946	-0.276930378862	0.565335942036	-0.97119140625	-0.00634765625	0.2607421875	-67.9375	-93.125	42.8125
18	12	12	15	27	48	0.744599013731	-0.279796858672	0.550621174102	-1.00634765625	0.06396484375	0.26513671875	-89.4375	-100.9375	40.8125
18	12	12	15	27	48	0.747413062375	-0.285719930174	0.533474084537	-1.0712890625	0.08544921875	0.28759765625	-112.6875	-107.3125	35.0625
18	12	12	15	27	48	0.749533156392	-0.293831646162	0.51441900994	-1.1357421875	0.06591796875	0.30419921875	-127.0625	-111.125	27.75
18	12	12	15	27	48	0.751328590816	-0.302509098715	0.494415597173	-1.1728515625	0.001953125	0.30078125	-128.3125	-112.5	21.3125
18	12	12	15	27	48	0.753510901055	-0.30933926663	0.474873617676	-1.18408203125	-0.09228515625	0.30712890625	-111.375	-111.0625	17.5625
18	12	12	15	27	48	0.756872674575	-0.311843749549	0.457419663166	-1.16650390625	-0.1611328125	0.26953125	-76.3125	-108.4375	16.1875
18	12	12	15	27	48	0.761895565646	-0.30873800441	0.44265875998	-1.107421875	-0.19775390625	0.2177734375	-34.3125	-107.4375	18.625
18	12	12	15	27	48	0.768460694015	-0.299998753859	0.430313573694	-1.01708984375	-0.1904296875	0.1640625	4.375	-108.8125	23.625
18	12	12	15	27	48	0.775854815589	-0.286817856852	0.419758757517	-0.939453125	-0.14111328125	0.14501953125	31.8125	-110.0625	30.25
18	12	12	15	27	48	0.782879097301	-0.271804196186	0.410178351307	-0.880859375	-0.0654296875	0.13134765625	40.875	-109.6875	36.375
18	12	12	15	27	48	0.788847955453	-0.257333873429	0.400466684906	-0.8466796875	-0.0087890625	0.15576171875	34.125	-107.0	40.375
18	12	12	15	27	48	0.793595530301	-0.244389824898	0.390572050331	-0.83251953125	0.01904296875	0.18115234375	23.1875	-103.25	42.25
18	12	12	15	27	48	0.795751651279	-0.233653242394	0.383318276446	-0.83251953125	0.0517578125	0.216796875	12.3125	-97.5625	43.8125
18	12	12	15	27	48	0.796787994592	-0.224436146477	0.376664525404	-0.83447265625	0.06396484375	0.240234375	3.875	-89.375	44.9375
18	12	12	15	27	48	0.796897808662	-0.216986191007	0.370677113358	-0.8203125	0.0419921875	0.24951171875	-1.625	-79.5625	45.0625
18	12	12	15	27	48	0.7965698067	-0.210343260834	0.365689633099	-0.79296875	0.00732421875	0.26513671875	0.0	-70.125	44.75
18	12	12	15	27	48	0.796222100078	-0.203068679721	0.36219102659	-0.76220703125	-0.00830078125	0.28759765625	9.625	-61.4375	44.0
18	12	12	15	27	48	0.795564530163	-0.195381468548	0.360610345573	-0.771484375	0.041015625	0.328125	16.6875	-50.8125	40.9375
18	12	12	15	27	48	0.794227276914	-0.188729691071	0.361101181235	-0.8134765625	0.119140625	0.35546875	15.0	-37.0625	34.6875
18	12	12	15	27	48	0.792345492488	-0.185497107439	0.362692929386	-0.87890625	0.14794921875	0.3671875	3.75	-23.0625	23.1875
18	12	12	15	27	48	0.790374487891	-0.186164351538	0.364515904061	-0.9228515625	0.10009765625	0.3876953125	-7.375	-10.4375	10.5
18	12	12	15	27	48	0.788551305524	-0.18976747495	0.366594871196	-0.9091796875	-0.0224609375	0.42431640625	-10.75	2.8125	2.9375
18	12	12	15	27	48	0.786708055912	-0.194281305141	0.369702125429	-0.8515625	-0.109375	0.484375	-5.625	17.75	0.9375
18	12	12	15	27	49	0.784521586241	-0.198434581566	0.375383782415	-0.85107421875	-0.1103515625	0.5283203125	5.375	34.5625	-1.25
18	12	12	15	27	49	0.781666878811	-0.2032602457	0.383630824092	-0.8525390625	-0.0615234375	0.5205078125	8.8125	51.625	-7.4375
18	12	12	15	27	49	0.778713952266	-0.209602109428	0.392164692217	-0.81005859375	-0.08984375	0.537109375	6.25	62.5625	-13.6875
18	12	12	15	27	49	0.776204738365	-0.216680570983	0.400523354026	-0.81787109375	-0.08544921875	0.59814453125	5.0625	69.25	-23.125
18	12	12	15	27	49	0.774075290028	-0.224190075719	0.409743527989	-0.87548828125	-0.0419921875	0.6328125	8.9375	77.3125	-36.625
18	12	12	15	27	49	0.771940881935	-0.233285209991	0.420120905382	-0.892578125	-0.05859375	0.560546875	10.5	87.3125	-49.625
18	12	12	15	27	49	0.770122286069	-0.243421389937	0.430199086329	-0.8291015625	-0.2177734375	0.505859375	14.9375	90.6875	-52.375
18	12	12	15	27	49	0.769206749247	-0.25184471095	0.440026301803	-0.80419921875	-0.283203125	0.49169921875	27.75	88.0	-53.5
18	12	12	15	27	49	0.769134333161	-0.256968140831	0.451006554062	-0.82568359375	-0.2431640625	0.43994140625	48.875	83.5	-56.375
18	12	12	15	27	49	0.769516558868	-0.26033061978	0.461758766387	-0.87109375	-0.185546875	0.4013671875	55.25	76.4375	-59.75
18	12	12	15	27	49	0.769565139822	-0.264232827593	0.471334233003	-0.9326171875	-0.134765625	0.396484375	45.9375	71.6875	-63.375
18	12	12	15	27	49	0.769119531979	-0.269414619011	0.479868086693	-1.03369140625	-0.14306640625	0.40185546875	35.4375	69.1875	-65.9375
18	12	12	15	27	49	0.768395532912	-0.274666764485	0.487991284902	-1.1455078125	-0.15771484375	0.421875	33.125	68.375	-67.0
18	12	12	15	27	49	0.767904070925	-0.27802265663	0.496534426275	-1.16259765625	-0.18603515625	0.42041015625	44.3125	68.0625	-63.1875
18	12	12	15	27	49	0.767772501073	-0.278873722665	0.505195404355	-1.1015625	-0.1572265625	0.41748046875	54.4375	66.375	-58.5
18	12	12	15	27	49	0.767656024237	-0.278204353858	0.513439013746	-1.00830078125	-0.08203125	0.4208984375	54.75	63.8125	-54.0
18	12	12	15	27	49	0.766887360395	-0.27827439319	0.520597126457	-0.9208984375	-0.0048828125	0.40185546875	40.6875	60.1875	-51.125
18	12	12	15	27	49	0.765278735542	-0.280708000061	0.525953650037	-0.8544921875	0.03759765625	0.390625	15.875	54.875	-49.375
18	12	12	15	27	49	0.762670669333	-0.285841276069	0.529688360822	-0.81298828125	0.0546875	0.3837890625	-9.8125	50.75	-46.375
18	12	12	15	27	49	0.759048184294	-0.293096605097	0.532359139869	-0.79638671875	0.04638671875	0.3876953125	-30.3125	48.6875	-41.0
18	12	12	15	27	49	0.754793049322	-0.301160351395	0.534568779392	-0.82177734375	0.013671875	0.38671875	-40.625	47.5	-34.875
18	12	12	15	27	49	0.750523190481	-0.308730180339	0.536707092867	-0.8486328125	-0.03759765625	0.37841796875	-39.1875	45.3125	-28.4375
18	12	12	15	27	49	0.74699425254	-0.314289377866	0.538973627221	-0.88427734375	-0.09912109375	0.38427734375	-27.6875	42.125	-21.625
18	12	12	15	27	49	0.744488107951	-0.316851501875	0.54183987327	-0.93505859375	-0.13427734375	0.3740234375	-9.125	38.3125	-14.4375
18	12	12	15	27	49	0.74280737485	-0.316532378469	0.545295076985	-0.9755859375	-0.14453125	0.34619140625	6.75	33.0	-6.25
18	12	12	15	27	49	0.741856853715	-0.314163010208	0.548549246696	-0.98974609375	-0.158203125	0.32421875	14.25	24.25	3.5
18	12	12	15	27	49	0.741185904246	-0.310806112528	0.55111319521	-1.0029296875	-0.14501953125	0.33837890625	11.1875	16.25	13.4375
18	12	12	15	27	49	0.740080942515	-0.307385371258	0.553061725371	-1.04931640625	-0.10302734375	0.3310546875	0.5625	8.6875	22.375
18	12	12	15	27	49	0.738568624364	-0.304888452785	0.553682313356	-1.0986328125	-0.0986328125	0.33935546875	-15.625	-0.25	31.3125
18	12	12	15	27	49	0.736838857445	-0.303537080689	0.552751217116	-1.1318359375	-0.15673828125	0.34521484375	-29.875	-9.25	39.9375
18	12	12	15	27	49	0.735615886321	-0.301705055267	0.550735325446	-1.13916015625	-0.22021484375	0.3623046875	-30.9375	-17.625	49.4375
18	12	12	15	27	49	0.7347056453	-0.2982281119	0.548603002406	-1.16748046875	-0.21337890625	0.36767578125	-25.8125	-23.3125	57.75
18	12	12	15	27	49	0.733875465485	-0.293293821147	0.546545863591	-1.13232421875	-0.19091796875	0.3505859375	-21.0625	-28.1875	65.625
18	12	12	15	27	49	0.733045916235	-0.287847172437	0.543650289418	-1.06787109375	-0.1337890625	0.38623046875	-25.375	-32.8125	70.5625
18	12	12	15	27	49	0.731645243235	-0.282904455026	0.539929408664	-1.04150390625	-0.0400390625	0.40625	-36.0	-35.25	70.625
18	12	12	15	27	49	0.72911834477	-0.280110848401	0.535317528977	-1.04345703125	0.03662109375	0.4013671875	-53.5	-35.6875	66.625
18	12	12	15	27	49	0.725441766371	-0.280471595833	0.529325283801	-1.03076171875	0.060546875	0.37158203125	-74.75	-36.875	61.1875
18	12	12	15	27	49	0.721198114902	-0.283633009474	0.521306118769	-0.9375	0.00341796875	0.32666015625	-92.1875	-41.3125	59.5
18	12	12	15	27	49	0.717073738557	-0.287915970784	0.511497951065	-0.857421875	-0.044921875	0.31640625	-99.5625	-47.0	57.75
18	12	12	15	27	49	0.712649508229	-0.292298603538	0.501466971532	-0.8544921875	0.02587890625	0.3173828125	-100.25	-48.5	53.4375
18	12	12	15	27	49	0.707745956711	-0.298419144662	0.490447499972	-0.91748046875	0.11865234375	0.29296875	-109.75	-47.4375	45.25
18	12	12	15	27	49	0.702220601105	-0.307438954173	0.477485594302	-1.00732421875	0.13916015625	0.287109375	-127.3125	-47.625	34.625
18	12	12	15	27	49	0.696375357843	-0.318554035637	0.463029491156	-1.11279296875	0.0966796875	0.302734375	-137.75	-46.9375	24.625
18	12	12	15	27	49	0.690600495235	-0.3299183027	0.448517981172	-1.20751953125	0.04150390625	0.2880859375	-134.0625	-44.875	17.3125
18	12	12	15	27	49	0.685631064141	-0.339855227022	0.43476810023	-1.2529296875	-0.0498046875	0.23876953125	-118.8125	-45.0	13.5625
18	12	12	15	27	49	0.681035463003	-0.348025112927	0.424441710855	-1.23583984375	-0.15966796875	0.201171875	-90.1875	-47.875	16.125
18	12	12	15	27	49	0.679461946179	-0.350534491278	0.417247742012	-1.14892578125	-0.2900390625	0.15234375	-41.5625	-53.625	23.25
18	12	12	15	27	49	0.681247130521	-0.345109871514	0.414144053452	-1.02490234375	-0.31884765625	0.14111328125	15.25	-60.5625	33.0
18	12	12	15	27	49	0.685213458344	-0.332230255992	0.415425155665	-0.939453125	-0.23974609375	0.1298828125	63.25	-66.0625	42.9375
18	12	12	15	27	50	0.689554509333	-0.314837758621	0.418908789727	-0.86083984375	-0.1123046875	0.13427734375	84.3125	-69.875	51.0
18	12	12	15	27	50	0.693072834315	-0.296394688105	0.42188634353	-0.8125	0.00439453125	0.15869140625	78.4375	-73.3125	55.3125
18	12	12	15	27	50	0.69509509188	-0.279673841851	0.422928862982	-0.80078125	0.09521484375	0.1865234375	56.0625	-74.875	55.75
18	12	12	15	27	50	0.695713552503	-0.266187647172	0.421041593715	-0.7939453125	0.1259765625	0.22021484375	27.0625	-75.75	55.0625
18	12	12	15	27	50	0.695718876521	-0.25538583781	0.416955224207	-0.79541015625	0.125	0.27587890625	7.0625	-74.1875	51.5625
18	12	12	15	27	50	0.695537460426	-0.246596870568	0.412195214591	-0.80419921875	0.11865234375	0.3193359375	-1.25	-68.8125	45.25
18	12	12	15	27	50	0.695645432394	-0.239084246616	0.407670074841	-0.7890625	0.08935546875	0.3466796875	-0.25	-61.0625	38.5
18	12	12	15	27	50	0.696549688401	-0.231878046463	0.404184370539	-0.75	0.05078125	0.3818359375	9.4375	-52.75	30.75
18	12	12	15	27	50	0.69832475009	-0.224128003001	0.402844449838	-0.7333984375	0.06005859375	0.4130859375	25.75	-42.5	21.4375
18	12	12	15	27	50	0.700473320904	-0.216746319496	0.404133309316	-0.7470703125	0.12646484375	0.42578125	37.25	-28.1875	9.0625
18	12	12	15	27	50	0.702786996883	-0.211678418029	0.406998757618	-0.77001953125	0.1630859375	0.4287109375	36.875	-12.9375	-5.9375
18	12	12	15	27	50	0.705232913873	-0.210031716863	0.410419431615	-0.78564453125	0.17041015625	0.44970703125	29.75	3.0	-21.75
18	12	12	15	27	50	0.707803509371	-0.211925990388	0.41469619202	-0.81005859375	0.13818359375	0.466796875	25.3125	20.3125	-37.25
18	12	12	15	27	50	0.710430742889	-0.216504669218	0.420496381799	-0.8369140625	0.1083984375	0.4970703125	26.375	39.5625	-51.375
18	12	12	15	27	50	0.713045688677	-0.223093818876	0.428181433493	-0.85205078125	0.08935546875	0.5166015625	30.875	59.0	-64.3125
18	12	12	15	27	50	0.715245408949	-0.231639898187	0.437643760212	-0.884765625	0.11279296875	0.54248046875	32.4375	78.4375	-77.9375
18	12	12	15	27	50	0.716601128227	-0.242936327968	0.448028303338	-0.9423828125	0.16552734375	0.5673828125	25.0	96.6875	-93.0625
18	12	12	15	27	50	0.71701507677	-0.25922899728	0.458030232066	-0.99169921875	0.17333984375	0.5283203125	9.1875	111.75	-109.3125
18	12	12	15	27	50	0.716298140253	-0.278950362246	0.466951919295	-0.99560546875	0.08203125	0.4755859375	-6.8125	120.0625	-119.8125
18	12	12	15	27	50	0.714713334976	-0.299826791477	0.475010604901	-1.00927734375	-0.025390625	0.431640625	-13.75	122.875	-123.0625
18	12	12	15	27	50	0.712730461533	-0.31995658811	0.482864663971	-1.08154296875	-0.09814453125	0.36083984375	-9.6875	121.6875	-122.9375
18	12	12	15	27	50	0.710912262229	-0.337541410675	0.49044217627	-1.1279296875	-0.1796875	0.26611328125	1.3125	113.5625	-116.6875
18	12	12	15	27	50	0.709760609051	-0.351279008005	0.497589308994	-1.05810546875	-0.2978515625	0.20458984375	15.5	99.875	-103.5
18	12	12	15	27	50	0.709980533713	-0.361277061472	0.504042232411	-0.97119140625	-0.35107421875	0.2041015625	33.5625	84.3125	-86.625
18	12	12	15	27	50	0.710977345286	-0.366475616509	0.510587696885	-0.96826171875	-0.31005859375	0.19921875	48.1875	70.3125	-70.25
18	12	12	15	27	50	0.711989124833	-0.368232352346	0.516794849547	-0.9990234375	-0.2275390625	0.162109375	49.875	54.0	-54.0
18	12	12	15	27	50	0.712803276204	-0.36873134026	0.521021473341	-0.9921875	-0.18115234375	0.166015625	36.375	35.0	-38.25
18	12	12	15	27	50	0.714014720275	-0.36799408006	0.523150980294	-0.96240234375	-0.17236328125	0.1953125	25.75	17.1875	-23.25
18	12	12	15	27	50	0.715723620274	-0.3654914752	0.524188508521	-0.9345703125	-0.14501953125	0.224609375	22.9375	4.4375	-10.5625
18	12	12	15	27	50	0.717974668059	-0.360726879897	0.525098705203	-0.9638671875	-0.09814453125	0.2578125	26.875	-3.5	-1.5
18	12	12	15	27	50	0.720503640885	-0.354086887561	0.526277735658	-1.01025390625	-0.021484375	0.29443359375	30.875	-6.875	3.5625
18	12	12	15	27	50	0.722738455891	-0.347056064538	0.527542308442	-1.04638671875	0.04150390625	0.3388671875	28.0	-6.1875	4.875
18	12	12	15	27	50	0.724521823713	-0.340836551273	0.528528599118	-1.02490234375	0.07275390625	0.375	21.0	-3.25	3.6875
18	12	12	15	27	50	0.726049977199	-0.335588295472	0.529201622725	-0.97021484375	0.04833984375	0.40087890625	16.625	-0.25	3.125
18	12	12	15	27	50	0.727902956003	-0.330226833709	0.529827895858	-0.8916015625	-0.00439453125	0.43310546875	20.0625	3.0625	5.125
18	12	12	15	27	50	0.729692274484	-0.324287332023	0.531140290469	-0.82861328125	-0.0166015625	0.43212890625	26.0	6.625	7.75
18	12	12	15	27	50	0.730524004958	-0.318627615799	0.533182418391	-0.8125	0.02099609375	0.40576171875	22.0	10.5	10.875
18	12	12	15	27	50	0.729543540051	-0.315390852698	0.535010803928	-0.83642578125	0.06689453125	0.3720703125	1.375	12.125	12.625
18	12	12	15	27	50	0.726879468507	-0.316106202653	0.535287004686	-0.8779296875	0.03515625	0.34375	-28.125	10.0	13.5625
18	12	12	15	27	50	0.723539003933	-0.31977567417	0.533651215741	-0.90625	-0.048828125	0.3388671875	-48.875	4.9375	15.375
18	12	12	15	27	50	0.720401456829	-0.324098257711	0.53088637393	-0.9111328125	-0.12841796875	0.353515625	-53.5625	0.6875	18.75
18	12	12	15	27	50	0.717744115711	-0.327284968827	0.52816054369	-0.91259765625	-0.15869140625	0.36669921875	-46.6875	-1.0	22.5625
18	12	12	15	27	50	0.715715971635	-0.328865568409	0.525891933448	-0.92431640625	-0.1650390625	0.37548828125	-35.6875	-2.4375	24.75
18	12	12	15	27	50	0.714378454484	-0.328990077723	0.523637453949	-0.9248046875	-0.146484375	0.396484375	-27.9375	-5.5625	25.75
18	12	12	15	27	50	0.71328997613	-0.328750625658	0.521020300894	-0.9560546875	-0.12109375	0.41552734375	-27.5	-8.625	25.3125
18	12	12	15	27	50	0.71212910282	-0.328750094093	0.518211715346	-1.00390625	-0.1123046875	0.40869140625	-29.4375	-10.4375	24.0
18	12	12	15	27	50	0.711014741634	-0.329048027483	0.515087424212	-1.04541015625	-0.1259765625	0.41015625	-30.3125	-12.5	23.125
18	12	12	15	27	50	0.709986590908	-0.329174491469	0.5119203523	-1.08056640625	-0.12451171875	0.41943359375	-29.1875	-13.375	22.875
18	12	12	15	27	50	0.708638446581	-0.32941616677	0.509108809899	-1.1396484375	-0.07861328125	0.42919921875	-29.625	-11.6875	20.375
18	12	12	15	27	50	0.706697172629	-0.330581437809	0.506370680958	-1.140625	-0.044921875	0.40283203125	-35.1875	-9.6875	17.3125
18	12	12	15	27	51	0.704080720577	-0.333393055552	0.50283632216	-1.150390625	-0.01220703125	0.43408203125	-47.1875	-7.3125	13.25
18	12	12	15	27	51	0.700699002563	-0.337837019093	0.499034411581	-1.1865234375	0.0361328125	0.435546875	-57.6875	-3.6875	6.4375
18	12	12	15	27	51	0.696533426277	-0.344482532239	0.494506994365	-1.19384765625	0.04248046875	0.38671875	-69.4375	-3.3125	0.5
18	12	12	15	27	51	0.692268468618	-0.352787140594	0.488286699783	-1.08349609375	-0.0400390625	0.31689453125	-79.375	-9.5	0.375
18	12	12	15	27	51	0.68837463709	-0.361033514665	0.480360737178	-0.9482421875	-0.10986328125	0.28076171875	-83.6875	-19.4375	5.375
18	12	12	15	27	51	0.684331596879	-0.368411123685	0.471683426746	-0.92626953125	-0.04833984375	0.2578125	-86.875	-28.625	7.625
18	12	12	15	27	51	0.679822311618	-0.37689915373	0.460763030203	-0.95703125	0.0478515625	0.18896484375	-101.5	-37.125	8.1875
18	12	12	15	27	51	0.673953995229	-0.387697498433	0.446474685301	-0.99365234375	0.0390625	0.16796875	-128.75	-47.375	8.9375
18	12	12	15	27	51	0.667261248152	-0.399551054739	0.429398360845	-1.04931640625	-0.03857421875	0.16943359375	-145.5625	-57.5625	9.375
18	12	12	15	27	51	0.660915966091	-0.409745925413	0.411638093398	-1.0927734375	-0.11328125	0.17333984375	-139.9375	-66.0	11.875
18	12	12	15	27	51	0.655582839585	-0.416750733515	0.394838971164	-1.13134765625	-0.15234375	0.18115234375	-120.4375	-71.8125	15.875
18	12	12	15	27	51	0.650462857689	-0.421149828099	0.381415257361	-1.150390625	-0.18115234375	0.1748046875	-94.625	-76.0	21.8125
18	12	12	15	27	51	0.646571900026	-0.421892284808	0.370376502346	-1.13671875	-0.19580078125	0.158203125	-68.0	-80.25	29.3125
18	12	12	15	27	51	0.644120353348	-0.418711799864	0.361459370087	-1.0712890625	-0.2001953125	0.15625	-41.6875	-85.25	37.3125
18	12	12	15	27	51	0.642652233087	-0.411812576374	0.354804580771	-0.98681640625	-0.171875	0.14990234375	-18.6875	-89.125	46.3125
18	12	12	15	27	51	0.641268170055	-0.402303303715	0.349749344604	-0.91162109375	-0.12109375	0.15625	-5.9375	-91.25	54.9375
18	12	12	15	27	51	0.639072316989	-0.391622539236	0.345599566265	-0.86279296875	-0.04833984375	0.1689453125	-3.875	-91.0625	61.875
18	12	12	15	27	51	0.635496815823	-0.381346917524	0.341307932586	-0.83349609375	0.00732421875	0.18505859375	-12.1875	-88.5625	66.125
18	12	12	15	27	51	0.630458811219	-0.372513324124	0.336256906865	-0.82861328125	0.0302734375	0.205078125	-24.9375	-84.9375	68.25
18	12	12	15	27	51	0.624421673393	-0.364947916444	0.33052232272	-0.81640625	0.03173828125	0.23388671875	-34.0625	-80.625	68.75
18	12	12	15	27	51	0.618135324025	-0.358234049245	0.324723997612	-0.818359375	0.02490234375	0.26416015625	-36.4375	-75.1875	66.8125
18	12	12	15	27	51	0.61195744298	-0.351878581566	0.31983413138	-0.828125	0.0263671875	0.30322265625	-31.5	-67.625	63.625
18	12	12	15	27	51	0.606344469718	-0.34583730274	0.316295252877	-0.84521484375	0.03759765625	0.35400390625	-23.75	-57.5625	58.0
18	12	12	15	27	51	0.601348238742	-0.340654133213	0.314590826479	-0.87744140625	0.0478515625	0.392578125	-15.125	-44.75	50.1875
18	12	12	15	27	51	0.596878770477	-0.337167228563	0.314461542642	-0.93603515625	0.060546875	0.42431640625	-10.0	-30.75	40.5
18	12	12	15	27	51	0.593298159566	-0.335775018084	0.315265945901	-0.95849609375	0.02587890625	0.396484375	-5.9375	-18.8125	29.375
18	12	12	15	27	51	0.590787019749	-0.335953275824	0.316482146647	-0.9580078125	-0.064453125	0.4072265625	-0.3125	-9.125	21.9375
18	12	12	15	27	51	0.58921092708	-0.33663091918	0.319173721921	-0.9716796875	-0.0908203125	0.43359375	9.5625	1.3125	16.125
18	12	12	15	27	51	0.588041129203	-0.338639421301	0.323868199248	-1.0380859375	-0.05517578125	0.451171875	16.0625	15.0625	7.5625
18	12	12	15	27	51	0.587123573604	-0.342849892186	0.329238440173	-1.0498046875	-0.07568359375	0.40625	15.625	26.75	-1.1875
18	12	12	15	27	51	0.587305487147	-0.347549100376	0.333998713955	-0.96044921875	-0.20068359375	0.42041015625	20.375	31.9375	-3.6875
18	12	12	15	27	51	0.589077309881	-0.350846169018	0.339676223136	-0.92041015625	-0.22021484375	0.455078125	34.5625	33.875	-8.375
18	12	12	15	27	51	0.591651117611	-0.353110669079	0.347800275265	-0.98974609375	-0.11572265625	0.47265625	48.0	39.875	-15.75
18	12	12	15	27	51	0.593763460921	-0.35700272234	0.356453393481	-1.02001953125	-0.04931640625	0.43017578125	43.0	48.5	-24.1875
18	12	12	15	27	51	0.595718999337	-0.363474041091	0.362680562916	-0.9326171875	-0.1591796875	0.37353515625	28.75	51.375	-28.125
18	12	12	15	27	51	0.598715096935	-0.369397876099	0.367200532487	-0.81982421875	-0.296875	0.38330078125	30.8125	46.8125	-25.75
18	12	12	15	27	51	0.602619361726	-0.372631540903	0.373058800655	-0.78125	-0.259765625	0.3759765625	45.6875	42.25	-24.4375
18	12	12	15	27	51	0.606412016986	-0.374162623465	0.380083304456	-0.80029296875	-0.13330078125	0.35693359375	50.625	39.5	-25.1875
18	12	12	15	27	51	0.608776798674	-0.377082721296	0.385444704595	-0.7998046875	-0.0439453125	0.3359375	31.0	38.0625	-28.1875
18	12	12	15	27	51	0.609769546006	-0.382830289545	0.387530214974	-0.78466796875	-0.04638671875	0.3544921875	3.4375	37.9375	-31.3125
18	12	12	15	27	51	0.609879553376	-0.390757496068	0.387583583261	-0.802734375	-0.06103515625	0.3984375	-14.125	41.5625	-35.25
18	12	12	15	27	51	0.60949908998	-0.399598492099	0.387940738625	-0.849609375	-0.0283203125	0.43798828125	-18.1875	50.25	-39.625
18	12	12	15	27	51	0.608722508919	-0.409253426481	0.38947742198	-0.91162109375	0.02880859375	0.462890625	-17.5625	61.6875	-46.625
18	12	12	15	27	51	0.60779116752	-0.420107110468	0.391603547982	-0.962890625	0.07080078125	0.46044921875	-18.1875	71.6875	-56.625
18	12	12	15	27	51	0.607520539125	-0.431850478681	0.393762182045	-0.97265625	0.02734375	0.4326171875	-15.1875	77.375	-65.375
18	12	12	15	27	51	0.608778151517	-0.443125063166	0.396371096446	-0.935546875	-0.08203125	0.40673828125	-1.25	80.0	-69.6875
18	12	12	15	27	51	0.611973294325	-0.452052086353	0.400779637995	-0.88916015625	-0.1689453125	0.4013671875	23.125	82.6875	-68.3125
18	12	12	15	27	51	0.616495358784	-0.458220857267	0.407802523964	-0.86474609375	-0.17822265625	0.369140625	48.1875	85.625	-65.875
18	12	12	15	27	51	0.621530297048	-0.462226155312	0.41626599488	-0.86328125	-0.15673828125	0.3544921875	61.8125	85.5625	-63.25
18	12	12	15	27	51	0.626254330423	-0.465295980586	0.424461268398	-0.8798828125	-0.14013671875	0.35986328125	61.1875	81.9375	-60.25
18	12	12	15	27	52	0.630084844121	-0.468214747579	0.43177566476	-0.91162109375	-0.1357421875	0.357421875	52.8125	77.4375	-56.3125
18	12	12	15	27	52	0.633126105397	-0.470770428124	0.438055148793	-0.92529296875	-0.150390625	0.375	43.875	71.4375	-49.4375
18	12	12	15	27	52	0.635521276038	-0.472856639019	0.443375580978	-0.94091796875	-0.18115234375	0.39599609375	36.5625	65.625	-41.3125
18	12	12	15	27	52	0.637635810652	-0.473878092649	0.448365335987	-0.96337890625	-0.19140625	0.40478515625	33.9375	59.125	-32.6875
