18	11	28	12	26	09	0.541458425097	-0.358835991562	0.514174926504	-1.15771484375	-0.06396484375	0.283203125	56.875	9.875	-108.375
18	11	28	12	26	09	0.555254083334	-0.363414621542	0.513931997545	-1.0146484375	-0.0556640625	0.32080078125	66.4375	14.0	-94.625
18	11	28	12	26	09	0.567174921795	-0.365746032221	0.515780035425	-0.92578125	0.01220703125	0.31201171875	72.5625	19.0625	-83.0
18	11	28	12	26	09	0.577033591023	-0.36761934829	0.518011856041	-0.9306640625	0.07275390625	0.26220703125	64.8125	19.1875	-75.3125
18	11	28	12	26	09	0.584257637225	-0.370807056638	0.518336382711	-0.994140625	0.107421875	0.216796875	37.875	13.75	-67.25
18	11	28	12	26	09	0.588931787823	-0.375612625377	0.516360547723	-1.03759765625	0.10302734375	0.16748046875	8.5	6.25	-57.625
18	11	28	12	26	09	0.592678330661	-0.381609157909	0.512596562399	-1.04248046875	0.037109375	0.1318359375	-7.625	0.25	-52.9375
18	11	28	12	26	09	0.596938038168	-0.386727956016	0.508923247674	-0.99951171875	-0.005859375	0.154296875	-2.0625	-1.25	-50.8125
18	11	28	12	26	09	0.60239042483	-0.389182424634	0.507536364623	-0.9248046875	0.01025390625	0.1708984375	21.1875	2.25	-50.0
18	11	28	12	26	09	0.609139462054	-0.388250112036	0.508857284082	-0.8671875	0.05615234375	0.18408203125	47.875	4.9375	-48.6875
18	11	28	12	26	09	0.616619184237	-0.384669778169	0.511814676285	-0.83251953125	0.11181640625	0.18212890625	65.1875	3.4375	-46.6875
18	11	28	12	26	09	0.624124097304	-0.379357580904	0.515108387008	-0.79296875	0.1787109375	0.197265625	69.75	0.4375	-43.25
18	11	28	12	26	09	0.631059442293	-0.373667270115	0.518141368181	-0.7734375	0.2421875	0.197265625	64.8125	-1.8125	-42.75
18	11	28	12	26	09	0.637347896845	-0.369029437304	0.520034866991	-0.7666015625	0.27880859375	0.19775390625	53.1875	-3.75	-45.1875
18	11	28	12	26	09	0.643020555956	-0.365731292956	0.520825287515	-0.78076171875	0.30078125	0.20068359375	41.3125	-4.875	-48.75
18	11	28	12	26	09	0.648463367985	-0.363661967851	0.520772727376	-0.83056640625	0.30517578125	0.2080078125	33.5	-4.375	-54.0
18	11	28	12	26	09	0.653880796366	-0.362493983909	0.520089448878	-0.8662109375	0.28662109375	0.22509765625	29.125	-4.375	-57.875
18	11	28	12	26	09	0.659445729316	-0.361584274386	0.519121244709	-0.88671875	0.25146484375	0.24560546875	28.625	-3.4375	-59.0625
18	11	28	12	26	09	0.66499173927	-0.360481065822	0.518260198086	-0.89990234375	0.21533203125	0.2705078125	30.3125	-1.8125	-57.0625
18	11	28	12	26	09	0.669933743395	-0.359137221769	0.517770403173	-0.912109375	0.21826171875	0.2763671875	29.0625	-0.375	-52.6875
18	11	28	12	26	09	0.67347719217	-0.358467604642	0.517223647494	-0.923828125	0.22509765625	0.26953125	17.625	0.75	-46.0625
18	11	28	12	26	09	0.675043118451	-0.359555064267	0.515986846599	-0.95458984375	0.23095703125	0.263671875	-2.375	1.3125	-39.125
18	11	28	12	26	09	0.674510550309	-0.362676833765	0.51416857079	-1.02392578125	0.21044921875	0.25244140625	-23.375	2.8125	-31.4375
18	11	28	12	26	09	0.672147095227	-0.367568998134	0.51198418405	-1.1142578125	0.15673828125	0.23291015625	-39.625	4.0	-22.625
18	11	28	12	26	09	0.668479019525	-0.372937071703	0.509782393268	-1.16845703125	0.08251953125	0.22802734375	-48.0	4.6875	-10.25
18	11	28	12	26	09	0.664035307491	-0.377155452246	0.50826564992	-1.16650390625	0.02587890625	0.2509765625	-47.1875	5.75	5.4375
18	11	28	12	26	09	0.658966678691	-0.379107265779	0.508691024473	-1.19384765625	0.0244140625	0.2705078125	-36.75	10.1875	20.1875
18	11	28	12	26	09	0.653274634995	-0.379098267584	0.511547670363	-1.2841796875	0.04052734375	0.2421875	-23.9375	14.625	30.8125
18	11	28	12	26	09	0.646863061347	-0.377509722064	0.515879089876	-1.3896484375	0.08154296875	0.224609375	-18.1875	15.4375	40.4375
18	11	28	12	26	09	0.639976489112	-0.374830292765	0.521380941345	-1.5595703125	0.04638671875	0.17578125	-11.125	13.6875	51.375
18	11	28	12	26	09	0.632535615535	-0.37129346225	0.525231011452	-1.40625	0.01513671875	0.2001953125	-22.25	4.3125	69.125
18	11	28	12	26	09	0.62333268121	-0.36702892794	0.527806276383	-1.18212890625	-0.017578125	0.220703125	-38.6875	-1.875	92.5625
18	11	28	12	26	09	0.611251770123	-0.362331786244	0.529946861215	-1.04443359375	-0.015625	0.2119140625	-56.3125	-4.4375	113.875
18	11	28	12	26	09	0.596348618419	-0.358419558583	0.530670920014	-1.01123046875	0.00927734375	0.16796875	-79.375	-6.8125	128.375
18	11	28	12	26	09	0.579350862445	-0.355410879901	0.529240552914	-1.04541015625	0.02685546875	0.109375	-101.3125	-12.125	136.75
18	11	28	12	26	09	0.561603023917	-0.3525507082	0.525591092159	-1.11962890625	0.01904296875	0.0556640625	-113.25	-20.625	139.3125
18	11	28	12	26	09	0.543978052221	-0.349386262445	0.520356025043	-1.1943359375	0.0341796875	0.0166015625	-116.5	-27.9375	136.375
18	11	28	12	26	10	0.526999660184	-0.345839712138	0.51424277705	-1.21044921875	0.0302734375	0.00439453125	-112.875	-31.8125	131.0625
18	11	28	12	26	10	0.511003048974	-0.340709390752	0.508683637142	-1.1396484375	-0.0283203125	0.03564453125	-98.875	-34.0	128.8125
18	11	28	12	26	10	0.495990417651	-0.332837281252	0.505573299213	-1.0302734375	-0.07080078125	0.1015625	-72.125	-33.5	131.5
18	11	28	12	26	10	0.48218847183	-0.321601399756	0.50672515103	-0.93017578125	-0.0361328125	0.13818359375	-34.75	-28.75	134.3125
18	11	28	12	26	10	0.468825450206	-0.308481164606	0.511246188116	-0.85302734375	0.03564453125	0.14013671875	-7.8125	-22.375	135.5625
18	11	28	12	26	10	0.455281022153	-0.295300923069	0.516807134276	-0.796875	0.13720703125	0.091796875	-0.8125	-17.1875	132.6875
18	11	28	12	26	10	0.441487441033	-0.283643320681	0.520775728867	-0.748046875	0.23583984375	0.0439453125	-11.75	-15.0625	125.5
18	11	28	12	26	10	0.428301269106	-0.27473051336	0.521444740198	-0.74560546875	0.27880859375	-0.01708984375	-32.5	-16.25	109.75
18	11	28	12	26	10	0.415796150767	-0.270523860863	0.519195839464	-0.73291015625	0.28173828125	-0.03369140625	-58.3125	-20.1875	94.75
18	11	28	12	26	10	0.404741641124	-0.268688388513	0.51369411125	-0.7255859375	0.25439453125	-0.0302734375	-74.9375	-23.1875	79.8125
18	11	28	12	26	10	0.395655764441	-0.268694334321	0.506563898349	-0.72705078125	0.20947265625	-0.0087890625	-78.125	-23.3125	64.125
18	11	28	12	26	10	0.388992661638	-0.269725179943	0.499592803312	-0.74267578125	0.17236328125	0.046875	-67.125	-20.375	49.5
18	11	28	12	26	10	0.384891060528	-0.271303641619	0.494450123904	-0.76123046875	0.1455078125	0.09130859375	-46.5625	-15.1875	35.5625
18	11	28	12	26	10	0.382948084664	-0.27320300079	0.491533459643	-0.77734375	0.15234375	0.1318359375	-24.9375	-9.25	22.75
18	11	28	12	26	10	0.383011726845	-0.275707405603	0.490987463067	-0.81494140625	0.189453125	0.14599609375	-5.75	-2.875	8.9375
18	11	28	12	26	10	0.38563452225	-0.27973457035	0.491656549023	-0.9013671875	0.2060546875	0.12255859375	6.6875	0.375	-8.3125
18	11	28	12	26	10	0.390575760772	-0.285531084372	0.491286810198	-1.0009765625	0.19384765625	0.14697265625	6.875	-0.0625	-24.5
18	11	28	12	26	10	0.397236979215	-0.292495329502	0.489893053961	-1.05322265625	0.18359375	0.1845703125	6.1875	0.8125	-37.25
18	11	28	12	26	10	0.405109101752	-0.3000016928	0.488181798375	-1.02099609375	0.17333984375	0.240234375	10.3125	4.6875	-48.5
18	11	28	12	26	10	0.415288578456	-0.308292564636	0.487860318577	-1.0615234375	0.1787109375	0.22998046875	25.375	8.8125	-65.1875
18	11	28	12	26	10	0.428491040661	-0.317217655031	0.488553032685	-1.16845703125	0.18017578125	0.2109375	41.6875	8.625	-84.3125
18	11	28	12	26	10	0.444107903879	-0.323742210304	0.491167716123	-1.3564453125	0.1474609375	0.20166015625	64.9375	11.5	-105.5
18	11	28	12	26	10	0.461687659756	-0.331372594503	0.494220647944	-1.42041015625	0.1650390625	0.25146484375	75.8125	17.625	-123.875
18	11	28	12	26	10	0.4783531743	-0.339431160174	0.49739696534	-1.193359375	0.1259765625	0.3115234375	76.375	26.0	-124.625
18	11	28	12	26	10	0.495619577657	-0.346567482997	0.501723267037	-1.08056640625	0.0439453125	0.390625	90.5	30.4375	-127.5625
18	11	28	12	26	10	0.512781400367	-0.352800439724	0.506555510255	-1.048828125	0.11669921875	0.421875	97.625	32.4375	-128.4375
18	11	28	12	26	10	0.528580129477	-0.359080473639	0.51081837224	-1.009765625	0.19140625	0.42333984375	91.625	34.8125	-126.625
18	11	28	12	26	10	0.542618134465	-0.366831832186	0.512404863761	-1.07958984375	0.1669921875	0.36376953125	68.9375	31.75	-125.1875
18	11	28	12	26	10	0.553666999253	-0.376171283915	0.509537218583	-1.15966796875	0.16357421875	0.294921875	28.25	20.3125	-114.25
18	11	28	12	26	10	0.561058781225	-0.386673996852	0.502401526138	-1.060546875	0.13232421875	0.21337890625	-15.125	6.625	-97.3125
18	11	28	12	26	10	0.567061540837	-0.398652198408	0.492287548638	-0.953125	-0.02392578125	0.17626953125	-38.5	-1.6875	-87.75
18	11	28	12	26	10	0.573679320005	-0.408515340866	0.483101587173	-0.837890625	-0.099609375	0.22412109375	-25.125	-0.9375	-80.1875
18	11	28	12	26	10	0.581501277544	-0.414686646335	0.478165320487	-0.77294921875	-0.09326171875	0.23291015625	10.0625	7.0	-75.3125
18	11	28	12	26	10	0.59030464701	-0.417199075826	0.477627325288	-0.79296875	-0.0029296875	0.1943359375	43.0	11.875	-73.6875
18	11	28	12	26	10	0.599212982638	-0.417257812907	0.479028571635	-0.83251953125	0.125	0.1474609375	56.3125	8.625	-73.875
18	11	28	12	26	10	0.6073919054	-0.416647286329	0.479760865887	-0.8642578125	0.21337890625	0.1396484375	48.8125	1.1875	-73.25
18	11	28	12	26	10	0.614757670571	-0.416694858716	0.478707745263	-0.87255859375	0.26318359375	0.16162109375	33.625	-3.875	-74.25
18	11	28	12	26	10	0.621846241697	-0.417249794684	0.476577881348	-0.87255859375	0.244140625	0.208984375	25.875	-4.5625	-74.9375
18	11	28	12	26	10	0.628866929815	-0.417494884979	0.474747838503	-0.8818359375	0.23486328125	0.24755859375	27.875	-1.5	-73.8125
18	11	28	12	26	10	0.635889920348	-0.416520715728	0.474201266192	-0.89697265625	0.22802734375	0.27099609375	36.4375	2.3125	-69.625
18	11	28	12	26	10	0.642822980444	-0.414123995662	0.47467093799	-0.90234375	0.22802734375	0.2890625	43.3125	3.6875	-63.375
18	11	28	12	26	10	0.648964751426	-0.411096463587	0.475370342749	-0.88134765625	0.236328125	0.2890625	40.625	1.875	-55.25
18	11	28	12	26	10	0.653478436008	-0.408591878445	0.475673216122	-0.86572265625	0.24755859375	0.2783203125	27.625	0.0	-46.1875
18	11	28	12	26	10	0.65561499685	-0.408042663992	0.474940907782	-0.88525390625	0.25244140625	0.24658203125	4.6875	-1.8125	-38.25
18	11	28	12	26	10	0.655472419907	-0.409983075195	0.473094955462	-0.9609375	0.21630859375	0.22802734375	-18.6875	-1.9375	-31.75
18	11	28	12	26	10	0.653695896616	-0.413641185002	0.470892982483	-1.04736328125	0.12744140625	0.208984375	-31.875	0.0	-23.875
18	11	28	12	26	10	0.651327965917	-0.417189265021	0.4694371086	-1.13232421875	0.0048828125	0.2197265625	-29.625	3.4375	-12.5
18	11	28	12	26	10	0.649073434369	-0.418229374863	0.470355452816	-1.14208984375	-0.06201171875	0.240234375	-12.375	8.0	3.0
18	11	28	12	26	10	0.647424208149	-0.415298794404	0.474871343396	-1.142578125	-0.07373046875	0.2666015625	15.75	15.0	18.5625
18	11	28	12	26	10	0.64637525349	-0.407784048023	0.484262630896	-1.2607421875	-0.0537109375	0.24267578125	51.625	22.4375	32.1875
18	11	28	12	26	11	0.645843904353	-0.395770898386	0.497216184185	-1.36083984375	0.03662109375	0.23583984375	80.5	24.4375	43.125
18	11	28	12	26	11	0.644898083168	-0.381042848118	0.512573736745	-1.4697265625	0.0673828125	0.19091796875	97.625	25.75	55.5625
18	11	28	12	26	11	0.642842825107	-0.364818796588	0.527238541898	-1.30712890625	0.048828125	0.20263671875	91.25	20.125	76.375
18	11	28	12	26	11	0.638370928714	-0.347719588955	0.541080245057	-1.11474609375	0.0859375	0.2216796875	74.9375	17.75	99.9375
18	11	28	12	26	11	0.630448166542	-0.332589026962	0.553663986708	-1.0322265625	0.12255859375	0.19384765625	45.9375	18.8125	118.5625
18	11	28	12	26	11	0.619154595814	-0.320197654736	0.564038606064	-1.06103515625	0.1259765625	0.16943359375	10.3125	19.4375	130.3125
18	11	28	12	26	11	0.605254190131	-0.310501015046	0.571805289749	-1.1298828125	0.12158203125	0.15283203125	-22.875	18.4375	138.125
18	11	28	12	26	11	0.58949291039	-0.302742269159	0.576980377089	-1.2216796875	0.0986328125	0.150390625	-48.875	15.125	143.875
18	11	28	12	26	11	0.572658317432	-0.295851083414	0.58010495085	-1.2890625	0.076171875	0.14111328125	-65.125	10.5625	147.625
18	11	28	12	26	11	0.555325899351	-0.28895502391	0.581694418644	-1.2666015625	0.0263671875	0.14794921875	-72.4375	6.0625	151.0625
18	11	28	12	26	11	0.537499178031	-0.281018193919	0.583033403197	-1.17724609375	0.00927734375	0.18310546875	-70.1875	4.8125	155.6875
18	11	28	12	26	11	0.519234088076	-0.27161063735	0.585092038121	-1.05517578125	0.0302734375	0.20068359375	-60.0625	6.0	159.5625
18	11	28	12	26	11	0.500322645925	-0.261361665225	0.587422855238	-0.935546875	0.08642578125	0.201171875	-54.875	7.9375	161.625
18	11	28	12	26	11	0.481111637035	-0.251054575377	0.589456366258	-0.85498046875	0.14599609375	0.17041015625	-53.8125	8.4375	159.25
18	11	28	12	26	11	0.462168573113	-0.241033240257	0.590589423329	-0.79443359375	0.20068359375	0.12060546875	-54.875	6.4375	153.125
18	11	28	12	26	11	0.443982674811	-0.231757247217	0.590044063431	-0.75439453125	0.2509765625	0.07421875	-61.0	2.1875	143.8125
18	11	28	12	26	11	0.426766027217	-0.223942298893	0.587108469079	-0.7197265625	0.28173828125	0.03759765625	-72.3125	-2.5625	132.0
18	11	28	12	26	11	0.410795026144	-0.217849546554	0.581827368381	-0.69970703125	0.2802734375	0.0205078125	-83.0	-5.9375	118.0625
18	11	28	12	26	11	0.396505626587	-0.213390343372	0.575165104576	-0.6923828125	0.25439453125	0.02001953125	-86.0	-7.5625	102.0
18	11	28	12	26	11	0.385573530781	-0.212288228599	0.568502749042	-0.69775390625	0.2333984375	0.046875	-78.6875	-8.4375	84.4375
18	11	28	12	26	11	0.377207955905	-0.211859031545	0.562760089554	-0.69677734375	0.26123046875	0.087890625	-63.5625	-7.25	66.0625
18	11	28	12	26	11	0.371483647567	-0.212293809766	0.558141057073	-0.69580078125	0.34326171875	0.13134765625	-48.75	-5.125	44.125
18	11	28	12	26	11	0.368006307092	-0.213454645198	0.552711413288	-0.638671875	0.41064453125	0.2158203125	-46.0625	-5.1875	23.75
18	11	28	12	26	11	0.36671379754	-0.215462667329	0.546591554089	-0.59521484375	0.5087890625	0.2685546875	-45.3125	-5.875	2.375
18	11	28	12	26	11	0.369772239024	-0.22059373916	0.540253233345	-0.69775390625	0.56494140625	0.2314453125	-41.0625	-7.3125	-31.375
18	11	28	12	26	11	0.378009097917	-0.230296839406	0.531336863777	-0.865234375	0.5146484375	0.21826171875	-47.6875	-12.1875	-67.25
18	11	28	12	26	11	0.389647315454	-0.2437126771	0.519346648997	-1.009765625	0.3642578125	0.26025390625	-56.5625	-13.6875	-88.4375
18	11	28	12	26	11	0.403470437362	-0.257891467149	0.507908851632	-1.05224609375	0.1904296875	0.3134765625	-39.8125	-10.8125	-97.0625
18	11	28	12	26	11	0.418223044249	-0.267218401594	0.502636714739	-1.1416015625	0.0634765625	0.29541015625	4.375	-7.75	-105.8125
18	11	28	12	26	11	0.43545636657	-0.274189795155	0.502172627947	-1.265625	-0.0234375	0.25927734375	46.9375	-6.8125	-111.125
18	11	28	12	26	11	0.453988592837	-0.280034910451	0.505686406515	-1.435546875	-0.0576171875	0.2587890625	79.4375	0.625	-116.0625
18	11	28	12	26	11	0.47193160155	-0.286259597939	0.51068956417	-1.37060546875	0.00341796875	0.25537109375	88.25	11.625	-119.25
18	11	28	12	26	11	0.488670072209	-0.291944660926	0.515221593745	-1.0771484375	-0.04638671875	0.2919921875	85.4375	13.875	-114.8125
18	11	28	12	26	11	0.504532258283	-0.29602969425	0.520401891377	-0.9951171875	-0.06982421875	0.32568359375	91.5	13.6875	-106.8125
18	11	28	12	26	11	0.519904072224	-0.301151290486	0.52460383902	-1.001953125	-0.021484375	0.32568359375	90.375	18.125	-93.75
18	11	28	12	26	11	0.532317468982	-0.30562017741	0.529570732816	-1.0234375	0.0029296875	0.28955078125	84.5	23.625	-79.6875
18	11	28	12	26	11	0.541474949794	-0.310382157558	0.53421133588	-1.07373046875	0.09228515625	0.21923828125	66.375	25.625	-69.3125
18	11	28	12	26	11	0.546762164833	-0.317388173379	0.535897723514	-1.09521484375	0.1923828125	0.1728515625	25.3125	24.5625	-61.5625
18	11	28	12	26	11	0.548858321319	-0.327898899258	0.533232461637	-1.04833984375	0.1669921875	0.14990234375	-20.5	23.125	-55.6875
18	11	28	12	26	11	0.549825407057	-0.340222781853	0.527912960217	-0.9853515625	0.06396484375	0.14208984375	-42.75	20.75	-51.0
18	11	28	12	26	11	0.551529162796	-0.350962005985	0.523085981094	-0.9033203125	0.00390625	0.171875	-32.0	19.5	-48.0
18	11	28	12	26	11	0.554717866796	-0.358112865811	0.521573962563	-0.8193359375	0.03466796875	0.18896484375	0.375	22.4375	-48.0
18	11	28	12	26	11	0.559946771874	-0.361151629516	0.52417951568	-0.7587890625	0.1318359375	0.20263671875	39.625	26.3125	-52.5
18	11	28	12	26	11	0.566795660225	-0.361464990292	0.529257502672	-0.751953125	0.2392578125	0.189453125	65.5	26.5	-61.125
18	11	28	12	26	11	0.57448730791	-0.361038294336	0.534080317064	-0.775390625	0.3232421875	0.17431640625	69.375	21.5	-70.0
18	11	28	12	26	11	0.582605260357	-0.360977214222	0.536765915094	-0.79931640625	0.359375	0.19189453125	59.6875	13.75	-77.1875
18	11	28	12	26	11	0.591085039639	-0.362378343694	0.537006007718	-0.82470703125	0.35302734375	0.2119140625	46.4375	7.9375	-85.375
18	11	28	12	26	11	0.600060913689	-0.365127086328	0.535544141665	-0.8642578125	0.3349609375	0.25244140625	38.8125	7.375	-95.25
18	11	28	12	26	11	0.610014426375	-0.370745209706	0.533106463874	-0.91455078125	0.31201171875	0.2802734375	39.4375	9.25	-104.5625
18	11	28	12	26	12	0.620587354908	-0.376124646498	0.530554272535	-0.96044921875	0.28076171875	0.2978515625	45.0625	9.375	-110.0625
18	11	28	12	26	12	0.631395148721	-0.380460746518	0.528054856109	-1.0	0.2568359375	0.31005859375	50.9375	7.25	-109.375
18	11	28	12	26	12	0.641746882727	-0.383986079441	0.525226548019	-1.005859375	0.2626953125	0.30908203125	49.1875	3.5625	-103.6875
18	11	28	12	26	12	0.650221967295	-0.385323503195	0.522289437167	-1.0419921875	0.27783203125	0.28955078125	35.5	-0.25	-97.0625
18	11	28	12	26	12	0.656582690975	-0.38844401277	0.518027079883	-1.0888671875	0.26025390625	0.2724609375	11.75	-3.375	-89.625
18	11	28	12	26	12	0.660772354274	-0.393558113833	0.512760811773	-1.14013671875	0.185546875	0.265625	-10.1875	-4.0	-79.4375
18	11	28	12	26	12	0.663389944348	-0.399169218515	0.507506429962	-1.1611328125	0.0966796875	0.27978515625	-20.9375	-2.0625	-65.5625
18	11	28	12	26	12	0.664834641932	-0.403283371212	0.503875318504	-1.17822265625	0.056640625	0.29052734375	-18.1875	1.8125	-48.3125
18	11	28	12	26	12	0.665015107239	-0.405112920307	0.503079808524	-1.26611328125	0.07080078125	0.27001953125	-8.6875	6.6875	-31.4375
18	11	28	12	26	12	0.663347532173	-0.405284101364	0.504102619453	-1.3212890625	0.12255859375	0.236328125	-10.3125	6.875	-12.75
18	11	28	12	26	12	0.659140857723	-0.405409165386	0.505754342726	-1.41650390625	0.1513671875	0.2041015625	-25.1875	4.9375	6.0
18	11	28	12	26	12	0.652808660043	-0.406212401364	0.506376871783	-1.388671875	0.07275390625	0.173828125	-45.125	-2.25	29.125
18	11	28	12	26	12	0.64508486802	-0.406191673448	0.505435499298	-1.1787109375	-0.03076171875	0.2138671875	-61.8125	-11.8125	59.1875
18	11	28	12	26	12	0.636148115766	-0.403406533976	0.505524726038	-1.041015625	-0.06494140625	0.22119140625	-58.75	-15.5625	88.0625
18	11	28	12	26	12	0.625448650801	-0.398634247915	0.507097432503	-0.99755859375	-0.02783203125	0.18359375	-56.875	-16.8125	109.375
18	11	28	12	26	12	0.612810903463	-0.39332205796	0.508559805543	-1.01611328125	0.01123046875	0.12255859375	-65.5	-18.9375	123.5625
18	11	28	12	26	12	0.598410836644	-0.388259009781	0.508746871015	-1.072265625	0.033203125	0.0732421875	-80.0	-23.8125	131.875
18	11	28	12	26	12	0.583039613499	-0.38362688137	0.507290852993	-1.17333984375	0.0107421875	0.02734375	-90.9375	-28.6875	134.5625
18	11	28	12	26	12	0.567472021607	-0.378558833818	0.504785803882	-1.24609375	-0.03662109375	0.0048828125	-92.1875	-33.625	135.75
18	11	28	12	26	12	0.552258683687	-0.371651539011	0.502697006946	-1.2177734375	-0.0732421875	0.03662109375	-81.75	-36.625	139.0
18	11	28	12	26	12	0.537849493934	-0.36151640406	0.502936884932	-1.13134765625	-0.09423828125	0.08984375	-55.9375	-36.0625	145.3125
18	11	28	12	26	12	0.524006589364	-0.347547294099	0.506855063259	-1.01806640625	-0.05615234375	0.138671875	-23.25	-32.4375	153.375
18	11	28	12	26	12	0.510159584834	-0.331011656922	0.51400500884	-0.90869140625	0.02197265625	0.15185546875	2.5	-26.5	159.25
18	11	28	12	26	12	0.495868701122	-0.313488632319	0.522786241397	-0.84326171875	0.11572265625	0.1298828125	14.875	-20.375	160.0625
18	11	28	12	26	12	0.481102265998	-0.296950332921	0.530848313548	-0.814453125	0.2158203125	0.08349609375	10.5	-16.9375	155.0
18	11	28	12	26	12	0.465950112391	-0.28290264225	0.535897561802	-0.791015625	0.28369140625	0.029296875	-10.6875	-16.6875	144.875
18	11	28	12	26	12	0.450708369203	-0.272048645929	0.536772670473	-0.77978515625	0.29931640625	-0.00390625	-38.8125	-18.625	131.8125
18	11	28	12	26	12	0.436291297529	-0.264045348784	0.533889196907	-0.7763671875	0.27001953125	-0.02783203125	-60.9375	-21.25	116.1875
18	11	28	12	26	12	0.423235597341	-0.258006471006	0.528525675998	-0.77001953125	0.2001953125	-0.017578125	-71.5	-23.1875	101.8125
18	11	28	12	26	12	0.412497636254	-0.255812014433	0.523526520591	-0.77197265625	0.1357421875	0.0087890625	-66.5	-21.4375	89.1875
18	11	28	12	26	12	0.403821884934	-0.254402904535	0.519731461641	-0.78955078125	0.09033203125	0.03857421875	-50.0	-16.6875	77.625
18	11	28	12	26	12	0.397233581979	-0.253245564172	0.518515562218	-0.8173828125	0.06689453125	0.0576171875	-26.25	-11.0	67.3125
18	11	28	12	26	12	0.392587081457	-0.252080946272	0.520031395214	-0.8349609375	0.07958984375	0.0625	-2.8125	-6.4375	56.625
18	11	28	12	26	12	0.389712366088	-0.250978425897	0.523319315088	-0.857421875	0.13916015625	0.08349609375	13.125	-2.9375	44.25
18	11	28	12	26	12	0.388796726938	-0.251039393704	0.527286487286	-0.8994140625	0.193359375	0.09912109375	21.8125	0.3125	28.5
18	11	28	12	26	12	0.390205323021	-0.253178739229	0.530710978206	-0.974609375	0.24462890625	0.11083984375	22.5	2.8125	8.25
18	11	28	12	26	12	0.393747082463	-0.257635472807	0.532117046181	-1.02392578125	0.26171875	0.1611328125	15.6875	4.375	-11.4375
18	11	28	12	26	12	0.399115718724	-0.264042605781	0.532540854239	-1.025390625	0.2861328125	0.205078125	14.4375	9.125	-31.125
18	11	28	12	26	12	0.407490843975	-0.272779595825	0.532741175287	-1.06640625	0.27783203125	0.24609375	22.375	14.875	-56.5
18	11	28	12	26	12	0.419458145311	-0.283219702306	0.533661607168	-1.146484375	0.265625	0.27880859375	39.5	20.5	-82.5625
18	11	28	12	26	12	0.433364376618	-0.29279562178	0.536700417408	-1.259765625	0.29150390625	0.29638671875	59.6875	25.625	-109.5625
18	11	28	12	26	12	0.448991428755	-0.303600240161	0.539387881445	-1.20361328125	0.3251953125	0.30712890625	64.75	28.9375	-128.25
18	11	28	12	26	12	0.465535218077	-0.315199143326	0.540977925504	-1.0791015625	0.27880859375	0.333984375	64.625	29.6875	-140.0
18	11	28	12	26	12	0.482931236285	-0.326735453467	0.540978203639	-1.0078125	0.2265625	0.34423828125	62.3125	24.3125	-147.75
18	11	28	12	26	12	0.500194946402	-0.337959660553	0.539075261333	-0.99609375	0.20654296875	0.30859375	53.625	17.0625	-148.5625
18	11	28	12	26	12	0.516441345143	-0.348953453514	0.534813741418	-1.03125	0.10498046875	0.2802734375	38.5625	8.5625	-142.5625
18	11	28	12	26	12	0.531336505474	-0.359270151777	0.528589791775	-1.09423828125	0.00341796875	0.234375	24.0625	-1.0625	-131.8125
18	11	28	12	26	12	0.545297469015	-0.368353506325	0.521798529506	-1.142578125	-0.05615234375	0.20751953125	20.0625	-7.1875	-121.75
18	11	28	12	26	12	0.559092357775	-0.375495216707	0.516122814121	-1.17236328125	-0.1396484375	0.17919921875	30.75	-8.625	-114.125
18	11	28	12	26	12	0.573147399594	-0.379534667804	0.512780756548	-1.138671875	-0.1787109375	0.18212890625	52.125	-8.75	-104.625
18	11	28	12	26	13	0.588397757343	-0.380871577367	0.511735144976	-1.0693359375	-0.1259765625	0.19140625	79.25	-7.5	-95.1875
18	11	28	12	26	13	0.603219010982	-0.377751943637	0.51361812986	-0.9990234375	-0.0361328125	0.17333984375	100.3125	-7.75	-87.375
18	11	28	12	26	13	0.61764278318	-0.372575506328	0.51595359682	-0.95703125	0.052734375	0.15771484375	105.75	-11.8125	-79.25
18	11	28	12	26	13	0.630210100628	-0.366284824588	0.518328733611	-0.923828125	0.125	0.15771484375	97.5625	-15.5625	-70.6875
18	11	28	12	26	13	0.641398671349	-0.359581230769	0.520236094015	-0.884765625	0.18359375	0.16552734375	88.0	-17.1875	-64.5625
18	11	28	12	26	13	0.651332214845	-0.353041470402	0.521932505776	-0.87646484375	0.24267578125	0.1640625	79.75	-16.875	-62.3125
18	11	28	12	26	13	0.66018020094	-0.346875377399	0.523395453316	-0.87060546875	0.32861328125	0.16357421875	70.875	-16.0625	-63.625
18	11	28	12	26	13	0.668186629102	-0.342058816981	0.523953048708	-0.86474609375	0.37255859375	0.173828125	58.4375	-14.875	-68.0
18	11	28	12	26	13	0.675693464199	-0.338884382406	0.523341983924	-0.84814453125	0.37109375	0.1962890625	46.6875	-13.875	-72.0625
18	11	28	12	26	13	0.683002758926	-0.33661842855	0.521987452577	-0.83251953125	0.34521484375	0.2236328125	40.25	-12.4375	-74.25
18	11	28	12	26	13	0.690199161472	-0.334784435857	0.520273934594	-0.83251953125	0.3095703125	0.24560546875	37.875	-11.6875	-74.3125
18	11	28	12	26	13	0.696984078777	-0.333202214383	0.518633305663	-0.82861328125	0.287109375	0.24658203125	36.4375	-10.125	-73.0625
18	11	28	12	26	13	0.70295741324	-0.332221689699	0.517040222936	-0.85546875	0.26220703125	0.23388671875	30.6875	-8.6875	-69.5625
18	11	28	12	26	13	0.707567767143	-0.332237004534	0.515415996011	-0.8994140625	0.251953125	0.23095703125	19.375	-7.25	-63.9375
18	11	28	12	26	13	0.710309960691	-0.334066032041	0.513764624829	-0.9697265625	0.22314453125	0.21337890625	3.125	-4.1875	-57.125
18	11	28	12	26	13	0.711147795056	-0.337720431727	0.512226615408	-1.05224609375	0.16455078125	0.2099609375	-12.0625	0.125	-48.375
18	11	28	12	26	13	0.71032358539	-0.342283439325	0.511166869534	-1.09423828125	0.0888671875	0.2255859375	-22.625	5.9375	-35.5
18	11	28	12	26	13	0.70808607419	-0.34595568214	0.511914309476	-1.15771484375	0.06787109375	0.2431640625	-21.125	14.0625	-21.625
18	11	28	12	26	13	0.704125766009	-0.348461684999	0.515215463842	-1.28515625	0.07470703125	0.21875	-16.8125	22.875	-8.25
18	11	28	12	26	13	0.698689867351	-0.350107895442	0.519729555385	-1.35791015625	0.07568359375	0.21826171875	-19.5	26.5	7.6875
18	11	28	12	26	13	0.691632825524	-0.350730051669	0.525484687577	-1.46728515625	0.0888671875	0.19921875	-22.8125	28.25	24.8125
18	11	28	12	26	13	0.683063533703	-0.351389220224	0.530105155054	-1.3447265625	0.03564453125	0.20849609375	-39.8125	23.3125	48.3125
18	11	28	12	26	13	0.672710410728	-0.351706504547	0.533419497265	-1.12890625	0.01318359375	0.23193359375	-59.75	18.0	75.0625
18	11	28	12	26	13	0.659824148888	-0.352007943259	0.536099491182	-1.02734375	0.0166015625	0.20849609375	-78.4375	14.875	98.5625
18	11	28	12	26	13	0.644571720177	-0.353110549359	0.537753490034	-1.03076171875	0.03759765625	0.1630859375	-97.5	11.6875	114.9375
18	11	28	12	26	13	0.627146039505	-0.35504705711	0.537789173147	-1.07568359375	0.033203125	0.1083984375	-117.8125	7.75	125.5
18	11	28	12	26	13	0.608129302828	-0.357382020281	0.535859394713	-1.134765625	-0.00244140625	0.0595703125	-133.5625	1.125	133.0625
18	11	28	12	26	13	0.588830214033	-0.358779309432	0.532492462654	-1.2060546875	-0.0244140625	0.021484375	-135.875	-6.875	136.5
18	11	28	12	26	13	0.569789341372	-0.358781119292	0.528283529682	-1.23583984375	-0.07421875	0.00244140625	-130.875	-14.0625	138.0
18	11	28	12	26	13	0.551239674662	-0.356160281436	0.524687879901	-1.18359375	-0.138671875	0.04052734375	-115.125	-17.875	142.9375
18	11	28	12	26	13	0.533292445115	-0.350055187448	0.523587340529	-1.08154296875	-0.1298828125	0.09130859375	-87.625	-16.9375	149.375
18	11	28	12	26	13	0.515826742485	-0.340649514828	0.525592720334	-0.98046875	-0.06884765625	0.1201171875	-58.375	-13.0	154.9375
18	11	28	12	26	13	0.498722001654	-0.328981959236	0.529972236	-0.927734375	0.00830078125	0.109375	-36.0	-10.3125	156.75
18	11	28	12	26	13	0.482381014391	-0.316236370436	0.535117594985	-0.91552734375	0.0966796875	0.07666015625	-23.375	-11.0625	153.125
18	11	28	12	26	13	0.466441731165	-0.303535033902	0.539502546685	-0.8994140625	0.171875	0.03466796875	-23.375	-13.625	146.9375
18	11	28	12	26	13	0.45100845193	-0.292004930848	0.54183272808	-0.873046875	0.23046875	-0.00830078125	-33.5625	-16.875	137.5
18	11	28	12	26	13	0.436430596537	-0.282367543997	0.541112900462	-0.85791015625	0.22705078125	-0.03125	-49.0625	-21.125	124.4375
18	11	28	12	26	13	0.422987751	-0.274423222005	0.537798711985	-0.84130859375	0.1943359375	-0.01611328125	-60.75	-24.4375	111.0625
18	11	28	12	26	13	0.411696580347	-0.270456270944	0.533465991436	-0.81640625	0.15625	0.02685546875	-63.375	-24.4375	98.5625
18	11	28	12	26	13	0.402369540896	-0.267595277198	0.52890353032	-0.8134765625	0.1259765625	0.064453125	-56.875	-22.1875	84.875
18	11	28	12	26	13	0.395095541983	-0.265390918669	0.525227427586	-0.80615234375	0.115234375	0.0947265625	-43.0625	-18.875	71.6875
18	11	28	12	26	13	0.389789403444	-0.263379466937	0.52327976131	-0.79443359375	0.13623046875	0.1220703125	-25.5625	-15.3125	58.5625
18	11	28	12	26	13	0.386248776886	-0.261853232118	0.522851931543	-0.78466796875	0.19482421875	0.13525390625	-11.0	-10.6875	43.8125
18	11	28	12	26	13	0.384609956169	-0.262042618923	0.523108605677	-0.8173828125	0.25927734375	0.13134765625	-4.4375	-5.6875	24.9375
18	11	28	12	26	13	0.385283138506	-0.264912677617	0.522744739887	-0.8857421875	0.29736328125	0.12158203125	-5.1875	-2.25	3.0625
18	11	28	12	26	13	0.388513053491	-0.270707838528	0.520967621609	-0.96240234375	0.28369140625	0.12548828125	-8.9375	0.1875	-18.9375
18	11	28	12	26	13	0.394120173657	-0.278820033029	0.517965586752	-1.00244140625	0.2353515625	0.16162109375	-9.0	3.4375	-38.0625
18	11	28	12	26	13	0.401930834158	-0.288279321143	0.515399235175	-1.01318359375	0.21435546875	0.1875	1.4375	8.6875	-55.5625
18	11	28	12	26	13	0.41249034031	-0.298960888849	0.514300622589	-1.07080078125	0.1953125	0.18115234375	19.5	13.8125	-75.0625
18	11	28	12	26	13	0.425548501434	-0.310188967912	0.514295994418	-1.14013671875	0.19140625	0.18017578125	35.5	16.375	-92.375
18	11	28	12	26	14	0.439963738911	-0.319352147889	0.515529098064	-1.24560546875	0.20849609375	0.17822265625	51.25	18.8125	-111.125
18	11	28	12	26	14	0.456246153621	-0.329717956101	0.516244811682	-1.29345703125	0.20068359375	0.19384765625	56.5625	21.3125	-128.5
18	11	28	12	26	14	0.471811627038	-0.341132623999	0.51569682236	-1.18212890625	0.12939453125	0.248046875	48.4375	25.8125	-132.3125
18	11	28	12	26	14	0.48671337437	-0.352308702893	0.515156869787	-1.05224609375	0.03125	0.30908203125	49.625	29.3125	-129.6875
18	11	28	12	26	14	0.501305820397	-0.362016902566	0.515405618828	-1.00537109375	0.005859375	0.3359375	57.5625	29.75	-125.25
18	11	28	12	26	14	0.51503399552	-0.370619390945	0.515766444909	-1.03955078125	0.01025390625	0.32470703125	58.375	28.3125	-118.125
18	11	28	12	26	14	0.526818069117	-0.378557022901	0.515098793335	-1.09130859375	-0.00048828125	0.2880859375	45.9375	23.625	-106.125
18	11	28	12	26	14	0.537421311748	-0.386784651056	0.512213475092	-1.12939453125	0.02392578125	0.2236328125	29.875	16.1875	-94.5625
18	11	28	12	26	14	0.54626975024	-0.395145291961	0.507878278407	-1.140625	0.04150390625	0.15087890625	12.5625	7.3125	-89.0
18	11	28	12	26	14	0.554455501595	-0.4037564006	0.501903081199	-1.09375	-0.00244140625	0.13720703125	1.25	1.25	-86.3125
18	11	28	12	26	14	0.56307591697	-0.410908083798	0.49630030145	-0.98583984375	-0.03173828125	0.17236328125	7.9375	0.875	-83.9375
18	11	28	12	26	14	0.572582820572	-0.415291921029	0.493174415331	-0.9072265625	-0.01611328125	0.19140625	31.1875	4.375	-81.1875
18	11	28	12	26	14	0.582742914568	-0.416532696032	0.492770875596	-0.87890625	0.05615234375	0.177734375	53.25	4.9375	-78.125
18	11	28	12	26	14	0.592853180476	-0.415601493448	0.493423773393	-0.89453125	0.130859375	0.1728515625	61.25	1.4375	-75.0
18	11	28	12	26	14	0.602265994837	-0.413779383703	0.493922816481	-0.890625	0.1787109375	0.1767578125	57.8125	-2.875	-70.5625
18	11	28	12	26	14	0.61098382298	-0.411757929053	0.49379212067	-0.87255859375	0.19921875	0.19140625	50.6875	-5.3125	-67.1875
18	11	28	12	26	14	0.619038174118	-0.409741990027	0.493301767227	-0.8623046875	0.216796875	0.220703125	45.4375	-5.25	-65.125
18	11	28	12	26	14	0.626543287702	-0.407543062054	0.492933618264	-0.84375	0.2314453125	0.236328125	42.9375	-3.5625	-62.625
18	11	28	12	26	14	0.633618562943	-0.405159427879	0.492746619655	-0.81884765625	0.2294921875	0.24462890625	41.8125	-2.8125	-59.75
18	11	28	12	26	14	0.640468761883	-0.402238553398	0.492513336475	-0.806640625	0.2177734375	0.265625	41.5	-3.4375	-55.375
18	11	28	12	26	14	0.646814525271	-0.398819109948	0.492511692405	-0.79931640625	0.21044921875	0.2666015625	40.25	-4.375	-48.9375
18	11	28	12	26	14	0.652299823527	-0.395151965707	0.492627666856	-0.80615234375	0.1904296875	0.25732421875	36.375	-5.9375	-40.75
18	11	28	12	26	14	0.65669257156	-0.391549665077	0.492565206106	-0.8427734375	0.1650390625	0.24951171875	28.5625	-8.8125	-30.875
18	11	28	12	26	14	0.66005820243	-0.387953572651	0.492449563271	-0.8798828125	0.1298828125	0.25537109375	22.1875	-10.1875	-20.125
18	11	28	12	26	14	0.662559553785	-0.384107533115	0.493181132619	-0.94580078125	0.087890625	0.24755859375	22.25	-8.1875	-11.1875
18	11	28	12	26	14	0.66426949318	-0.379713361856	0.495501217094	-1.0537109375	0.05029296875	0.2333984375	27.875	-3.5625	-3.0
18	11	28	12	26	14	0.66544285813	-0.374349756826	0.499600971729	-1.142578125	0.00146484375	0.22607421875	36.3125	1.5	6.5
18	11	28	12	26	14	0.66596508419	-0.367132250151	0.505684238155	-1.173828125	0.00341796875	0.23583984375	46.6875	6.875	19.0625
18	11	28	12	26	14	0.665312602296	-0.358353237438	0.514182877224	-1.23583984375	0.0478515625	0.234375	55.25	15.0	29.625
18	11	28	12	26	14	0.662786994925	-0.349490591486	0.523991744307	-1.29345703125	0.1025390625	0.21484375	51.5625	21.6875	38.75
18	11	28	12	26	14	0.657868255003	-0.342057311286	0.533716832598	-1.357421875	0.1953125	0.20849609375	32.75	26.625	44.3125
18	11	28	12	26	14	0.650058009337	-0.338091203166	0.541959161024	-1.4345703125	0.24072265625	0.1767578125	0.375	29.5	48.8125
18	11	28	12	26	14	0.639531259546	-0.338381494839	0.545658471115	-1.267578125	0.22900390625	0.19091796875	-49.875	23.0	59.3125
18	11	28	12	26	14	0.626606523583	-0.341380312332	0.545366188215	-1.115234375	0.18896484375	0.20703125	-91.4375	14.3125	74.6875
18	11	28	12	26	14	0.611397861921	-0.346623585689	0.541877829503	-1.015625	0.1552734375	0.1865234375	-123.6875	6.8125	89.4375
18	11	28	12	26	14	0.593846089277	-0.352804028782	0.536042384216	-1.0107421875	0.1220703125	0.14208984375	-147.8125	1.25	100.6875
18	11	28	12	26	14	0.574826867019	-0.359312568076	0.528135153994	-1.052734375	0.0703125	0.08642578125	-162.875	-5.125	107.125
18	11	28	12	26	14	0.555560440087	-0.365002354616	0.519060204625	-1.15625	0.0419921875	0.05419921875	-163.375	-11.1875	108.25
18	11	28	12	26	14	0.537185657306	-0.36915110276	0.509535946732	-1.2705078125	-0.02392578125	0.03662109375	-153.625	-17.8125	106.3125
18	11	28	12	26	14	0.520586346572	-0.370129628985	0.500932365614	-1.26611328125	-0.095703125	0.0546875	-130.3125	-25.875	106.875
18	11	28	12	26	14	0.506624483538	-0.366661840074	0.49569848564	-1.18310546875	-0.1669921875	0.09912109375	-89.0625	-29.9375	108.9375
18	11	28	12	26	14	0.495673102512	-0.357914920961	0.496466570106	-1.10888671875	-0.216796875	0.134765625	-32.1875	-27.9375	112.1875
18	11	28	12	26	14	0.486473909267	-0.34431610065	0.503503547998	-0.9970703125	-0.18017578125	0.15380859375	19.875	-22.8125	119.9375
18	11	28	12	26	14	0.47774507109	-0.327774502588	0.515222453695	-0.9228515625	-0.0751953125	0.1474609375	54.5	-15.0	125.5
18	11	28	12	26	14	0.468287638486	-0.310686141801	0.528532672269	-0.84521484375	0.052734375	0.130859375	64.125	-8.125	127.1875
18	11	28	12	26	14	0.457489082119	-0.295246789888	0.540136209162	-0.77294921875	0.185546875	0.1064453125	48.0625	-3.75	124.0625
18	11	28	12	26	14	0.44552138628	-0.283341591329	0.547211841075	-0.732421875	0.283203125	0.078125	12.3125	-3.25	115.0625
18	11	28	12	26	14	0.432645205898	-0.275652617076	0.548314317802	-0.7119140625	0.3203125	0.06494140625	-32.5	-5.375	103.0625
18	11	28	12	26	14	0.419631866931	-0.272714935483	0.544392235805	-0.685546875	0.30712890625	0.078125	-70.5	-8.0	90.25
18	11	28	12	26	14	0.40778922471	-0.272469854678	0.537004879359	-0.67626953125	0.27001953125	0.09130859375	-89.625	-9.9375	75.8125
18	11	28	12	26	15	0.398028979552	-0.273633478812	0.52871139716	-0.68359375	0.236328125	0.1201171875	-86.625	-9.875	60.5
18	11	28	12	26	15	0.391009921011	-0.275220689016	0.522058672246	-0.69580078125	0.22509765625	0.1416015625	-65.9375	-7.625	44.6875
18	11	28	12	26	15	0.387226787232	-0.276808556132	0.518642183341	-0.7255859375	0.2470703125	0.14599609375	-35.375	-3.375	26.75
18	11	28	12	26	15	0.386792060486	-0.278817442371	0.518326996631	-0.76318359375	0.28759765625	0.14599609375	-6.25	0.9375	6.375
18	11	28	12	26	15	0.389788599643	-0.282117586525	0.519616402876	-0.8359375	0.32421875	0.12939453125	11.875	2.9375	-16.75
18	11	28	12	26	15	0.396136397041	-0.287244666329	0.520592808992	-0.92822265625	0.34130859375	0.1279296875	19.0	2.8125	-40.5625
18	11	28	12	26	15	0.405357453617	-0.294511325659	0.519865898578	-0.99267578125	0.310546875	0.1474609375	17.75	1.3125	-61.9375
18	11	28	12	26	15	0.416633449897	-0.303350167886	0.51703808293	-1.0185546875	0.2451171875	0.1943359375	13.625	0.3125	-77.6875
18	11	28	12	26	15	0.429522353578	-0.312513066693	0.514059579627	-1.0244140625	0.20703125	0.21826171875	20.625	1.0	-88.4375
18	11	28	12	26	15	0.443810421312	-0.320085524599	0.512234500845	-1.134765625	0.158203125	0.2021484375	34.5625	1.125	-104.125
18	11	28	12	26	15	0.459304622751	-0.327952656218	0.510636873613	-1.23046875	0.08935546875	0.2041015625	42.0625	2.125	-112.25
18	11	28	12	26	15	0.475543619011	-0.335706572271	0.510640215203	-1.3251953125	0.0400390625	0.21044921875	57.6875	8.5	-117.8125
18	11	28	12	26	15	0.492084488479	-0.343213976522	0.511311307367	-1.3212890625	0.01123046875	0.2109375	65.75	11.9375	-121.6875
18	11	28	12	26	15	0.507215341268	-0.349618468687	0.511976207287	-1.1669921875	-0.04150390625	0.23486328125	64.25	11.875	-112.25
18	11	28	12	26	15	0.521883705896	-0.35366013941	0.513643436855	-1.07470703125	-0.08837890625	0.267578125	73.25	9.125	-101.5625
18	11	28	12	26	15	0.537125168708	-0.35712720024	0.514968755499	-1.06298828125	-0.08935546875	0.25244140625	81.1875	6.625	-89.625
18	11	28	12	26	15	0.550935000933	-0.358846318467	0.517485811867	-1.09619140625	-0.09814453125	0.22998046875	85.125	6.3125	-77.0
18	11	28	12	26	15	0.563558086244	-0.359021841578	0.521198147778	-1.13720703125	-0.07568359375	0.1787109375	89.8125	5.3125	-68.0625
18	11	28	12	26	15	0.574931942735	-0.357997223075	0.525428831412	-1.16552734375	-0.02685546875	0.12890625	88.5625	2.125	-62.0625
18	11	28	12	26	15	0.585359988645	-0.356404272544	0.529204494427	-1.119140625	-0.01025390625	0.08056640625	82.8125	-2.875	-57.1875
18	11	28	12	26	15	0.595665428914	-0.353529476818	0.532491566948	-1.0361328125	-0.01806640625	0.10302734375	82.75	-6.75	-52.5
18	11	28	12	26	15	0.606522189016	-0.348031550948	0.536757183275	-0.9443359375	0.00927734375	0.1240234375	96.75	-8.3125	-49.0
18	11	28	12	26	15	0.617837154172	-0.339499135695	0.542270823717	-0.837890625	0.05029296875	0.14111328125	113.3125	-9.0625	-45.0625
18	11	28	12	26	15	0.62922885997	-0.328988607551	0.548721258234	-0.76416015625	0.1357421875	0.146484375	125.1875	-9.4375	-41.9375
18	11	28	12	26	15	0.640335941629	-0.317940131536	0.554884572047	-0.73291015625	0.2265625	0.15087890625	125.625	-10.25	-42.125
18	11	28	12	26	15	0.650657999025	-0.30829958284	0.559468219424	-0.72802734375	0.30224609375	0.1484375	111.8125	-12.4375	-45.0625
18	11	28	12	26	15	0.65951514386	-0.299208073596	0.562586865429	-0.748046875	0.3466796875	0.17724609375	91.125	-14.4375	-51.25
18	11	28	12	26	15	0.667992932122	-0.292491057267	0.563924223307	-0.78564453125	0.3515625	0.208984375	74.875	-14.375	-59.5
18	11	28	12	26	15	0.676222772132	-0.28748165509	0.564587114561	-0.82421875	0.3671875	0.22607421875	67.5	-11.3125	-68.625
18	11	28	12	26	15	0.684222646539	-0.283821169171	0.565383976351	-0.87451171875	0.3544921875	0.2548828125	67.25	-3.625	-78.125
18	11	28	12	26	15	0.692184475562	-0.28023094597	0.568213869754	-0.9619140625	0.16064453125	0.25537109375	86.0625	10.3125	-78.25
18	11	28	12	26	15	0.700873489046	-0.273318077501	0.571843918738	-1.0654296875	0.138671875	0.193359375	108.25	1.75	-64.625
18	11	28	12	26	15	0.709863216347	-0.262460174574	0.576496825313	-1.0322265625	0.16162109375	0.20849609375	128.8125	-0.9375	-54.1875
18	11	28	12	26	15	0.718149005408	-0.249148754043	0.5819777976	-1.0439453125	0.13818359375	0.18212890625	138.5625	-0.4375	-42.5625
18	11	28	12	26	15	0.725971351667	-0.233831868861	0.587600992307	-1.08203125	0.14599609375	0.193359375	145.375	-1.8125	-34.0625
18	11	28	12	26	15	0.73261489846	-0.217837421695	0.593452858263	-1.1025390625	0.2529296875	0.19921875	144.0625	0.6875	-27.8125
18	11	28	12	26	15	0.73720862938	-0.204352913658	0.59877601045	-1.1083984375	0.373046875	0.201171875	120.0625	5.875	-24.4375
18	11	28	12	26	15	0.73880527164	-0.192147967211	0.60421624124	-1.14697265625	0.4443359375	0.19970703125	84.25	9.625	-22.5
18	11	28	12	26	15	0.73864902527	-0.184753809246	0.608460761273	-1.21728515625	0.44970703125	0.19970703125	46.9375	11.5625	-20.6875
18	11	28	12	26	15	0.737403838868	-0.180917554706	0.61160387927	-1.267578125	0.44189453125	0.23388671875	17.6875	13.75	-17.625
18	11	28	12	26	15	0.7349415296	-0.180057928106	0.614638418991	-1.3583984375	0.38134765625	0.21630859375	-1.5	17.75	-14.5
18	11	28	12	26	15	0.732094011744	-0.182077408457	0.615693871641	-1.2197265625	0.24560546875	0.2705078125	-30.0625	15.6875	1.5
18	11	28	12	26	15	0.728293698265	-0.185003201428	0.615619363116	-1.03076171875	0.1767578125	0.283203125	-52.625	13.8125	24.9375
18	11	28	12	26	15	0.722574604927	-0.188670223334	0.615268796897	-0.94775390625	0.17626953125	0.23193359375	-76.5	12.0625	47.625
18	11	28	12	26	15	0.7150646095	-0.195689042941	0.613496746913	-0.97216796875	0.1689453125	0.14404296875	-109.1875	7.5625	63.3125
18	11	28	12	26	15	0.706187524253	-0.204898143381	0.609689471026	-0.998046875	0.11083984375	0.0673828125	-138.0625	1.375	74.375
18	11	28	12	26	15	0.696268493132	-0.215283507958	0.604344205356	-1.03857421875	0.0546875	0.00439453125	-153.625	-3.0625	80.0625
18	11	28	12	26	15	0.685832158798	-0.225050121884	0.598668726726	-1.14306640625	0.013671875	-0.03759765625	-150.1875	-4.0625	81.5625
18	11	28	12	26	15	0.675630485206	-0.232799229431	0.593534270318	-1.22412109375	0.01416015625	-0.06591796875	-132.6875	-4.3125	79.625
18	11	28	12	26	15	0.666117687758	-0.237929693657	0.588964498229	-1.19189453125	-0.037109375	-0.03466796875	-112.375	-6.5625	80.625
18	11	28	12	26	16	0.657077582763	-0.241040350611	0.586090009261	-1.06591796875	-0.060546875	0.05224609375	-87.75	-8.0625	88.1875
18	11	28	12	26	16	0.648452740671	-0.239385509122	0.58515779601	-0.93701171875	-0.01123046875	0.119140625	-59.25	-5.25	97.125
18	11	28	12	26	16	0.639384848562	-0.233291540926	0.586280808633	-0.8818359375	0.0517578125	0.111328125	-38.0	-2.5625	103.3125
18	11	28	12	26	16	0.630062592043	-0.226195095041	0.587826486871	-0.87451171875	0.1220703125	0.07470703125	-32.6875	-2.6875	105.625
18	11	28	12	26	16	0.620322002906	-0.219673215434	0.588460536261	-0.86279296875	0.17236328125	0.01806640625	-40.25	-4.8125	105.4375
18	11	28	12	26	16	0.610447791432	-0.21473405962	0.587314133502	-0.85302734375	0.19580078125	-0.0244140625	-54.25	-8.5	101.375
18	11	28	12	26	16	0.60012251027	-0.212838404527	0.585351390713	-0.84326171875	0.1982421875	-0.041015625	-68.3125	-12.625	95.0625
18	11	28	12	26	16	0.590553710298	-0.212599335707	0.581703034537	-0.84326171875	0.162109375	-0.0234375	-76.125	-15.25	87.6875
18	11	28	12	26	16	0.582124617461	-0.212841411459	0.57766880357	-0.8447265625	0.11572265625	0.00439453125	-71.0	-15.3125	80.4375
18	11	28	12	26	16	0.5749276136	-0.212660346723	0.574378261384	-0.8564453125	0.0849609375	0.03857421875	-56.125	-14.0	73.8125
18	11	28	12	26	16	0.569130370541	-0.211379072628	0.572426492379	-0.87646484375	0.07470703125	0.0859375	-36.0625	-12.125	67.625
18	11	28	12	26	16	0.564283041252	-0.208989197755	0.572217794672	-0.9033203125	0.1083984375	0.1015625	-17.8125	-9.6875	61.1875
18	11	28	12	26	16	0.56008244052	-0.206612800911	0.572900369084	-0.91552734375	0.15478515625	0.0947265625	-9.625	-7.75	53.5625
18	11	28	12	26	16	0.55653739164	-0.205207140897	0.573383664956	-0.94970703125	0.193359375	0.0859375	-10.625	-7.125	43.875
18	11	28	12	26	16	0.554533077827	-0.205699116376	0.573210801748	-1.0205078125	0.17724609375	0.0869140625	-11.625	-8.1875	30.4375
18	11	28	12	26	16	0.554096389931	-0.207953998733	0.572163423575	-1.09765625	0.177734375	0.11279296875	-13.0625	-8.3125	16.375
18	11	28	12	26	16	0.554884906935	-0.211370193897	0.570998603496	-1.1083984375	0.1826171875	0.1552734375	-10.0	-4.9375	3.375
18	11	28	12	26	16	0.557081647045	-0.215520466278	0.570631786811	-1.1142578125	0.18798828125	0.19091796875	1.3125	0.875	-11.875
18	11	28	12	26	16	0.561375529492	-0.220045534829	0.571385922754	-1.134765625	0.162109375	0.20458984375	18.25	4.1875	-28.5625
18	11	28	12	26	16	0.567591402862	-0.223520778286	0.57345104096	-1.11767578125	0.12939453125	0.224609375	39.4375	4.625	-39.4375
18	11	28	12	26	16	0.575325130725	-0.226138299314	0.576973102137	-1.14453125	0.18115234375	0.24951171875	58.5	7.875	-53.4375
18	11	28	12	26	16	0.583281007575	-0.229686734147	0.581083632494	-1.15283203125	0.26318359375	0.24169921875	61.625	14.6875	-69.4375
18	11	28	12	26	16	0.591574678995	-0.235238218412	0.583273589814	-1.1005859375	0.2236328125	0.2412109375	49.3125	15.125	-79.5625
18	11	28	12	26	16	0.600379300022	-0.241958473494	0.582616960015	-1.02099609375	0.14208984375	0.27783203125	34.125	8.6875	-81.8125
18	11	28	12	26	16	0.608922051417	-0.248610617023	0.580111785953	-0.90771484375	0.07861328125	0.33056640625	23.5625	5.625	-76.6875
18	11	28	12	26	16	0.616916500445	-0.254347586559	0.577973913398	-0.841796875	0.02685546875	0.33251953125	26.25	7.1875	-69.875
18	11	28	12	26	16	0.624219897886	-0.259160818072	0.576733530373	-0.8837890625	0.021484375	0.2763671875	29.9375	6.25	-64.5625
18	11	28	12	26	16	0.630530660824	-0.263809633696	0.575290559367	-0.96044921875	0.044921875	0.2177734375	22.6875	1.5625	-58.9375
18	11	28	12	26	16	0.635824424622	-0.269296089223	0.572834042918	-1.0107421875	0.0537109375	0.1650390625	8.0	-3.5	-55.1875
18	11	28	12	26	16	0.640602620222	-0.276139709755	0.569370294562	-1.06396484375	0.0234375	0.14794921875	-3.0625	-5.3125	-55.25
18	11	28	12	26	16	0.645234681059	-0.282973037687	0.566190228125	-1.08544921875	-0.0029296875	0.15771484375	-0.875	-3.0625	-55.8125
18	11	28	12	26	16	0.650420518303	-0.287549836873	0.564295954552	-1.04541015625	-0.02587890625	0.18212890625	15.6875	-1.0625	-52.9375
18	11	28	12	26	16	0.656298264131	-0.28847336275	0.564006320738	-0.95751953125	0.00244140625	0.208984375	37.375	-1.125	-47.75
18	11	28	12	26	16	0.662461039485	-0.285969775176	0.565347290861	-0.88916015625	0.06396484375	0.21826171875	55.875	-1.25	-42.125
18	11	28	12	26	16	0.668296084806	-0.281442437395	0.567828886378	-0.8505859375	0.1435546875	0.193359375	64.125	-1.875	-38.9375
18	11	28	12	26	16	0.673637613177	-0.276755431148	0.570174786579	-0.8310546875	0.20947265625	0.17724609375	60.125	-2.6875	-39.75
18	11	28	12	26	16	0.678489377296	-0.273202451671	0.571857410569	-0.81982421875	0.23974609375	0.16552734375	50.8125	-3.375	-43.375
18	11	28	12	26	16	0.683218445513	-0.270833578374	0.572675373519	-0.8173828125	0.2666015625	0.169921875	42.25	-3.6875	-48.8125
18	11	28	12	26	16	0.688014591503	-0.269480520004	0.572897884657	-0.81591796875	0.259765625	0.17578125	37.875	-3.6875	-54.1875
18	11	28	12	26	16	0.692904355501	-0.268567579652	0.57284243978	-0.8203125	0.2607421875	0.1865234375	36.75	-2.8125	-58.6875
18	11	28	12	26	16	0.697831510313	-0.268072771214	0.572767505709	-0.83203125	0.25390625	0.19091796875	37.1875	-1.4375	-63.125
18	11	28	12	26	16	0.702824144302	-0.268007018465	0.572452249188	-0.84716796875	0.24755859375	0.20556640625	36.5625	-0.125	-66.875
18	11	28	12	26	16	0.707535238003	-0.268499612834	0.572034183106	-0.87353515625	0.2392578125	0.21240234375	33.6875	1.375	-68.9375
18	11	28	12	26	16	0.711823479753	-0.269787324688	0.57119225892	-0.90869140625	0.2197265625	0.22998046875	26.625	2.4375	-68.5
18	11	28	12	26	16	0.715307645045	-0.271803476695	0.570219645022	-0.93798828125	0.22119140625	0.2353515625	18.4375	3.625	-65.9375
18	11	28	12	26	16	0.717821778734	-0.27479877958	0.569069085301	-0.96435546875	0.21826171875	0.23291015625	6.9375	4.875	-62.5
18	11	28	12	26	16	0.719325017815	-0.27900166792	0.567769309777	-1.02880859375	0.2060546875	0.2314453125	-4.0625	6.4375	-59.3125
18	11	28	12	26	16	0.719845928264	-0.284141676933	0.566696311202	-1.123046875	0.177734375	0.2099609375	-12.1875	8.125	-56.0
18	11	28	12	26	16	0.719693465946	-0.289439947037	0.565878901093	-1.185546875	0.1435546875	0.212890625	-16.1875	9.6875	-50.8125
18	11	28	12	26	16	0.719060325617	-0.294191560094	0.565616843858	-1.220703125	0.12890625	0.2294921875	-15.4375	13.0	-44.8125
18	11	28	12	26	17	0.717675266437	-0.297556295618	0.567035484368	-1.3505859375	0.14453125	0.21923828125	-8.3125	18.5625	-39.5
18	11	28	12	26	17	0.715417427511	-0.29999800838	0.569477399427	-1.43896484375	0.16259765625	0.19091796875	-7.6875	19.8125	-31.625
18	11	28	12	26	17	0.7121950362	-0.302811070842	0.571379648086	-1.462890625	0.14453125	0.18359375	-21.9375	16.25	-17.8125
18	11	28	12	26	17	0.707972013768	-0.306224294601	0.571919800759	-1.3486328125	0.08984375	0.20654296875	-42.6875	10.25	3.5625
18	11	28	12	26	17	0.70246849051	-0.30975997822	0.571057016006	-1.12353515625	0.0537109375	0.22998046875	-65.4375	3.125	30.3125
18	11	28	12	26	17	0.695207512547	-0.31324011891	0.569349927747	-0.9736328125	0.037109375	0.21728515625	-86.0625	-2.375	56.25
18	11	28	12	26	17	0.685696510597	-0.317944910424	0.566795246342	-0.92919921875	0.03955078125	0.17626953125	-107.75	-7.4375	76.625
18	11	28	12	26	17	0.674338606106	-0.32331386645	0.563067853125	-0.95263671875	0.03564453125	0.11181640625	-126.5625	-11.875	89.9375
18	11	28	12	26	17	0.661090077079	-0.329782077967	0.557876770797	-1.0244140625	0.04052734375	0.0546875	-145.25	-15.25	97.1875
18	11	28	12	26	17	0.64618827698	-0.337529155729	0.550972095618	-1.15087890625	0.04638671875	-0.02587890625	-162.375	-18.3125	100.0625
18	11	28	12	26	17	0.630189489598	-0.346314301596	0.541993478705	-1.28125	-0.041015625	-0.06396484375	-175.0	-22.9375	100.5
18	11	28	12	26	17	0.613789931006	-0.354198783774	0.531511805808	-1.2919921875	-0.14794921875	-0.06494140625	-177.125	-30.0625	104.625
18	11	28	12	26	17	0.598407340945	-0.357616137352	0.522049978285	-1.18017578125	-0.2763671875	0.03369140625	-151.0625	-36.3125	114.25
18	11	28	12	26	17	0.584695412112	-0.353905835622	0.516819715456	-1.00927734375	-0.27685546875	0.13916015625	-101.0	-38.125	128.375
18	11	28	12	26	17	0.572768405119	-0.343087298079	0.518018484042	-0.873046875	-0.1884765625	0.16796875	-39.8125	-31.9375	139.375
18	11	28	12	26	17	0.562040543294	-0.32698210148	0.524990303309	-0.82763671875	-0.0625	0.134765625	10.75	-24.4375	145.8125
18	11	28	12	26	17	0.551768537165	-0.30859974822	0.53455628855	-0.82958984375	0.0869140625	0.0625	34.9375	-20.3125	145.6875
18	11	28	12	26	17	0.540853093401	-0.290843583123	0.543355630002	-0.80517578125	0.2138671875	-0.0048828125	28.625	-19.8125	142.1875
18	11	28	12	26	17	0.529265918512	-0.276016662843	0.548676201304	-0.7802734375	0.29052734375	-0.06396484375	2.3125	-22.0	133.4375
18	11	28	12	26	17	0.517722848977	-0.265270396328	0.548974216423	-0.79541015625	0.28857421875	-0.09033203125	-33.1875	-27.4375	118.75
18	11	28	12	26	17	0.506993927429	-0.257708687889	0.544838405518	-0.80859375	0.2255859375	-0.08203125	-60.0	-33.8125	104.375
18	11	28	12	26	17	0.497535672851	-0.254047781917	0.539470037622	-0.802734375	0.154296875	-0.03173828125	-69.25	-37.4375	91.8125
18	11	28	12	26	17	0.490384951939	-0.251235307715	0.533722432132	-0.80908203125	0.09912109375	0.01611328125	-60.1875	-37.25	77.9375
18	11	28	12	26	17	0.486059832146	-0.248431937314	0.529886399957	-0.83056640625	0.05224609375	0.060546875	-34.8125	-33.25	63.25
18	11	28	12	26	17	0.484091801638	-0.244578974803	0.529381943716	-0.84619140625	0.0400390625	0.10009765625	-1.75	-27.6875	52.0625
18	11	28	12	26	17	0.484168686495	-0.23939858654	0.53269542701	-0.87353515625	0.11279296875	0.12451171875	30.75	-21.5625	39.5
18	11	28	12	26	17	0.48634994131	-0.234690703355	0.538232151414	-0.94091796875	0.19970703125	0.12255859375	50.125	-16.5	20.75
18	11	28	12	26	17	0.490665498024	-0.232240604551	0.543339254063	-1.0380859375	0.26025390625	0.1181640625	50.3125	-14.5	-1.5625
18	11	28	12	26	17	0.49704435965	-0.232865557173	0.545875931272	-1.10302734375	0.26123046875	0.14794921875	38.25	-15.25	-22.5
18	11	28	12	26	17	0.50538002718	-0.235905048919	0.546518449683	-1.14111328125	0.25	0.177734375	31.0	-15.0	-41.8125
18	11	28	12	26	17	0.516270254079	-0.240861010002	0.545630149115	-1.140625	0.1845703125	0.208984375	31.125	-15.8125	-62.4375
18	11	28	12	26	17	0.529131178181	-0.246468069846	0.545183952418	-1.13232421875	0.17041015625	0.23486328125	42.9375	-12.3125	-80.5
18	11	28	12	26	17	0.543973203358	-0.250684239923	0.546842002792	-1.23486328125	0.1845703125	0.22216796875	66.5	-6.125	-107.625
18	11	28	12	26	17	0.560629106806	-0.256784611032	0.547994351759	-1.2724609375	0.15625	0.2216796875	71.25	-2.0	-130.5
18	11	28	12	26	17	0.57680903323	-0.264233471413	0.548304290529	-1.14013671875	0.05224609375	0.29638671875	66.0625	3.6875	-135.75
18	11	28	12	26	17	0.592816709646	-0.270771717874	0.549478585279	-0.97119140625	0.001953125	0.33740234375	77.0625	8.5	-137.4375
18	11	28	12	26	17	0.609217492895	-0.276256725062	0.551231657984	-0.88427734375	0.04248046875	0.32763671875	88.9375	9.75	-143.0625
18	11	28	12	26	17	0.625271666787	-0.283032479392	0.551415876392	-0.94091796875	0.0400390625	0.2607421875	80.375	8.4375	-150.4375
18	11	28	12	26	17	0.639859625517	-0.291211511337	0.549828818722	-1.0517578125	-0.00927734375	0.23095703125	63.4375	7.75	-148.5625
18	11	28	12	26	17	0.652958877718	-0.299562738067	0.547489356247	-1.11279296875	-0.04638671875	0.1611328125	54.6875	6.6875	-142.125
18	11	28	12	26	17	0.665533127992	-0.307436754007	0.5446214326	-1.1396484375	-0.083984375	0.10107421875	53.6875	4.0	-140.25
18	11	28	12	26	17	0.677442689635	-0.313849023345	0.542002980805	-1.10986328125	-0.12158203125	0.11474609375	58.4375	3.6875	-132.9375
18	11	28	12	26	17	0.688616903106	-0.317635380585	0.541152053088	-1.0185546875	-0.10595703125	0.15087890625	72.8125	9.1875	-123.75
18	11	28	12	26	17	0.69932372166	-0.318806650801	0.542148319436	-0.95654296875	-0.0537109375	0.17041015625	90.75	15.75	-118.25
18	11	28	12	26	17	0.709427273383	-0.318427435708	0.543713167968	-0.95263671875	0.01904296875	0.142578125	96.8125	17.0	-113.75
18	11	28	12	26	17	0.718212022657	-0.318303365187	0.544503225471	-0.958984375	0.09375	0.12939453125	85.3125	14.0625	-106.6875
18	11	28	12	26	17	0.724504996792	-0.31800092951	0.5456065852	-0.9384765625	0.119140625	0.1240234375	66.75	12.0	-99.3125
18	11	28	12	26	17	0.72927519734	-0.319164714336	0.54628498629	-0.93603515625	0.11083984375	0.12646484375	50.5625	13.8125	-94.5
18	11	28	12	26	17	0.732802865784	-0.321295542686	0.546886030103	-0.9541015625	0.091796875	0.13427734375	39.4375	16.875	-89.5625
18	11	28	12	26	17	0.735553192981	-0.323189291912	0.547804323874	-0.93994140625	0.09033203125	0.1572265625	35.5625	20.0625	-83.9375
18	11	28	12	26	17	0.737891798966	-0.324235357441	0.549222467292	-0.935546875	0.099609375	0.18017578125	36.6875	23.1875	-78.8125
18	11	28	12	26	18	0.739772272189	-0.324474372851	0.551228002487	-0.96240234375	0.09375	0.18115234375	38.1875	25.0625	-72.8125
18	11	28	12	26	18	0.741243442028	-0.323744665392	0.55355210604	-0.990234375	0.0751953125	0.2001953125	37.0625	25.0	-63.0625
18	11	28	12	26	18	0.742377548469	-0.322085531799	0.556096509422	-0.99560546875	0.07373046875	0.2255859375	34.6875	24.75	-52.4375
18	11	28	12	26	18	0.742880056582	-0.319955406836	0.55885381629	-0.9697265625	0.09912109375	0.24853515625	28.0625	25.25	-41.75
18	11	28	12	26	18	0.74256199178	-0.318057746109	0.561773842869	-0.974609375	0.0986328125	0.25732421875	18.4375	25.3125	-32.375
18	11	28	12	26	18	0.741664014524	-0.31641727029	0.564533821935	-0.998046875	0.09033203125	0.27001953125	8.5	23.4375	-22.4375
18	11	28	12	26	18	0.740491613318	-0.314702832037	0.567026631036	-1.02685546875	0.05712890625	0.28125	1.5	19.875	-12.0625
18	11	28	12	26	18	0.739241234698	-0.312213600485	0.569492256604	-1.04833984375	0.04052734375	0.287109375	-0.4375	16.4375	-0.8125
18	11	28	12	26	18	0.737752488731	-0.309029606225	0.572037422387	-1.08154296875	0.02294921875	0.29248046875	-3.5625	14.0	10.875
18	11	28	12	26	18	0.735801958714	-0.305307457278	0.574969261808	-1.15087890625	0.02294921875	0.29296875	-5.75	13.8125	19.5
18	11	28	12	26	18	0.733370299301	-0.301527197549	0.578028858459	-1.18115234375	0.00146484375	0.30078125	-10.3125	13.8125	27.75
18	11	28	12	26	18	0.730688052494	-0.296767631044	0.581327626093	-1.22412109375	0.0693359375	0.31201171875	-11.0625	13.1875	34.0
18	11	28	12	26	18	0.727154978008	-0.292070559033	0.585117738536	-1.36865234375	0.12548828125	0.2490234375	-14.875	10.8125	35.5625
18	11	28	12	26	18	0.722547066305	-0.290410452904	0.586985566536	-1.4150390625	0.0654296875	0.21728515625	-44.4375	0.5625	46.375
18	11	28	12	26	18	0.71629889152	-0.291646877178	0.586406770416	-1.244140625	0.0732421875	0.2119140625	-84.0625	-10.0625	65.6875
18	11	28	12	26	18	0.708294358049	-0.297075891126	0.583469990399	-1.0849609375	0.04296875	0.18603515625	-117.8125	-15.9375	79.6875
18	11	28	12	26	18	0.698289144382	-0.304891108058	0.578591153811	-0.9990234375	0.00390625	0.1435546875	-147.0625	-20.6875	89.0625
18	11	28	12	26	18	0.686735049278	-0.314038914633	0.57198419223	-1.03564453125	-0.04638671875	0.0771484375	-165.125	-25.6875	94.875
18	11	28	12	26	18	0.67482837795	-0.322521088015	0.563923605633	-1.1103515625	-0.103515625	0.013671875	-167.1875	-33.3125	97.6875
18	11	28	12	26	18	0.663014801418	-0.329554125654	0.554669075721	-1.1845703125	-0.1240234375	-0.060546875	-162.625	-42.625	100.0
18	11	28	12	26	18	0.651555687519	-0.334536461198	0.544682244067	-1.20751953125	-0.1376953125	-0.10009765625	-153.6875	-50.6875	102.5
18	11	28	12	26	18	0.640602093951	-0.337239311013	0.534455639317	-1.19091796875	-0.18896484375	-0.12060546875	-140.6875	-56.75	105.0625
18	11	28	12	26	18	0.630651165315	-0.336322872715	0.525359521861	-1.13916015625	-0.27880859375	-0.0927734375	-115.75	-60.375	109.5625
18	11	28	12	26	18	0.621784302304	-0.330271410598	0.519242079091	-1.00927734375	-0.3115234375	-0.029296875	-78.875	-59.9375	119.125
18	11	28	12	26	18	0.613660202439	-0.319220495201	0.517466798913	-0.9013671875	-0.25048828125	0.0078125	-36.9375	-53.125	127.0625
18	11	28	12	26	18	0.606100794739	-0.304698405572	0.519671920081	-0.8681640625	-0.14208984375	0.01025390625	-2.0	-44.4375	128.5625
18	11	28	12	26	18	0.598702987669	-0.288761732558	0.523872743722	-0.8642578125	-0.00830078125	-0.02099609375	15.4375	-38.5	126.375
18	11	28	12	26	18	0.591083979323	-0.27356860753	0.527971542869	-0.87158203125	0.10205078125	-0.06494140625	14.1875	-35.5625	120.0
18	11	28	12	26	18	0.583223193959	-0.261000772095	0.530058630701	-0.89501953125	0.17578125	-0.10107421875	-2.3125	-34.0	110.0
18	11	28	12	26	18	0.575170563657	-0.251175514109	0.52963546438	-0.8818359375	0.20947265625	-0.11376953125	-22.125	-34.5625	100.0
18	11	28	12	26	18	0.566780546686	-0.245608972632	0.52930442611	-0.859375	0.197265625	-0.10791015625	-34.9375	-35.6875	88.4375
18	11	28	12	26	18	0.55989557777	-0.241585816724	0.527850970953	-0.853515625	0.1796875	-0.072265625	-36.0625	-34.6875	74.375
18	11	28	12	26	18	0.554712802389	-0.238536271098	0.527001577446	-0.86572265625	0.15869140625	-0.0400390625	-25.75	-29.3125	60.0625
18	11	28	12	26	18	0.55122857237	-0.236397769991	0.527179844929	-0.892578125	0.1298828125	0.013671875	-11.5	-21.75	46.5
18	11	28	12	26	18	0.549330145024	-0.234197751829	0.529310113072	-0.91259765625	0.1396484375	0.04345703125	7.25	-14.5	34.125
18	11	28	12	26	18	0.548492269041	-0.232068507333	0.533232635471	-0.9306640625	0.20263671875	0.03857421875	21.25	-9.125	21.6875
18	11	28	12	26	18	0.548606197989	-0.231820910098	0.53597140905	-0.97705078125	0.23583984375	0.05126953125	13.9375	-7.8125	8.4375
18	11	28	12	26	18	0.549040031565	-0.234875602164	0.535550554414	-1.04833984375	0.2353515625	0.10546875	-9.25	-7.6875	-1.5
18	11	28	12	26	18	0.549954370395	-0.24158927836	0.531887057006	-1.1396484375	0.15625	0.15478515625	-31.3125	-6.75	-9.4375
18	11	28	12	26	18	0.551229430792	-0.251535431767	0.526692366106	-1.26171875	0.0439453125	0.18115234375	-41.875	-2.3125	-15.1875
18	11	28	12	26	18	0.552513344114	-0.263255639987	0.521384112397	-1.34814453125	-0.087890625	0.236328125	-40.875	6.3125	-15.625
18	11	28	12	26	18	0.554153301269	-0.274848806654	0.518935055335	-1.40966796875	-0.17236328125	0.27734375	-18.875	20.6875	-16.625
18	11	28	12	26	18	0.555997226766	-0.284010878927	0.519740518818	-1.28466796875	-0.19384765625	0.32177734375	7.6875	32.3125	-15.3125
18	11	28	12	26	18	0.55727163936	-0.28931736808	0.52327379674	-1.02978515625	-0.08154296875	0.3837890625	27.3125	40.3125	-11.0
18	11	28	12	26	18	0.558372832104	-0.291638105793	0.528464361648	-0.82958984375	0.0107421875	0.4013671875	40.125	42.75	-9.1875
18	11	28	12	26	18	0.558672851466	-0.293100298562	0.53340347962	-0.7216796875	0.16796875	0.408203125	34.0625	42.375	-12.5625
18	11	28	12	26	18	0.557889034612	-0.297439088147	0.53585424889	-0.74365234375	0.30908203125	0.36767578125	5.8125	41.75	-25.0625
18	11	28	12	26	18	0.556110680116	-0.307322716978	0.533465848339	-0.84814453125	0.3125	0.333984375	-37.75	39.25	-38.5
18	11	28	12	26	18	0.553798324743	-0.321731617956	0.526880539973	-0.95947265625	0.265625	0.31103515625	-71.75	36.125	-48.75
18	11	28	12	26	19	0.552145038162	-0.338452822972	0.518269237125	-1.0517578125	0.15673828125	0.275390625	-81.5	32.6875	-57.1875
18	11	28	12	26	19	0.552751832843	-0.353893013121	0.50953757736	-1.06298828125	0.0322265625	0.32421875	-65.5625	28.8125	-60.375
18	11	28	12	26	19	0.55544973484	-0.365376056346	0.503628105732	-0.99072265625	0.02294921875	0.38720703125	-32.125	30.0	-60.3125
18	11	28	12	26	19	0.55982059911	-0.372806827231	0.501531384964	-0.90576171875	0.08935546875	0.4306640625	3.1875	35.375	-61.6875
18	11	28	12	26	19	0.564834492495	-0.378061902584	0.501295189849	-0.8857421875	0.20458984375	0.40185546875	18.0625	34.1875	-66.1875
18	11	28	12	26	19	0.569054650243	-0.38417140069	0.498861273886	-0.90673828125	0.3154296875	0.3701171875	-1.3125	25.125	-72.8125
18	11	28	12	26	19	0.57124125007	-0.393319651186	0.491710600552	-0.9208984375	0.3466796875	0.35693359375	-43.1875	14.3125	-75.8125
18	11	28	12	26	19	0.571372580683	-0.405960798432	0.479755206086	-0.91259765625	0.2998046875	0.36279296875	-83.9375	6.6875	-77.0
18	11	28	12	26	19	0.57025860705	-0.422551678969	0.46478853609	-0.90087890625	0.2158203125	0.3681640625	-107.375	3.625	-75.625
18	11	28	12	26	19	0.567895539754	-0.439288929451	0.449238088197	-0.8935546875	0.15185546875	0.373046875	-114.375	3.4375	-70.125
18	11	28	12	26	19	0.564349929006	-0.455215419698	0.433974474933	-0.87353515625	0.1455078125	0.36572265625	-116.0625	3.4375	-62.125
18	11	28	12	26	19	0.559346807426	-0.470720490929	0.418655581857	-0.85693359375	0.154296875	0.3466796875	-121.3125	2.5	-54.0
18	11	28	12	26	19	0.552372665406	-0.486454159479	0.402285993115	-0.83740234375	0.1591796875	0.3232421875	-134.375	0.0625	-46.375
18	11	28	12	26	19	0.543036357819	-0.502691631224	0.384404066713	-0.82861328125	0.1533203125	0.310546875	-151.5625	-3.25	-38.8125
18	11	28	12	26	19	0.53108911905	-0.519675067187	0.364822395651	-0.859375	0.17041015625	0.29052734375	-170.6875	-5.0625	-32.8125
18	11	28	12	26	19	0.516549310868	-0.537667834035	0.34369480911	-0.9580078125	0.16455078125	0.22314453125	-187.9375	-5.0625	-29.25
18	11	28	12	26	19	0.499955360514	-0.556109545799	0.320933376338	-1.09912109375	0.09423828125	0.14306640625	-201.0625	-7.375	-26.8125
18	11	28	12	26	19	0.481765170172	-0.573625879802	0.297311306716	-1.20263671875	-0.00439453125	0.0830078125	-207.25	-12.5	-20.25
18	11	28	12	26	19	0.463074974259	-0.589296016406	0.274292728921	-1.2978515625	-0.04345703125	0.02880859375	-200.8125	-16.375	-13.5625
18	11	28	12	26	19	0.444660130999	-0.602931060262	0.252147014572	-1.3828125	-0.0546875	-0.08740234375	-190.125	-21.4375	-10.5625
18	11	28	12	26	19	0.425727108262	-0.614572939511	0.2297400481	-1.4228515625	-0.1298828125	-0.17138671875	-188.125	-31.8125	-4.375
18	11	28	12	26	19	0.40594700265	-0.623721608793	0.207398573899	-1.37890625	-0.19873046875	-0.21337890625	-185.9375	-44.5	6.5625
18	11	28	12	26	19	0.385574211675	-0.630273754909	0.186042456417	-1.251953125	-0.2490234375	-0.220703125	-179.6875	-53.9375	18.4375
18	11	28	12	26	19	0.365113772297	-0.634646105709	0.16644354013	-1.15283203125	-0.24755859375	-0.23095703125	-168.1875	-58.125	28.3125
18	11	28	12	26	19	0.344665423341	-0.637328909249	0.148742630898	-1.07763671875	-0.25048828125	-0.24658203125	-157.4375	-59.5	36.625
18	11	28	12	26	19	0.32373597725	-0.638682742448	0.132753723703	-1.00537109375	-0.2294921875	-0.25439453125	-149.5	-60.375	45.3125
18	11	28	12	26	19	0.30273900518	-0.638986823635	0.118410014123	-0.94482421875	-0.1865234375	-0.2744140625	-141.0625	-60.125	51.4375
18	11	28	12	26	19	0.282595486388	-0.638189720447	0.105530798264	-0.93212890625	-0.16796875	-0.31005859375	-130.0	-60.4375	52.5625
18	11	28	12	26	19	0.26276158169	-0.636548324145	0.093751867474	-0.9130859375	-0.130859375	-0.3291015625	-122.6875	-61.0	55.25
18	11	28	12	26	19	0.243285973755	-0.634704174882	0.0834350040449	-0.888671875	-0.10693359375	-0.32958984375	-114.5	-56.4375	57.25
18	11	28	12	26	19	0.225406974341	-0.632824129425	0.0750135855579	-0.90234375	-0.1044921875	-0.31787109375	-100.3125	-49.375	55.5
18	11	28	12	26	19	0.208802801126	-0.634281996287	0.0697636953191	-0.93359375	-0.0888671875	-0.31884765625	-80.6875	-42.375	51.625
18	11	28	12	26	19	0.194771675254	-0.635708867993	0.067141599116	-0.99755859375	-0.046875	-0.3046875	-61.125	-35.4375	46.3125
18	11	28	12	26	19	0.182378737394	-0.637226913785	0.0659810626246	-1.0361328125	-0.00537109375	-0.30517578125	-49.25	-31.4375	40.75
18	11	28	12	26	19	0.170475041238	-0.638747334965	0.0645156171102	-1.015625	0.02490234375	-0.28515625	-49.5	-28.375	36.625
18	11	28	12	26	19	0.158263137835	-0.640926035635	0.0614620053218	-0.9912109375	0.04248046875	-0.2880859375	-58.625	-25.25	31.125
18	11	28	12	26	19	0.144956395761	-0.643606397178	0.0556632559722	-0.97998046875	0.04296875	-0.2724609375	-74.6875	-22.4375	25.6875
18	11	28	12	26	19	0.130190643187	-0.647168959077	0.0464487011089	-0.9990234375	0.0322265625	-0.26904296875	-95.6875	-18.3125	20.0
18	11	28	12	26	19	0.11450160314	-0.648801727813	0.0326537087846	-1.06005859375	0.00048828125	-0.2490234375	-118.5625	-13.1875	15.375
18	11	28	12	26	19	0.0967996755104	-0.651109040571	0.0163570700106	-1.11279296875	-0.0380859375	-0.2197265625	-137.375	-8.0	14.875
18	11	28	12	26	19	0.0772710423649	-0.653752081177	-0.0014648538837	-1.146484375	-0.07373046875	-0.19970703125	-150.75	-3.6875	16.5625
18	11	28	12	26	19	0.0561525452997	-0.656374426253	-0.0199585677315	-1.15087890625	-0.1083984375	-0.1630859375	-159.375	0.125	21.5625
18	11	28	12	26	19	0.0335706607291	-0.658900513764	-0.0380264029713	-1.125	-0.13818359375	-0.130859375	-163.3125	3.4375	29.8125
18	11	28	12	26	19	0.00970479734719	-0.661269021757	-0.0550548880954	-1.091796875	-0.13037109375	-0.11279296875	-164.25	6.75	38.8125
18	11	28	12	26	19	-0.0154417595781	-0.663263246384	-0.0714715433437	-1.0751953125	-0.1083984375	-0.09814453125	-166.25	8.4375	46.3125
18	11	28	12	26	19	-0.0421750281536	-0.664729712909	-0.087706968823	-1.060546875	-0.0615234375	-0.0927734375	-172.4375	8.5625	53.25
18	11	28	12	26	19	-0.0707399807649	-0.665224374768	-0.104492534141	-1.06298828125	-0.03173828125	-0.10400390625	-182.1875	6.8125	58.3125
18	11	28	12	26	19	-0.101075183812	-0.664496090679	-0.122071478034	-1.07177734375	0.00048828125	-0.13037109375	-193.1875	3.4375	61.875
18	11	28	12	26	19	-0.132689449728	-0.661982415709	-0.14050189203	-1.07470703125	0.00244140625	-0.16259765625	-203.3125	-3.25	63.5
18	11	28	12	26	19	-0.164855012805	-0.657466937406	-0.158995671365	-1.06640625	-0.00634765625	-0.1796875	-207.5625	-11.125	64.5
18	11	28	12	26	20	-0.196105452953	-0.6513044782	-0.176940463153	-1.08251953125	-0.01171875	-0.19091796875	-203.5	-17.375	62.0625
18	11	28	12	26	20	-0.224788511635	-0.644153665977	-0.193661131528	-1.12890625	-0.03564453125	-0.19189453125	-189.625	-21.0625	55.25
18	11	28	12	26	20	-0.25110125529	-0.636359185138	-0.208986557636	-1.11279296875	-0.05908203125	-0.1494140625	-176.125	-22.5625	51.0
18	11	28	12	26	20	-0.274099623961	-0.629068097119	-0.221977361911	-1.04150390625	-0.1083984375	-0.0869140625	-153.25	-19.25	47.375
18	11	28	12	26	20	-0.291494974288	-0.623210884099	-0.231499254078	-1.00732421875	-0.16357421875	-0.00048828125	-115.8125	-14.5	38.5
18	11	28	12	26	20	-0.302729226282	-0.619191129159	-0.238582368051	-1.0185546875	-0.14599609375	0.0732421875	-78.125	-9.1875	33.4375
18	11	28	12	26	20	-0.311821277707	-0.616867812446	-0.243158342217	-1.009765625	-0.07275390625	0.08642578125	-58.375	-3.5625	31.625
18	11	28	12	26	20	-0.321231739471	-0.614570090202	-0.24835492075	-1.01416015625	-0.02783203125	0.0654296875	-62.8125	-2.0	28.5625
18	11	28	12	26	20	-0.332211046189	-0.610772724457	-0.255795791766	-1.00927734375	-0.0244140625	0.0283203125	-81.0	-7.0	25.6875
18	11	28	12	26	20	-0.344702347485	-0.604693848952	-0.265606341405	-1.00439453125	-0.07177734375	0.015625	-98.9375	-14.625	23.0625
18	11	28	12	26	20	-0.358753638169	-0.596905508896	-0.275077007014	-1.01318359375	-0.14501953125	0.04541015625	-106.625	-19.3125	21.1875
18	11	28	12	26	20	-0.370416880248	-0.589102608033	-0.285457200349	-1.01806640625	-0.22265625	0.0810546875	-98.8125	-17.75	23.9375
18	11	28	12	26	20	-0.379445596098	-0.582992493795	-0.293632421236	-1.02880859375	-0.30078125	0.0810546875	-76.3125	-14.25	28.9375
18	11	28	12	26	20	-0.386346264694	-0.578909055391	-0.298640169534	-1.04931640625	-0.3447265625	0.072265625	-51.0625	-13.0	36.25
18	11	28	12	26	20	-0.391959735318	-0.576709364532	-0.299981641091	-1.0234375	-0.3515625	0.0732421875	-28.1875	-13.8125	46.0
18	11	28	12	26	20	-0.39691135938	-0.57580528439	-0.2982175768	-0.95849609375	-0.32470703125	0.11572265625	-9.9375	-14.0	52.9375
18	11	28	12	26	20	-0.40055956302	-0.576151497015	-0.294423180254	-0.9296875	-0.28076171875	0.15234375	5.25	-11.25	53.25
18	11	28	12	26	20	-0.403187934147	-0.577438850283	-0.289604412281	-0.92724609375	-0.22900390625	0.18896484375	15.0625	-6.4375	50.9375
18	11	28	12	26	20	-0.405206369627	-0.579337077948	-0.284297525188	-0.9306640625	-0.166015625	0.22314453125	19.9375	-2.25	47.5625
18	11	28	12	26	20	-0.407029614174	-0.581218026058	-0.279226343507	-0.931640625	-0.09228515625	0.23876953125	18.875	-0.375	41.875
18	11	28	12	26	20	-0.409241366776	-0.582215271839	-0.275391058448	-0.93359375	-0.0517578125	0.26171875	10.9375	0.3125	35.1875
18	11	28	12	26	20	-0.411491693051	-0.582753290603	-0.273066424608	-0.9443359375	-0.01904296875	0.265625	3.6875	2.9375	28.9375
18	11	28	12	26	20	-0.413623305427	-0.582868904652	-0.272208933481	-0.939453125	0.00048828125	0.27685546875	-3.0	6.375	22.125
18	11	28	12	26	20	-0.415575157243	-0.582623065214	-0.272940535055	-0.92333984375	0.03076171875	0.27734375	-9.8125	10.0625	13.8125
18	11	28	12	26	20	-0.416858470459	-0.582014988916	-0.275138797193	-0.90087890625	0.05517578125	0.28125	-13.6875	13.75	4.1875
18	11	28	12	26	20	-0.417047717427	-0.581413223504	-0.278499741639	-0.8798828125	0.0830078125	0.27392578125	-14.8125	17.3125	-7.0
18	11	28	12	26	20	-0.416179883569	-0.58078424579	-0.282946171026	-0.875	0.126953125	0.26611328125	-15.375	20.3125	-18.375
18	11	28	12	26	20	-0.414431628877	-0.579838066912	-0.288698321736	-0.888671875	0.1484375	0.2509765625	-18.0625	22.4375	-29.375
18	11	28	12	26	20	-0.411992837653	-0.578560016017	-0.295475159567	-0.89111328125	0.17529296875	0.24169921875	-20.75	23.5	-38.625
18	11	28	12	26	20	-0.40912129361	-0.576724914713	-0.303224613853	-0.89453125	0.18603515625	0.23486328125	-24.0625	23.4375	-46.625
18	11	28	12	26	20	-0.405751879477	-0.574265859506	-0.311698984429	-0.91015625	0.1845703125	0.236328125	-25.9375	22.8125	-54.0
18	11	28	12	26	20	-0.401606994687	-0.571404967213	-0.320675250773	-0.939453125	0.1796875	0.23388671875	-25.4375	22.125	-60.5625
18	11	28	12	26	20	-0.397099376062	-0.56818292219	-0.330020953946	-0.9736328125	0.166015625	0.22998046875	-26.25	21.6875	-65.0625
18	11	28	12	26	20	-0.391958941024	-0.564989709913	-0.339652990782	-1.072265625	0.1875	0.22216796875	-25.875	22.3125	-71.375
18	11	28	12	26	20	-0.385667663896	-0.561625865354	-0.350207478309	-1.24951171875	0.16845703125	0.20068359375	-25.875	23.125	-79.5
18	11	28	12	26	20	-0.379206607247	-0.557915273916	-0.361201464942	-1.44482421875	0.11572265625	0.17626953125	-27.125	20.8125	-81.4375
18	11	28	12	26	20	-0.374438511963	-0.553387773099	-0.371386853348	-1.5380859375	0.0576171875	0.16455078125	-31.8125	11.9375	-72.6875
18	11	28	12	26	20	-0.374078211489	-0.547232051592	-0.380425761496	-1.44287109375	-0.005859375	0.171875	-45.875	-2.8125	-51.3125
18	11	28	12	26	20	-0.378723339935	-0.53936795407	-0.388000688471	-1.27197265625	-0.1005859375	0.1904296875	-61.125	-18.375	-23.875
18	11	28	12	26	20	-0.387814156765	-0.531062476868	-0.393185205836	-1.08154296875	-0.15673828125	0.1953125	-68.9375	-30.4375	6.5
18	11	28	12	26	20	-0.400281556366	-0.523515539639	-0.396131030927	-0.99072265625	-0.16943359375	0.1640625	-72.4375	-37.5625	32.6875
18	11	28	12	26	20	-0.414797840848	-0.517032447002	-0.397585805663	-1.0146484375	-0.13916015625	0.09912109375	-74.0625	-42.3125	49.625
18	11	28	12	26	20	-0.430461860237	-0.511024692438	-0.3985418896	-1.06494140625	-0.10546875	0.03173828125	-77.125	-46.875	58.125
18	11	28	12	26	20	-0.44622577823	-0.505246476841	-0.399534119039	-1.1123046875	-0.07763671875	-0.02099609375	-78.875	-48.4375	59.875
18	11	28	12	26	20	-0.461108259219	-0.499681445165	-0.40031887124	-1.1279296875	-0.064453125	-0.0419921875	-74.625	-49.1875	57.6875
18	11	28	12	26	20	-0.474675659398	-0.494573340375	-0.400089873647	-1.07177734375	-0.08154296875	-0.02734375	-64.5625	-48.6875	57.3125
18	11	28	12	26	20	-0.486682140729	-0.491076561864	-0.397389944606	-1.013671875	-0.0791015625	0.009765625	-44.25	-47.0	60.3125
18	11	28	12	26	20	-0.49748826722	-0.490042117226	-0.390861840667	-0.92138671875	-0.078125	0.0693359375	-17.9375	-45.0	70.25
18	11	28	12	26	20	-0.507243587568	-0.492534683152	-0.379624006097	-0.84814453125	-0.03759765625	0.126953125	12.8125	-41.5625	84.4375
18	11	28	12	26	20	-0.515291931091	-0.499118490165	-0.363993968616	-0.79736328125	0.044921875	0.14501953125	44.25	-36.5	95.0
18	11	28	12	26	21	-0.522260863016	-0.507857034143	-0.345874992487	-0.77734375	0.1416015625	0.1259765625	61.625	-31.6875	101.0625
18	11	28	12	26	21	-0.529423197512	-0.516361569166	-0.328249706735	-0.78076171875	0.22412109375	0.07373046875	56.3125	-29.5625	101.6875
18	11	28	12	26	21	-0.537571133356	-0.523960965016	-0.313339032544	-0.7861328125	0.2685546875	0.04150390625	33.6875	-28.5625	97.1875
18	11	28	12	26	21	-0.547001987404	-0.528264025997	-0.302492953534	-0.80224609375	0.25732421875	0.029296875	4.625	-27.6875	89.125
18	11	28	12	26	21	-0.557175181731	-0.529282854197	-0.295585431605	-0.83056640625	0.2001953125	0.03369140625	-20.1875	-27.5625	80.5625
18	11	28	12	26	21	-0.56700788852	-0.528495296738	-0.290828050463	-0.84521484375	0.1328125	0.06298828125	-29.3125	-26.5625	73.75
18	11	28	12	26	21	-0.575403583083	-0.527555003412	-0.286725289915	-0.857421875	0.078125	0.091796875	-24.1875	-24.25	68.125
18	11	28	12	26	21	-0.581661007641	-0.527889407669	-0.281980467503	-0.865234375	0.04931640625	0.11962890625	-8.5625	-21.1875	64.5
18	11	28	12	26	21	-0.585728226298	-0.530066650557	-0.276354840958	-0.87060546875	0.05908203125	0.134765625	9.0	-16.5625	60.875
18	11	28	12	26	21	-0.587380888097	-0.534099142948	-0.270436898915	-0.9228515625	0.10693359375	0.12890625	23.6875	-11.5	53.5
18	11	28	12	26	21	-0.586708299837	-0.538797552373	-0.266103005024	-1.03173828125	0.1376953125	0.11181640625	28.5625	-7.125	40.5625
18	11	28	12	26	21	-0.585131326247	-0.542163510071	-0.264581652162	-1.14111328125	0.1328125	0.115234375	19.9375	-4.0	27.5
18	11	28	12	26	21	-0.584132719969	-0.543546756248	-0.265365068063	-1.123046875	0.09033203125	0.17919921875	6.9375	0.75	20.5625
18	11	28	12	26	21	-0.582815914991	-0.544608483555	-0.267024780405	-1.02734375	0.095703125	0.228515625	5.5	7.6875	12.6875
18	11	28	12	26	21	-0.579520056559	-0.545951227585	-0.269588213778	-0.96728515625	0.09619140625	0.255859375	12.625	13.5	-1.9375
18	11	28	12	26	21	-0.573044633107	-0.548570152557	-0.272332000524	-0.974609375	0.10302734375	0.26611328125	29.25	17.875	-18.0
18	11	28	12	26	21	-0.563335230634	-0.552532377348	-0.275259143029	-1.02734375	0.146484375	0.25439453125	45.125	21.8125	-35.0
18	11	28	12	26	21	-0.549972047099	-0.557784323431	-0.279044745238	-1.1376953125	0.19970703125	0.20849609375	58.5	25.625	-55.0
18	11	28	12	26	21	-0.533669381834	-0.562720917258	-0.284473123139	-1.2666015625	0.21923828125	0.15673828125	62.9375	24.6875	-76.4375
18	11	28	12	26	21	-0.518054675461	-0.5650506816	-0.291314204286	-1.2421875	0.224609375	0.1533203125	49.375	19.3125	-88.375
18	11	28	12	26	21	-0.503654301386	-0.564505408812	-0.299494868747	-1.11181640625	0.14013671875	0.18603515625	34.125	15.125	-93.75
18	11	28	12	26	21	-0.489192054663	-0.56255560422	-0.307309044944	-1.00048828125	0.01708984375	0.26220703125	35.6875	13.5625	-93.8125
18	11	28	12	26	21	-0.473604354975	-0.561733825153	-0.313091538791	-0.9130859375	-0.01025390625	0.30322265625	50.25	16.9375	-91.3125
18	11	28	12	26	21	-0.456425173053	-0.562627339556	-0.317019570585	-0.93115234375	0.02490234375	0.30126953125	65.3125	21.25	-91.875
18	11	28	12	26	21	-0.438940053499	-0.564116089335	-0.320599569109	-1.00634765625	0.0771484375	0.24951171875	65.6875	21.75	-93.4375
18	11	28	12	26	21	-0.423014836323	-0.56454872832	-0.325241099807	-1.0849609375	0.1083984375	0.19140625	50.8125	17.625	-93.5
18	11	28	12	26	21	-0.408322769132	-0.563534249237	-0.331052720444	-1.16259765625	0.07080078125	0.15771484375	37.9375	12.4375	-94.0625
18	11	28	12	26	21	-0.394515473985	-0.561684082161	-0.33616819782	-1.14111328125	0.0166015625	0.17822265625	35.875	8.0	-88.6875
18	11	28	12	26	21	-0.381218080529	-0.560352737326	-0.338738448117	-1.0234375	0.015625	0.20361328125	44.8125	5.3125	-79.6875
18	11	28	12	26	21	-0.368093720062	-0.559983399364	-0.338492417752	-0.9208984375	0.0322265625	0.193359375	56.8125	2.25	-71.0625
18	11	28	12	26	21	-0.356249106495	-0.559854900442	-0.336291344319	-0.8232421875	0.046875	0.1904296875	60.0	-2.0625	-60.3125
18	11	28	12	26	21	-0.346241662292	-0.559674959142	-0.332875379189	-0.75	0.046875	0.2021484375	57.125	-4.875	-48.625
18	11	28	12	26	21	-0.337147584044	-0.559979920999	-0.32848086483	-0.71630859375	0.05224609375	0.205078125	57.5	-4.625	-40.4375
18	11	28	12	26	21	-0.328489464084	-0.561093207604	-0.323057364065	-0.728515625	0.095703125	0.18701171875	60.125	-4.0625	-36.4375
18	11	28	12	26	21	-0.320500135967	-0.562507951451	-0.317326262977	-0.7705078125	0.14453125	0.1728515625	57.9375	-4.125	-34.5625
18	11	28	12	26	21	-0.313968603529	-0.563666417884	-0.31158820393	-0.81005859375	0.23876953125	0.18701171875	50.5625	-5.6875	-34.75
18	11	28	12	26	21	-0.308349872426	-0.564087395281	-0.306823992218	-0.841796875	0.2724609375	0.20068359375	40.8125	-7.0625	-37.75
18	11	28	12	26	21	-0.302852828278	-0.563836039426	-0.303096965987	-0.904296875	0.2705078125	0.22607421875	35.0	-6.9375	-42.0625
18	11	28	12	26	21	-0.297173886092	-0.563647738357	-0.299798342264	-0.93310546875	0.27294921875	0.24951171875	33.1875	-4.3125	-44.25
18	11	28	12	26	21	-0.291196218647	-0.563898944473	-0.296750369957	-0.9794921875	0.27978515625	0.259765625	32.75	-0.5625	-46.125
18	11	28	12	26	21	-0.28600508203	-0.563831614979	-0.294732936646	-1.00732421875	0.26953125	0.26318359375	24.5625	0.5625	-45.1875
18	11	28	12	26	21	-0.282886764559	-0.563149121161	-0.294177822044	-1.0	0.26416015625	0.275390625	9.0625	0.5	-41.125
18	11	28	12	26	21	-0.28227504498	-0.561803630062	-0.295702182255	-1.00537109375	0.2548828125	0.27783203125	-11.0625	1.0625	-36.125
18	11	28	12	26	21	-0.284289926742	-0.559974254585	-0.299731178667	-1.0634765625	0.2265625	0.25732421875	-32.8125	1.875	-29.875
18	11	28	12	26	21	-0.289243145513	-0.557612445117	-0.305844566821	-1.1259765625	0.17431640625	0.22900390625	-54.0	0.875	-20.125
18	11	28	12	26	21	-0.296572689029	-0.554937001163	-0.313113376151	-1.19970703125	0.09619140625	0.21044921875	-67.875	-0.375	-7.6875
18	11	28	12	26	21	-0.304979752484	-0.552955084552	-0.319749634433	-1.32177734375	0.0166015625	0.19970703125	-67.875	0.375	6.0
18	11	28	12	26	21	-0.313603416889	-0.55231555458	-0.324345768266	-1.40966796875	-0.03759765625	0.19482421875	-57.8125	2.25	20.1875
18	11	28	12	26	21	-0.322262471846	-0.553156208777	-0.326412821863	-1.4638671875	-0.0751953125	0.205078125	-45.125	4.4375	35.0
18	11	28	12	26	22	-0.332092073605	-0.554565076416	-0.325683386282	-1.3642578125	-0.1162109375	0.2412109375	-35.8125	3.3125	54.5
18	11	28	12	26	22	-0.344105290672	-0.556622960434	-0.321828165611	-1.22119140625	-0.10498046875	0.26953125	-29.6875	0.5625	76.5625
18	11	28	12	26	22	-0.359130440623	-0.558898274097	-0.316222775811	-1.091796875	-0.07421875	0.259765625	-33.9375	-3.0625	97.75
18	11	28	12	26	22	-0.377932642008	-0.561222649106	-0.310244124568	-0.99658203125	-0.02587890625	0.21923828125	-49.375	-6.4375	116.3125
18	11	28	12	26	22	-0.400512887784	-0.562011988832	-0.305725244576	-1.0048828125	0.052734375	0.158203125	-74.9375	-9.25	128.1875
18	11	28	12	26	22	-0.426750847771	-0.559866351059	-0.30462149331	-1.04833984375	0.126953125	0.06884765625	-110.4375	-12.9375	130.8125
18	11	28	12	26	22	-0.456106433613	-0.553455525225	-0.307549888797	-1.10302734375	0.140625	0.0	-149.5	-19.125	127.0625
18	11	28	12	26	22	-0.486503711014	-0.543265529009	-0.313349649021	-1.18896484375	0.11962890625	-0.0439453125	-174.5625	-25.8125	118.4375
18	11	28	12	26	22	-0.515474902803	-0.531038021465	-0.319867862372	-1.3046875	0.06298828125	-0.06884765625	-177.5625	-31.0	108.25
18	11	28	12	26	22	-0.541861032601	-0.5189121986	-0.324274348525	-1.31787109375	-0.05029296875	-0.052734375	-159.1875	-35.9375	104.9375
18	11	28	12	26	22	-0.564925772043	-0.509690484262	-0.323233242085	-1.158203125	-0.1240234375	0.0263671875	-118.25	-41.4375	110.25
18	11	28	12	26	22	-0.582686054085	-0.506211179699	-0.315603811216	-1.0048828125	-0.15234375	0.08447265625	-57.3125	-41.125	114.4375
18	11	28	12	26	22	-0.595139657217	-0.509387301726	-0.301994772219	-0.87548828125	-0.1201171875	0.09912109375	3.0	-35.3125	119.5625
18	11	28	12	26	22	-0.603499575234	-0.517625394171	-0.285209700149	-0.783203125	-0.02490234375	0.076171875	42.6875	-25.9375	121.375
18	11	28	12	26	22	-0.609724104134	-0.527512055258	-0.268486119528	-0.75439453125	0.09033203125	0.0380859375	53.5625	-17.125	116.125
18	11	28	12	26	22	-0.61609789061	-0.535652376461	-0.254276185088	-0.7373046875	0.18603515625	0.0068359375	38.0	-12.375	107.125
18	11	28	12	26	22	-0.622949636151	-0.540862121639	-0.245469132615	-0.708984375	0.2255859375	-0.00341796875	5.1875	-11.4375	95.6875
18	11	28	12	26	22	-0.631735128837	-0.541469815771	-0.240951626766	-0.6884765625	0.20947265625	0.00341796875	-29.3125	-11.6875	82.875
18	11	28	12	26	22	-0.641472951686	-0.538507692933	-0.23962158024	-0.66259765625	0.17333984375	0.041015625	-51.3125	-11.6875	70.25
18	11	28	12	26	22	-0.650562690149	-0.534109588282	-0.240108229951	-0.65234375	0.15673828125	0.0693359375	-57.0625	-10.125	57.5
18	11	28	12	26	22	-0.657342052947	-0.530268129619	-0.241391626686	-0.67431640625	0.1748046875	0.107421875	-46.625	-6.9375	42.375
18	11	28	12	26	22	-0.660762684045	-0.528134075839	-0.243223655636	-0.70947265625	0.18017578125	0.11328125	-28.5625	-3.3125	26.125
18	11	28	12	26	22	-0.6611154435	-0.527451962955	-0.245537982755	-0.76171875	0.2060546875	0.13818359375	-11.125	-0.0625	9.375
18	11	28	12	26	22	-0.659095054682	-0.527874166862	-0.248404192291	-0.79736328125	0.28369140625	0.1513671875	-0.5625	3.3125	-7.6875
18	11	28	12	26	22	-0.654941684995	-0.528054744066	-0.2533466531	-0.86083984375	0.32421875	0.14453125	1.1875	5.8125	-28.9375
18	11	28	12	26	22	-0.648925697848	-0.526611260444	-0.261596646066	-0.98193359375	0.3271484375	0.14208984375	-5.0625	6.625	-53.375
18	11	28	12	26	22	-0.641835387139	-0.522391506135	-0.27355517356	-1.109375	0.24755859375	0.16943359375	-16.9375	7.6875	-73.125
18	11	28	12	26	22	-0.634076651364	-0.51640413391	-0.287345545733	-1.14990234375	0.13671875	0.2470703125	-20.8125	11.75	-82.125
18	11	28	12	26	22	-0.623454408774	-0.512007737171	-0.300710707002	-1.16259765625	0.02587890625	0.26416015625	-0.8125	16.1875	-87.625
18	11	28	12	26	22	-0.609480952292	-0.510057312068	-0.312186568293	-1.2158203125	-0.0625	0.2919921875	28.4375	19.0625	-90.75
18	11	28	12	26	22	-0.592942184307	-0.511706358541	-0.321037147653	-1.228515625	-0.03466796875	0.25146484375	54.3125	22.8125	-89.0
18	11	28	12	26	22	-0.573109929054	-0.515615833935	-0.328973644047	-1.337890625	-0.02978515625	0.22216796875	75.3125	27.875	-96.375
18	11	28	12	26	22	-0.553756322663	-0.520371035713	-0.333730802637	-1.32958984375	-0.01025390625	0.18310546875	82.0	27.625	-102.0625
18	11	28	12	26	22	-0.533665362326	-0.523534020818	-0.339399940519	-1.169921875	-0.0419921875	0.2119140625	80.0	23.375	-99.625
18	11	28	12	26	22	-0.512928591252	-0.527332583106	-0.34197273879	-1.076171875	-0.068359375	0.25927734375	95.9375	20.5625	-95.0625
18	11	28	12	26	22	-0.491748848584	-0.533862129647	-0.340263104239	-1.05029296875	-0.0322265625	0.2587890625	115.25	19.4375	-89.125
18	11	28	12	26	22	-0.470018537138	-0.541183530554	-0.336965633494	-1.0791015625	0.04248046875	0.23291015625	123.125	20.0625	-84.4375
18	11	28	12	26	22	-0.448602102337	-0.547782839248	-0.333918653318	-1.1484375	0.12744140625	0.1943359375	117.4375	19.375	-85.125
18	11	28	12	26	22	-0.429132308623	-0.55297094526	-0.33214877308	-1.23779296875	0.18896484375	0.14599609375	98.3125	15.25	-88.3125
18	11	28	12	26	22	-0.412818226649	-0.555266148145	-0.332439515162	-1.208984375	0.1953125	0.103515625	70.5	6.3125	-87.9375
18	11	28	12	26	22	-0.399396683829	-0.554541300316	-0.334275005705	-1.0859375	0.13134765625	0.12841796875	48.375	-2.0625	-84.3125
18	11	28	12	26	22	-0.386466125325	-0.553027410229	-0.335014618116	-0.95458984375	0.08837890625	0.1875	50.25	-4.4375	-79.9375
18	11	28	12	26	22	-0.372675271159	-0.552848445161	-0.333064027958	-0.8291015625	0.10986328125	0.20361328125	66.1875	-2.5625	-75.8125
18	11	28	12	26	22	-0.358513623697	-0.553700305444	-0.329095243271	-0.759765625	0.1552734375	0.18017578125	76.5	-3.0625	-72.375
18	11	28	12	26	22	-0.346069827772	-0.554077935893	-0.32482956321	-0.72216796875	0.21484375	0.16650390625	68.875	-7.3125	-68.6875
18	11	28	12	26	22	-0.336664171547	-0.552908036628	-0.322260120697	-0.71630859375	0.25244140625	0.1591796875	46.5	-11.8125	-65.5
18	11	28	12	26	22	-0.329767484372	-0.550161781257	-0.322138216272	-0.73779296875	0.2568359375	0.1865234375	22.875	-12.6875	-64.75
18	11	28	12	26	22	-0.323967351929	-0.546679647933	-0.324028385718	-0.79150390625	0.24365234375	0.20458984375	7.875	-10.5625	-66.625
18	11	28	12	26	22	-0.317985492169	-0.543199785087	-0.32653020789	-0.8427734375	0.2119140625	0.2314453125	5.5625	-7.4375	-67.4375
18	11	28	12	26	22	-0.311032701002	-0.540584111612	-0.327756201801	-0.9013671875	0.18408203125	0.24755859375	15.5625	-5.0	-65.6875
18	11	28	12	26	22	-0.303338251035	-0.53917306029	-0.326836284565	-0.9306640625	0.17041015625	0.26318359375	28.875	-3.25	-60.4375
18	11	28	12	26	23	-0.295405577774	-0.539054145227	-0.323969588186	-0.93994140625	0.1552734375	0.2568359375	39.9375	-1.375	-52.3125
18	11	28	12	26	23	-0.288383261246	-0.539658157871	-0.319632410402	-0.93701171875	0.14794921875	0.26171875	43.5	-1.0625	-42.0
18	11	28	12	26	23	-0.28387488185	-0.540467013283	-0.314880781652	-0.9267578125	0.19580078125	0.28125	34.9375	-1.6875	-30.875
18	11	28	12	26	23	-0.282522412428	-0.54105880021	-0.311024889551	-0.96630859375	0.25244140625	0.28271484375	17.5625	-2.125	-22.625
18	11	28	12	26	23	-0.284970652971	-0.540705721711	-0.309933813619	-1.0361328125	0.23974609375	0.27783203125	-10.5625	-4.5625	-13.4375
18	11	28	12	26	23	-0.291006375207	-0.53928949902	-0.311269403011	-1.10498046875	0.17236328125	0.28173828125	-35.625	-7.0	-1.0625
18	11	28	12	26	23	-0.299495929198	-0.53746915682	-0.313289709511	-1.10302734375	0.10498046875	0.31103515625	-47.3125	-6.625	13.25
18	11	28	12	26	23	-0.308654709842	-0.536865103376	-0.314269942847	-1.14453125	0.06640625	0.31689453125	-44.3125	-2.4375	26.0
18	11	28	12	26	23	-0.317920551539	-0.538249442124	-0.313587213248	-1.25146484375	0.04931640625	0.27978515625	-34.5	1.9375	38.5
18	11	28	12	26	23	-0.328913451727	-0.54015291293	-0.311823868041	-1.2841796875	0.06494140625	0.2705078125	-36.3125	0.8125	51.8125
18	11	28	12	26	23	-0.341794014584	-0.543269379252	-0.309933929653	-1.44677734375	0.09521484375	0.2060546875	-42.25	1.375	65.0625
18	11	28	12	26	23	-0.358633125961	-0.544114077254	-0.310172489131	-1.41796875	0.04541015625	0.1796875	-69.3125	-6.8125	79.25
18	11	28	12	26	23	-0.380057973143	-0.541858790037	-0.311577959353	-1.2724609375	0.00732421875	0.201171875	-95.8125	-17.4375	96.6875
18	11	28	12	26	23	-0.403989529798	-0.538266152484	-0.312437287058	-1.236328125	-0.01513671875	0.16552734375	-105.6875	-21.625	109.5625
18	11	28	12	26	23	-0.429742900766	-0.533623374719	-0.313289349472	-1.20849609375	-0.02783203125	0.130859375	-116.125	-25.25	119.125
18	11	28	12	26	23	-0.456849190347	-0.527894274858	-0.314270738958	-1.2021484375	-0.01904296875	0.0810546875	-126.3125	-27.8125	126.25
18	11	28	12	26	23	-0.484120184646	-0.521289775222	-0.315361698697	-1.275390625	0.00830078125	0.05224609375	-131.1875	-29.25	127.875
18	11	28	12	26	23	-0.510784321345	-0.513958032028	-0.315845245903	-1.3046875	-0.025390625	0.02783203125	-129.3125	-32.625	127.875
18	11	28	12	26	23	-0.535948913397	-0.506835186978	-0.314025413897	-1.2646484375	-0.06494140625	0.04443359375	-114.8125	-37.8125	129.0
18	11	28	12	26	23	-0.558406149183	-0.50170494549	-0.308591265742	-1.1611328125	-0.083984375	0.06005859375	-86.25	-40.4375	130.4375
18	11	28	12	26	23	-0.578003402322	-0.499634197614	-0.299377686208	-1.02978515625	-0.10693359375	0.0830078125	-53.5	-38.9375	134.8125
18	11	28	12	26	23	-0.594895999957	-0.501392288873	-0.286492441141	-0.89208984375	-0.11083984375	0.1005859375	-20.375	-34.0	142.3125
18	11	28	12	26	23	-0.609051230927	-0.506820465139	-0.270682654491	-0.7763671875	-0.06689453125	0.10986328125	9.0625	-27.125	147.25
18	11	28	12	26	23	-0.621248067035	-0.514319428324	-0.253772419956	-0.7021484375	0.02587890625	0.0908203125	24.4375	-20.0	147.5625
18	11	28	12	26	23	-0.632534793693	-0.521761863304	-0.237719318934	-0.666015625	0.1435546875	0.05322265625	22.5625	-15.0625	142.5
18	11	28	12	26	23	-0.644074086944	-0.526586868394	-0.224354813191	-0.67529296875	0.24560546875	0.021484375	3.75	-13.75	130.6875
18	11	28	12	26	23	-0.656680060595	-0.527040833092	-0.214844670815	-0.7021484375	0.29541015625	0.0048828125	-26.75	-16.125	114.1875
18	11	28	12	26	23	-0.668518128667	-0.524597216826	-0.210815449321	-0.734375	0.29541015625	0.01123046875	-54.875	-19.4375	96.125
18	11	28	12	26	23	-0.679783002272	-0.519205782037	-0.209647568038	-0.75537109375	0.25830078125	0.033203125	-68.1875	-22.3125	77.375
18	11	28	12	26	23	-0.689443321577	-0.512688022419	-0.21026312348	-0.76171875	0.2197265625	0.08056640625	-67.25	-21.875	60.25
18	11	28	12	26	23	-0.696527698347	-0.506892966594	-0.211729283698	-0.74755859375	0.1591796875	0.12646484375	-53.375	-17.625	45.0625
18	11	28	12	26	23	-0.700403564408	-0.503575270994	-0.213001781089	-0.72119140625	0.12744140625	0.19189453125	-28.0625	-10.125	32.875
18	11	28	12	26	23	-0.699996892226	-0.50432246233	-0.213984576174	-0.7548828125	0.1845703125	0.21630859375	3.3125	-1.375	16.5
18	11	28	12	26	23	-0.695107178477	-0.507979370134	-0.216423747026	-0.87548828125	0.25537109375	0.185546875	24.6875	5.0	-7.0
18	11	28	12	26	23	-0.688041168191	-0.510492001308	-0.222287406595	-1.02783203125	0.244140625	0.17431640625	20.75	6.0	-30.25
18	11	28	12	26	23	-0.680994207269	-0.510593075642	-0.230273449008	-1.07177734375	0.2373046875	0.22021484375	8.8125	6.375	-44.5
18	11	28	12	26	23	-0.672549224137	-0.509950881901	-0.240113317702	-1.0791015625	0.2509765625	0.2294921875	6.8125	10.125	-62.625
18	11	28	12	26	23	-0.660688092958	-0.509630076323	-0.252251629394	-1.162109375	0.2548828125	0.19580078125	13.375	14.0625	-89.0
18	11	28	12	26	23	-0.647040603306	-0.508672425993	-0.263674691659	-1.3310546875	0.1689453125	0.1767578125	23.25	16.8125	-116.0625
18	11	28	12	26	23	-0.631623032253	-0.507727510418	-0.27574382643	-1.29150390625	0.0302734375	0.24658203125	28.9375	21.125	-125.125
18	11	28	12	26	23	-0.612982035419	-0.510930261723	-0.285464201897	-1.12646484375	-0.0517578125	0.3408203125	61.0625	32.9375	-121.5
18	11	28	12	26	23	-0.588674531665	-0.519278684853	-0.291804347941	-1.1083984375	-0.04443359375	0.3408203125	108.875	41.0625	-127.6875
18	11	28	12	26	23	-0.561877950943	-0.529041720484	-0.296441582417	-1.15966796875	0.05322265625	0.32568359375	126.625	42.8125	-131.625
18	11	28	12	26	23	-0.536344460004	-0.536771680216	-0.301678500888	-1.1923828125	0.1357421875	0.314453125	110.875	40.8125	-129.625
18	11	28	12	26	23	-0.514619324188	-0.539947481154	-0.309430736911	-1.201171875	0.13916015625	0.28564453125	72.9375	33.1875	-127.4375
18	11	28	12	26	23	-0.498284740593	-0.538079161327	-0.32006432872	-1.1484375	0.1123046875	0.255859375	27.0	22.875	-119.5
18	11	28	12	26	23	-0.486611904214	-0.532508323625	-0.332626975789	-1.03564453125	0.0498046875	0.2060546875	-8.75	14.25	-109.8125
18	11	28	12	26	23	-0.47692013416	-0.525686347008	-0.345147601571	-0.916015625	-0.05029296875	0.18896484375	-20.25	9.1875	-101.375
18	11	28	12	26	23	-0.466050046595	-0.519759323835	-0.355823961714	-0.8125	-0.08935546875	0.20068359375	-4.5625	10.125	-93.3125
18	11	28	12	26	23	-0.452634380004	-0.517453381024	-0.362363850335	-0.76904296875	-0.07080078125	0.19189453125	28.125	14.9375	-88.125
18	11	28	12	26	24	-0.436769613624	-0.518618139598	-0.364991935365	-0.796875	0.00341796875	0.14501953125	58.3125	17.1875	-85.875
18	11	28	12	26	24	-0.420341261166	-0.521291521943	-0.364922375565	-0.826171875	0.0830078125	0.0986328125	72.5625	13.5625	-84.4375
18	11	28	12	26	24	-0.40502320276	-0.523368590065	-0.363580955221	-0.84716796875	0.140625	0.1044921875	71.8125	6.5625	-82.5
18	11	28	12	26	24	-0.390741477112	-0.524528624539	-0.361689158601	-0.86181640625	0.1748046875	0.138671875	68.0625	1.9375	-82.125
18	11	28	12	26	24	-0.37657557006	-0.525618931824	-0.359120041205	-0.87548828125	0.20751953125	0.181640625	68.5	2.625	-82.9375
18	11	28	12	26	24	-0.362107391976	-0.527017921744	-0.356065148287	-0.904296875	0.23095703125	0.2080078125	71.3125	5.9375	-84.375
18	11	28	12	26	24	-0.347282584679	-0.528797243174	-0.352287360065	-0.94482421875	0.22607421875	0.2470703125	74.75	8.75	-83.4375
18	11	28	12	26	24	-0.332764445414	-0.530762952553	-0.347412916965	-0.95703125	0.22900390625	0.28564453125	77.875	9.625	-79.125
18	11	28	12	26	24	-0.319331405148	-0.532829351479	-0.341547886699	-0.95703125	0.23095703125	0.3095703125	76.9375	8.8125	-71.4375
18	11	28	12	26	24	-0.307790994669	-0.534956983596	-0.335622185145	-0.974609375	0.25048828125	0.2998046875	68.75	8.4375	-63.3125
18	11	28	12	26	24	-0.299377088425	-0.536620461046	-0.331420507675	-1.02294921875	0.25634765625	0.28125	47.4375	6.6875	-54.25
18	11	28	12	26	24	-0.29460639283	-0.537334717728	-0.32970037996	-1.0732421875	0.24609375	0.26025390625	20.4375	4.625	-45.4375
18	11	28	12	26	24	-0.293145227886	-0.537036198244	-0.330803067904	-1.1103515625	0.1748046875	0.255859375	-5.25	4.0625	-35.0
18	11	28	12	26	24	-0.294128265117	-0.536437709506	-0.33337385019	-1.103515625	0.064453125	0.2705078125	-20.875	5.9375	-20.5
18	11	28	12	26	24	-0.296195970017	-0.537339649708	-0.334586092651	-1.14404296875	0.0283203125	0.2900390625	-17.625	11.75	-4.75
18	11	28	12	26	24	-0.298585217937	-0.540590612278	-0.333558506955	-1.2294921875	-0.0009765625	0.25732421875	-6.25	17.1875	11.0
18	11	28	12	26	24	-0.303157622091	-0.545402961749	-0.330317908347	-1.27490234375	0.0908203125	0.24951171875	-4.25	18.375	26.3125
18	11	28	12	26	24	-0.310424522521	-0.550780749357	-0.327514350737	-1.3701171875	0.080078125	0.173828125	-15.8125	16.625	41.75
18	11	28	12	26	24	-0.32263265924	-0.553895456414	-0.32568442484	-1.24267578125	0.03271484375	0.19384765625	-40.9375	6.8125	62.75
18	11	28	12	26	24	-0.338983298659	-0.555837396631	-0.323785811917	-1.1044921875	0.02490234375	0.19921875	-57.75	0.9375	83.625
18	11	28	12	26	24	-0.358094139495	-0.557679589665	-0.321717097201	-1.0810546875	0.04150390625	0.16259765625	-69.3125	-1.1875	99.3125
18	11	28	12	26	24	-0.379749400893	-0.557783634645	-0.320913267422	-1.099609375	0.0771484375	0.1083984375	-87.3125	-5.5	109.25
18	11	28	12	26	24	-0.403793821541	-0.55613199847	-0.321094210267	-1.16357421875	0.0908203125	0.06103515625	-105.375	-11.25	115.375
18	11	28	12	26	24	-0.428886675911	-0.552602812537	-0.322076987161	-1.287109375	0.0693359375	0.00830078125	-117.25	-17.4375	116.125
18	11	28	12	26	24	-0.4548312666	-0.547237941	-0.32336232561	-1.41015625	-0.01318359375	-0.01904296875	-126.125	-24.5625	118.1875
18	11	28	12	26	24	-0.480897263569	-0.541383262832	-0.32226647438	-1.345703125	-0.1484375	0.03125	-118.5625	-32.25	127.875
18	11	28	12	26	24	-0.504994176733	-0.537891428517	-0.316582643789	-1.18017578125	-0.2021484375	0.13037109375	-88.375	-32.375	139.3125
18	11	28	12	26	24	-0.525499001825	-0.538987419874	-0.305717131259	-1.02880859375	-0.19091796875	0.16455078125	-45.5	-25.875	150.5
18	11	28	12	26	24	-0.543255394307	-0.54386572505	-0.291005698242	-0.91796875	-0.1025390625	0.15966796875	-13.25	-18.8125	159.6875
18	11	28	12	26	24	-0.559569031541	-0.550291709029	-0.274779644415	-0.86767578125	0.00390625	0.1298828125	-0.875	-14.4375	162.9375
18	11	28	12	26	24	-0.57586783407	-0.556092404474	-0.259033713598	-0.80712890625	0.12158203125	0.09228515625	-6.4375	-12.1875	162.125
18	11	28	12	26	24	-0.592934588476	-0.559427528355	-0.245535342197	-0.77294921875	0.224609375	0.03662109375	-25.75	-11.9375	155.0625
18	11	28	12	26	24	-0.611430134317	-0.558636456319	-0.235404874033	-0.759765625	0.296875	-0.021484375	-55.4375	-15.6875	142.75
18	11	28	12	26	24	-0.63127100974	-0.55308690808	-0.228632041234	-0.76171875	0.3037109375	-0.05126953125	-85.8125	-22.1875	127.6875
18	11	28	12	26	24	-0.651236396828	-0.543815960238	-0.224423264399	-0.7666015625	0.27099609375	-0.04638671875	-104.8125	-28.0625	110.5625
18	11	28	12	26	24	-0.669482266184	-0.533071210945	-0.221736628047	-0.7841796875	0.21484375	-0.02099609375	-106.4375	-30.6875	93.5
18	11	28	12	26	24	-0.682595323019	-0.524092099317	-0.22228291903	-0.8056640625	0.16015625	0.0146484375	-90.6875	-29.1875	77.4375
18	11	28	12	26	24	-0.691610867704	-0.517548549076	-0.222887653446	-0.82421875	0.126953125	0.0546875	-63.875	-24.875	61.4375
18	11	28	12	26	24	-0.696618493969	-0.513949915693	-0.223498942081	-0.85498046875	0.13720703125	0.0947265625	-35.75	-18.625	45.625
18	11	28	12	26	24	-0.698524470745	-0.512251278547	-0.224846146809	-0.8876953125	0.11669921875	0.10693359375	-17.375	-14.0625	31.25
18	11	28	12	26	24	-0.698580503706	-0.510965924954	-0.227346878936	-0.95703125	0.1318359375	0.166015625	-9.0625	-9.625	17.875
18	11	28	12	26	24	-0.694708284589	-0.511784305595	-0.231874606673	-1.0849609375	0.234375	0.1103515625	4.4375	-5.0	-7.9375
18	11	28	12	26	24	-0.690297880044	-0.509514297313	-0.240169952076	-1.10107421875	0.2021484375	0.13427734375	-11.5625	-2.5625	-32.1875
18	11	28	12	26	24	-0.684503918591	-0.505672310791	-0.251462875131	-1.10888671875	0.19140625	0.18603515625	-17.1875	5.1875	-55.5625
18	11	28	12	26	24	-0.674776521649	-0.502115271672	-0.265186684747	-1.1572265625	0.1064453125	0.2041015625	-3.5625	11.1875	-82.8125
18	11	28	12	26	24	-0.663110493813	-0.501132099834	-0.275741666917	-1.205078125	0.0869140625	0.22265625	19.375	18.875	-100.75
18	11	28	12	26	24	-0.646709423153	-0.50260967343	-0.286612632231	-1.30615234375	0.0634765625	0.201171875	45.6875	26.0	-120.75
18	11	28	12	26	24	-0.628526283236	-0.504688661495	-0.297845043911	-1.22705078125	0.01025390625	0.2578125	53.125	33.125	-127.5
18	11	28	12	26	24	-0.609422779154	-0.507984555924	-0.308709105354	-1.05615234375	0.00732421875	0.3076171875	59.5625	42.4375	-124.1875
18	11	28	12	26	24	-0.588734576728	-0.511831656691	-0.319208152217	-0.96728515625	0.02294921875	0.30078125	66.9375	46.0625	-129.0625
18	11	28	12	26	25	-0.567551732284	-0.514391439906	-0.330252975953	-1.00390625	0.0537109375	0.25634765625	62.3125	44.0	-135.625
18	11	28	12	26	25	-0.547844531714	-0.514641832822	-0.342097660456	-1.02783203125	0.06982421875	0.22607421875	45.125	39.875	-135.0
18	11	28	12	26	25	-0.529106986113	-0.513238048936	-0.354670745911	-1.06591796875	0.0390625	0.2021484375	32.875	37.5625	-133.9375
18	11	28	12	26	25	-0.511083929638	-0.510717736232	-0.367169921268	-1.10107421875	-0.01806640625	0.16796875	25.8125	33.9375	-131.625
18	11	28	12	26	25	-0.494381007624	-0.50780863993	-0.378354057563	-1.0927734375	-0.06494140625	0.15478515625	23.5625	28.875	-121.25
18	11	28	12	26	25	-0.478252066808	-0.505716772023	-0.387008212816	-1.03857421875	-0.1123046875	0.15185546875	31.875	24.25	-109.0625
18	11	28	12	26	25	-0.461286794191	-0.504620165966	-0.393113024793	-0.9599609375	-0.126953125	0.19091796875	48.75	21.9375	-98.625
18	11	28	12	26	25	-0.443403961753	-0.505901643354	-0.395187976923	-0.89794921875	-0.09130859375	0.216796875	72.375	23.5625	-91.125
18	11	28	12	26	25	-0.424311448466	-0.509454496597	-0.393916295799	-0.87890625	-0.0302734375	0.2197265625	93.375	25.125	-87.0
18	11	28	12	26	25	-0.404824361663	-0.513827272854	-0.391275287596	-0.89599609375	0.05224609375	0.197265625	100.9375	23.0625	-81.8125
18	11	28	12	26	25	-0.388364506644	-0.518185551062	-0.386777601541	-0.9130859375	0.1259765625	0.18310546875	93.0	17.75	-75.0
18	11	28	12	26	25	-0.37519120241	-0.521129410473	-0.383064907487	-0.91845703125	0.17724609375	0.18017578125	72.75	12.125	-68.625
18	11	28	12	26	25	-0.364437022938	-0.522760526121	-0.380733235487	-0.9287109375	0.19482421875	0.20556640625	53.4375	10.25	-65.0
18	11	28	12	26	25	-0.354782540424	-0.52378182727	-0.379317648157	-0.93798828125	0.1884765625	0.22900390625	43.3125	11.875	-63.6875
18	11	28	12	26	25	-0.345524901198	-0.524787687776	-0.378118135121	-0.953125	0.17919921875	0.25634765625	39.8125	14.1875	-62.0
18	11	28	12	26	25	-0.336846573705	-0.525868831137	-0.37633556323	-0.9521484375	0.18505859375	0.28466796875	39.5625	14.875	-58.4375
18	11	28	12	26	25	-0.329350307809	-0.526923870888	-0.374211774866	-0.93505859375	0.205078125	0.2939453125	35.875	13.625	-53.5625
18	11	28	12	26	25	-0.323969046919	-0.527578832247	-0.37273529946	-0.9365234375	0.2392578125	0.2900390625	23.0625	11.625	-48.4375
18	11	28	12	26	25	-0.321647302913	-0.527086548	-0.373525900157	-0.99072265625	0.2421875	0.28125	-1.125	9.0	-43.5
18	11	28	12	26	25	-0.322204806499	-0.524780626308	-0.377258554456	-1.09326171875	0.1669921875	0.27734375	-27.5	4.4375	-38.625
18	11	28	12	26	25	-0.325926134711	-0.520566292687	-0.382993725713	-1.1025390625	0.04150390625	0.31005859375	-50.0	-0.625	-26.25
18	11	28	12	26	25	-0.331774511511	-0.516093684573	-0.387985756011	-1.0791015625	-0.0576171875	0.36669921875	-54.875	-2.375	-8.3125
18	11	28	12	26	25	-0.336914339878	-0.514282649966	-0.390442215978	-1.18505859375	-0.06640625	0.3349609375	-37.75	2.3125	2.375
18	11	28	12	26	25	-0.34227238481	-0.514140971761	-0.391037655042	-1.26318359375	-0.0703125	0.3134765625	-28.0625	3.875	13.125
18	11	28	12	26	25	-0.348806600054	-0.515733293168	-0.390797665817	-1.359375	-0.00830078125	0.19677734375	-27.25	1.6875	22.375
18	11	28	12	26	25	-0.359180584156	-0.515181531158	-0.391833364534	-1.29931640625	-0.1171875	0.150390625	-48.8125	-11.0625	40.9375
18	11	28	12	26	25	-0.374071859366	-0.512494926268	-0.391954557162	-1.10302734375	-0.18896484375	0.19384765625	-63.375	-25.1875	65.9375
18	11	28	12	26	25	-0.390253394748	-0.511101333691	-0.389215811434	-0.9814453125	-0.154296875	0.19970703125	-54.6875	-26.3125	83.4375
18	11	28	12	26	25	-0.406308009451	-0.511592869944	-0.385067933247	-0.99462890625	-0.08984375	0.1572265625	-47.3125	-22.5	91.4375
18	11	28	12	26	25	-0.423329411858	-0.512499577765	-0.38091102356	-1.0263671875	0.01123046875	0.09716796875	-52.8125	-23.625	94.375
18	11	28	12	26	25	-0.440892864557	-0.512666121578	-0.37845745475	-1.134765625	0.0732421875	0.01806640625	-66.125	-26.625	90.75
18	11	28	12	26	25	-0.459018388189	-0.510345932993	-0.378334661399	-1.2373046875	-0.00048828125	-0.03662109375	-82.25	-35.0	89.0
18	11	28	12	26	25	-0.47814896608	-0.506042006353	-0.377746228117	-1.2109375	-0.1015625	-0.00634765625	-86.8125	-44.875	97.5625
18	11	28	12	26	25	-0.497801104313	-0.502561830911	-0.371641849456	-1.087890625	-0.1279296875	0.08251953125	-64.5	-47.75	107.1875
18	11	28	12	26	25	-0.513966591977	-0.503041521324	-0.361320772415	-0.99072265625	-0.11328125	0.125	-25.4375	-41.625	112.1875
18	11	28	12	26	25	-0.526774014381	-0.507487652598	-0.347886905569	-0.9228515625	-0.068359375	0.1376953125	7.875	-32.375	115.375
18	11	28	12	26	25	-0.537393444673	-0.51426202894	-0.332933701384	-0.88037109375	0.02783203125	0.11572265625	26.3125	-25.25	115.4375
18	11	28	12	26	25	-0.54711866573	-0.52117874684	-0.318114958254	-0.87841796875	0.10205078125	0.08837890625	28.375	-23.0625	112.0625
18	11	28	12	26	25	-0.557361792218	-0.526539660694	-0.304437211956	-0.869140625	0.166015625	0.056640625	17.25	-24.9375	108.125
18	11	28	12	26	25	-0.569025102984	-0.529047473203	-0.293026871117	-0.85888671875	0.2060546875	0.0205078125	-5.25	-28.4375	103.0
18	11	28	12	26	25	-0.580852004998	-0.52940110238	-0.285695937312	-0.86962890625	0.1845703125	0.013671875	-29.0625	-32.0	95.9375
18	11	28	12	26	25	-0.593067569954	-0.527211862639	-0.280512354791	-0.88037109375	0.126953125	0.03125	-43.5625	-34.4375	90.1875
18	11	28	12	26	25	-0.604284351572	-0.523965373018	-0.276538975555	-0.89892578125	0.0498046875	0.06005859375	-43.625	-34.5625	84.375
18	11	28	12	26	25	-0.613764371896	-0.521418956753	-0.272214508617	-0.88330078125	-0.00634765625	0.09130859375	-31.4375	-32.5625	81.625
18	11	28	12	26	25	-0.621008258836	-0.52091454439	-0.266713129348	-0.8662109375	-0.0146484375	0.1171875	-11.4375	-28.3125	79.125
18	11	28	12	26	25	-0.62584530632	-0.522697406215	-0.260494223462	-0.88818359375	0.0234375	0.12890625	6.375	-23.0	73.8125
18	11	28	12	26	25	-0.629013814535	-0.525744711663	-0.254266597259	-0.91796875	0.08349609375	0.13671875	16.1875	-18.8125	66.9375
18	11	28	12	26	25	-0.630606864254	-0.528923643595	-0.249569441341	-0.99755859375	0.14208984375	0.1201171875	16.875	-16.0	54.3125
18	11	28	12	26	25	-0.631442261638	-0.530128308969	-0.247791956529	-1.08203125	0.140625	0.154296875	6.3125	-14.6875	38.1875
18	11	28	12	26	25	-0.632004326965	-0.529162483321	-0.248651436799	-1.10205078125	0.10302734375	0.19970703125	-4.375	-12.625	24.125
18	11	28	12	26	26	-0.63206318867	-0.527085525043	-0.251030889822	-1.06396484375	0.0830078125	0.2548828125	-8.1875	-8.8125	12.4375
18	11	28	12	26	26	-0.629324288469	-0.526054315034	-0.254940117635	-1.1181640625	0.09228515625	0.24462890625	1.875	-2.625	-4.5625
18	11	28	12	26	26	-0.624846378048	-0.5249368722	-0.260240765383	-1.1396484375	0.0576171875	0.2578125	5.125	0.875	-17.25
18	11	28	12	26	26	-0.616618215384	-0.525922910222	-0.266226730229	-1.23046875	0.1064453125	0.25244140625	23.6875	8.25	-36.0625
18	11	28	12	26	26	-0.60490208126	-0.527206556142	-0.274284124022	-1.28955078125	0.04443359375	0.24658203125	33.125	13.875	-57.75
18	11	28	12	26	26	-0.594713720602	-0.527393396933	-0.281610130014	-1.03564453125	0.02099609375	0.35888671875	28.9375	21.3125	-56.1875
18	11	28	12	26	26	-0.58181543566	-0.530426723101	-0.28745942536	-0.92919921875	0.08349609375	0.361328125	50.25	31.1875	-65.3125
18	11	28	12	26	26	-0.567047972804	-0.533358328957	-0.294296127958	-0.97900390625	0.08984375	0.3388671875	53.3125	33.125	-78.5625
18	11	28	12	26	26	-0.554002713054	-0.534899171225	-0.301750513753	-0.9970703125	0.13623046875	0.3349609375	37.9375	32.3125	-77.875
18	11	28	12	26	26	-0.541852904196	-0.535200283498	-0.310353910547	-1.00146484375	0.14111328125	0.2841796875	24.25	30.875	-80.1875
18	11	28	12	26	26	-0.530565936084	-0.533129351397	-0.320854150005	-1.0498046875	0.0927734375	0.22314453125	7.75	23.5	-85.125
18	11	28	12	26	26	-0.521152979677	-0.528965086645	-0.331465257364	-1.0068359375	0.03369140625	0.1865234375	-5.8125	13.3125	-81.25
18	11	28	12	26	26	-0.511705137648	-0.524583213035	-0.340811246258	-0.92626953125	-0.03125	0.1640625	-0.375	7.0	-77.875
18	11	28	12	26	26	-0.500119381881	-0.521725711047	-0.347227137359	-0.85205078125	-0.08203125	0.18505859375	24.125	5.5625	-77.4375
18	11	28	12	26	26	-0.485402009485	-0.522083338255	-0.349784850542	-0.80810546875	-0.06103515625	0.19970703125	58.8125	9.0	-77.875
18	11	28	12	26	26	-0.467523777581	-0.52581166369	-0.348628696807	-0.80908203125	0.005859375	0.17626953125	91.0625	11.8125	-80.0
18	11	28	12	26	26	-0.448302870274	-0.530517161119	-0.345153537291	-0.81689453125	0.1025390625	0.14697265625	106.9375	9.1875	-81.75
18	11	28	12	26	26	-0.429559196026	-0.534110901453	-0.341242606562	-0.84228515625	0.18896484375	0.11962890625	103.375	2.8125	-82.5
18	11	28	12	26	26	-0.41350755642	-0.536613791299	-0.337641889612	-0.86181640625	0.208984375	0.1328125	85.75	-2.0	-83.25
18	11	28	12	26	26	-0.398312004286	-0.537837171585	-0.335507368611	-0.8984375	0.19921875	0.16015625	72.75	-1.5625	-85.125
18	11	28	12	26	26	-0.382683754336	-0.538931028833	-0.333856481055	-0.9384765625	0.17822265625	0.1904296875	71.5	2.8125	-87.6875
18	11	28	12	26	26	-0.366260909357	-0.540755150292	-0.331655021071	-0.9697265625	0.2138671875	0.22509765625	76.0625	9.0625	-90.4375
18	11	28	12	26	26	-0.349665724713	-0.542778371421	-0.329341290024	-1.021484375	0.2265625	0.24072265625	75.8125	12.5625	-92.125
18	11	28	12	26	26	-0.334099484239	-0.544300182763	-0.32720265528	-1.02392578125	0.24755859375	0.26220703125	69.0625	11.9375	-90.375
18	11	28	12	26	26	-0.320552569789	-0.544914954889	-0.325618423424	-0.99462890625	0.28662109375	0.27587890625	55.9375	10.0	-88.0625
18	11	28	12	26	26	-0.309381375833	-0.544484366504	-0.32604365944	-0.98486328125	0.32421875	0.2724609375	35.1875	9.5	-87.375
18	11	28	12	26	26	-0.300780375456	-0.543089241234	-0.329466815485	-1.0341796875	0.3486328125	0.2548828125	9.1875	9.625	-88.125
18	11	28	12	26	26	-0.29504460424	-0.540162339165	-0.336609638474	-1.09912109375	0.30615234375	0.244140625	-20.9375	9.125	-86.8125
18	11	28	12	26	26	-0.291864375864	-0.536122266331	-0.346001494516	-1.12451171875	0.212890625	0.2763671875	-41.9375	10.0	-78.6875
18	11	28	12	26	26	-0.289793123868	-0.533016712455	-0.354795161972	-1.20556640625	0.1533203125	0.2841796875	-42.875	13.6875	-66.75
18	11	28	12	26	26	-0.289245594694	-0.531066874747	-0.361755357617	-1.25048828125	0.03662109375	0.2666015625	-38.125	12.8125	-45.4375
18	11	28	12	26	26	-0.292352460192	-0.530628870336	-0.365287990449	-1.27294921875	0.083984375	0.2724609375	-35.375	9.1875	-19.0
18	11	28	12	26	26	-0.298826320484	-0.53130782676	-0.367978734926	-1.34765625	-0.00146484375	0.20947265625	-41.9375	6.3125	8.5625
18	11	28	12	26	26	-0.310724473526	-0.530813346348	-0.369866491764	-1.17431640625	-0.083984375	0.23486328125	-59.25	-3.75	41.1875
18	11	28	12	26	26	-0.325986713567	-0.530819406083	-0.369626575053	-1.0615234375	-0.0634765625	0.236328125	-62.125	-7.875	65.9375
18	11	28	12	26	26	-0.343192558235	-0.53184775964	-0.368094312416	-1.0595703125	-0.02001953125	0.1767578125	-63.625	-10.0	81.625
18	11	28	12	26	26	-0.362589913213	-0.532746566645	-0.366618011895	-1.08740234375	0.0400390625	0.11572265625	-73.8125	-14.625	90.75
18	11	28	12	26	26	-0.384080946258	-0.532513309408	-0.365648966953	-1.14404296875	0.10400390625	0.06494140625	-87.9375	-22.4375	95.6875
18	11	28	12	26	26	-0.407157565084	-0.528737218757	-0.366447911972	-1.25830078125	0.1181640625	0.00244140625	-105.6875	-29.875	98.875
18	11	28	12	26	26	-0.43266637039	-0.522507659318	-0.368398111394	-1.32177734375	0.03515625	-0.00732421875	-125.6875	-38.3125	104.75
18	11	28	12	26	26	-0.459398492332	-0.515427164573	-0.368519741823	-1.265625	-0.07861328125	0.06640625	-125.5625	-45.75	116.25
18	11	28	12	26	26	-0.484435004696	-0.510680066057	-0.363524617358	-1.1611328125	-0.169921875	0.16064453125	-93.75	-48.125	130.125
18	11	28	12	26	26	-0.505847611587	-0.510852378015	-0.351615358392	-1.041015625	-0.18212890625	0.21533203125	-42.0	-46.5625	144.5
18	11	28	12	26	26	-0.523671394001	-0.516164216675	-0.333611636318	-0.9296875	-0.1142578125	0.21142578125	6.75	-42.125	157.0625
18	11	28	12	26	26	-0.539227554881	-0.524701673946	-0.312062307652	-0.8662109375	0.01171875	0.158203125	34.375	-37.5	164.875
18	11	28	12	26	26	-0.554190270162	-0.533560720458	-0.290278515957	-0.818359375	0.13720703125	0.103515625	34.9375	-34.0625	166.625
18	11	28	12	26	26	-0.570115727742	-0.539843015938	-0.271233732372	-0.8076171875	0.25341796875	0.03857421875	11.875	-31.4375	160.3125
18	11	28	12	26	26	-0.588360081077	-0.541303481232	-0.256827720039	-0.794921875	0.298828125	-0.0166015625	-28.6875	-32.5	150.0625
18	11	28	12	26	26	-0.608571264003	-0.53752754208	-0.247005105348	-0.81005859375	0.2978515625	-0.02685546875	-67.3125	-35.75	136.625
18	11	28	12	26	26	-0.629253175905	-0.529463753732	-0.240532179073	-0.83984375	0.27001953125	-0.033203125	-92.6875	-40.4375	119.625
18	11	28	12	26	27	-0.649199544456	-0.518895790821	-0.236133593824	-0.84912109375	0.21630859375	-0.0029296875	-103.625	-43.0	104.75
18	11	28	12	26	27	-0.664652137484	-0.509383538975	-0.23522216142	-0.8720703125	0.1796875	0.03125	-95.6875	-42.4375	89.3125
18	11	28	12	26	27	-0.675953933031	-0.501823317145	-0.234371386261	-0.8955078125	0.1494140625	0.06005859375	-71.3125	-39.3125	72.0
18	11	28	12	26	27	-0.683183848174	-0.497221619713	-0.232834230908	-0.892578125	0.11474609375	0.08984375	-41.0625	-34.75	58.5
18	11	28	12	26	27	-0.686756004177	-0.496085389438	-0.230098661193	-0.86962890625	0.1298828125	0.12939453125	-9.9375	-28.4375	47.1875
18	11	28	12	26	27	-0.68648939844	-0.498144245205	-0.227222620056	-0.91650390625	0.17919921875	0.1611328125	16.4375	-21.1875	31.5
18	11	28	12	26	27	-0.683825754684	-0.500845603618	-0.2261922748	-1.00439453125	0.20361328125	0.193359375	23.5625	-14.625	14.9375
18	11	28	12	26	27	-0.680496928121	-0.502530197861	-0.227218839766	-1.02734375	0.21484375	0.2412109375	18.375	-9.1875	2.0
18	11	28	12	26	27	-0.676569874145	-0.50323126859	-0.230161930122	-1.021484375	0.2265625	0.26171875	12.375	-4.625	-11.6875
18	11	28	12	26	27	-0.67125460728	-0.502250787717	-0.236263555627	-1.0986328125	0.1748046875	0.2685546875	5.3125	-2.25	-30.4375
18	11	28	12	26	27	-0.665202947065	-0.50022968659	-0.243889437239	-1.1103515625	0.12890625	0.298828125	2.375	0.9375	-41.25
18	11	28	12	26	27	-0.655192088041	-0.500350697509	-0.253471145005	-1.22802734375	0.1201171875	0.29541015625	18.5	12.0	-60.25
18	11	28	12	26	27	-0.643474074101	-0.500534087233	-0.263969019301	-1.1630859375	0.04052734375	0.3115234375	24.625	19.0625	-71.0625
18	11	28	12	26	27	-0.631578661252	-0.501881651669	-0.272089067632	-0.95556640625	-0.0029296875	0.3876953125	38.4375	25.875	-66.5
18	11	28	12	26	27	-0.616447476936	-0.506707619161	-0.277462399025	-0.9169921875	0.0322265625	0.3818359375	69.25	29.375	-72.0625
18	11	28	12	26	27	-0.599663435897	-0.512628315328	-0.282284314608	-0.97998046875	0.1142578125	0.34521484375	77.0625	30.4375	-80.4375
18	11	28	12	26	27	-0.583612517884	-0.517512083156	-0.288022115865	-1.00048828125	0.154296875	0.322265625	64.6875	31.875	-82.5
18	11	28	12	26	27	-0.568414639972	-0.520197356006	-0.296139571904	-1.048828125	0.1494140625	0.271484375	45.0	31.0625	-88.6875
18	11	28	12	26	27	-0.554598760954	-0.520054588102	-0.306625308136	-1.09423828125	0.123046875	0.23828125	22.0625	27.375	-93.6875
18	11	28	12	26	27	-0.542943439499	-0.517553998084	-0.317856276182	-1.0224609375	0.07080078125	0.24609375	4.6875	24.0	-90.125
18	11	28	12	26	27	-0.531727456074	-0.514576926327	-0.328667625225	-0.94873046875	0.00390625	0.2216796875	3.3125	21.25	-85.875
18	11	28	12	26	27	-0.519705319987	-0.512686399048	-0.337030273279	-0.8759765625	-0.0380859375	0.23193359375	18.75	19.25	-81.3125
18	11	28	12	26	27	-0.505966177146	-0.513290174885	-0.342030694418	-0.8115234375	-0.01318359375	0.23193359375	43.125	21.0	-78.5
18	11	28	12	26	27	-0.490279466566	-0.516523730306	-0.344288120366	-0.7890625	0.05224609375	0.2080078125	65.5	24.0625	-79.0625
18	11	28	12	26	27	-0.473741133274	-0.52104200654	-0.344899657837	-0.80859375	0.12939453125	0.17236328125	75.5625	23.5625	-80.75
18	11	28	12	26	27	-0.458242623991	-0.524891657741	-0.345512985404	-0.84033203125	0.20703125	0.1435546875	67.75	19.625	-82.75
18	11	28	12	26	27	-0.444269338988	-0.526848871293	-0.347590862142	-0.85205078125	0.224609375	0.1455078125	51.0	16.25	-85.3125
18	11	28	12	26	27	-0.43095845464	-0.52739158852	-0.351065434229	-0.86767578125	0.21875	0.16650390625	39.1875	16.4375	-90.3125
18	11	28	12	26	27	-0.416790868093	-0.527686900795	-0.355148054098	-0.90478515625	0.21923828125	0.18994140625	38.9375	20.4375	-97.1875
18	11	28	12	26	27	-0.399716785061	-0.52764568741	-0.360715559583	-0.9443359375	0.2275390625	0.21142578125	45.375	25.3125	-103.5
18	11	28	12	26	27	-0.381759551091	-0.527810807008	-0.365952081269	-0.9560546875	0.22412109375	0.23388671875	49.6875	27.8125	-105.75
18	11	28	12	26	27	-0.363765771453	-0.52794864481	-0.370418534723	-0.94970703125	0.2373046875	0.26025390625	52.125	27.0625	-103.6875
18	11	28	12	26	27	-0.349244216602	-0.528382940078	-0.372071433836	-0.9306640625	0.2392578125	0.2666015625	46.625	24.25	-99.0625
18	11	28	12	26	27	-0.337336300778	-0.527885229859	-0.374506159142	-0.91552734375	0.265625	0.275390625	30.4375	21.6875	-93.125
18	11	28	12	26	27	-0.328132348469	-0.526501048716	-0.378975772256	-0.96826171875	0.2744140625	0.2568359375	7.9375	20.5625	-88.875
18	11	28	12	26	27	-0.321645284015	-0.524092609837	-0.385669174515	-1.0537109375	0.22607421875	0.24462890625	-14.5625	19.0625	-83.1875
18	11	28	12	26	27	-0.31762304728	-0.521050721489	-0.393244675947	-1.11474609375	0.1435546875	0.25439453125	-28.875	16.6875	-71.6875
18	11	28	12	26	27	-0.315299441616	-0.518724342682	-0.399647840438	-1.21533203125	0.0986328125	0.27490234375	-30.0	16.6875	-57.6875
18	11	28	12	26	27	-0.313841383321	-0.520383437222	-0.405576816835	-1.56689453125	0.05126953125	0.19970703125	-14.5	15.875	-25.1875
18	11	28	12	26	27	-0.317800479811	-0.521956924014	-0.405627422474	-1.5390625	-0.0009765625	0.189453125	-19.4375	5.0625	0.375
18	11	28	12	26	27	-0.326889040568	-0.522192425522	-0.404033877625	-1.26904296875	-0.05615234375	0.2509765625	-31.8125	-6.875	32.5625
18	11	28	12	26	27	-0.339602316104	-0.523319600697	-0.39984449547	-1.119140625	-0.0810546875	0.2705078125	-33.375	-10.875	64.25
18	11	28	12	26	27	-0.35540076274	-0.525624483723	-0.394096294867	-1.0810546875	-0.0244140625	0.22412109375	-37.875	-13.6875	86.3125
18	11	28	12	26	27	-0.373406505645	-0.527212388977	-0.389519502946	-1.07470703125	0.03759765625	0.16064453125	-53.1875	-18.4375	100.1875
18	11	28	12	26	27	-0.394157936704	-0.527212179816	-0.385796270967	-1.14501953125	0.078125	0.10107421875	-71.625	-25.375	107.875
18	11	28	12	26	27	-0.416746467984	-0.525327599581	-0.383055189377	-1.27978515625	0.0693359375	0.0517578125	-87.0625	-31.9375	110.5
18	11	28	12	26	27	-0.440652542548	-0.521825379333	-0.380779946393	-1.35107421875	0.01953125	0.021484375	-98.375	-38.125	114.125
18	11	28	12	26	27	-0.46543928652	-0.517439584463	-0.377124226515	-1.2666015625	-0.05322265625	0.07666015625	-98.6875	-44.9375	122.25
18	11	28	12	26	28	-0.489863913923	-0.514216729978	-0.369991907077	-1.1005859375	-0.08056640625	0.1650390625	-81.875	-48.3125	134.5625
18	11	28	12	26	28	-0.512741588439	-0.51365708943	-0.358693288329	-0.943359375	-0.06396484375	0.20947265625	-54.875	-46.9375	146.9375
18	11	28	12	26	28	-0.533794838296	-0.515790095865	-0.344104196011	-0.841796875	0.00146484375	0.2158203125	-30.875	-43.4375	156.0
18	11	28	12	26	28	-0.553559584115	-0.519198608827	-0.327863515531	-0.7998046875	0.09228515625	0.17333984375	-18.625	-41.3125	159.0
18	11	28	12	26	28	-0.572898979135	-0.521876975667	-0.311746882436	-0.78369140625	0.1826171875	0.1044921875	-21.625	-42.5625	156.5
