18	11	28	12	37	11	-0.21453441241	0.628100608281	-0.0720811212108	-1.013671875	-0.06884765625	0.07421875	-69.0625	-21.4375	23.5625
18	11	28	12	37	11	-0.205016547203	0.627805955501	-0.0718992237585	-1.02099609375	-0.05322265625	0.0966796875	-36.0625	-16.375	36.625
18	11	28	12	37	11	-0.19677299909	0.62608480914	-0.0774519031779	-1.017578125	0.00634765625	0.111328125	-6.375	-15.5625	49.625
18	11	28	12	37	11	-0.188349887262	0.622848541643	-0.0866067692888	-0.994140625	0.08837890625	0.12939453125	8.75	-19.3125	61.4375
18	11	28	12	37	11	-0.178280940193	0.618764865347	-0.0970444008584	-0.9609375	0.16259765625	0.12255859375	8.3125	-23.625	71.6875
18	11	28	12	37	11	-0.166256042742	0.61412199048	-0.107602570981	-0.92041015625	0.1904296875	0.11279296875	2.0625	-27.625	81.8125
18	11	28	12	37	11	-0.152770619909	0.609251429458	-0.11773652649	-0.87255859375	0.2099609375	0.083984375	-4.75	-29.9375	87.75
18	11	28	12	37	11	-0.13812331061	0.604739620646	-0.126709674249	-0.85498046875	0.208984375	0.0546875	-14.3125	-30.0	90.6875
18	11	28	12	37	11	-0.122434317285	0.600636149753	-0.133847685846	-0.85546875	0.18603515625	0.0400390625	-25.5625	-29.0	91.875
18	11	28	12	37	11	-0.106257471506	0.597080323803	-0.13903188977	-0.87744140625	0.1416015625	0.0302734375	-35.3125	-27.6875	91.9375
18	11	28	12	37	11	-0.0900886544684	0.593755034328	-0.142701405249	-0.92919921875	0.08740234375	0.0361328125	-41.0625	-27.125	91.875
18	11	28	12	37	11	-0.0745212836424	0.590494200852	-0.145807818691	-0.9619140625	0.0400390625	0.04443359375	-40.0625	-26.9375	92.25
18	11	28	12	37	11	-0.0598152106371	0.587287710969	-0.149049739159	-0.98974609375	0.02001953125	0.0595703125	-35.9375	-25.5625	91.9375
18	11	28	12	37	11	-0.0458367102787	0.584036592087	-0.152219381405	-1.005859375	-0.0087890625	0.09375	-32.25	-23.75	91.5625
18	11	28	12	37	11	-0.0324697624382	0.580488553665	-0.155818239671	-1.001953125	-0.02490234375	0.1533203125	-26.6875	-21.5625	93.5625
18	11	28	12	37	11	-0.019469713992	0.576645322244	-0.160579365244	-1.01513671875	0.0263671875	0.21240234375	-19.875	-18.6875	94.125
18	11	28	12	37	11	-0.00756831377107	0.573299768159	-0.166075659444	-1.08544921875	0.0859375	0.2373046875	-12.5	-15.375	90.25
18	11	28	12	37	11	0.00372310868528	0.570673216515	-0.170774722974	-1.17236328125	0.13916015625	0.23681640625	-14.4375	-12.9375	83.9375
18	11	28	12	37	11	0.0153804884687	0.568040500709	-0.172908427905	-1.19287109375	0.15869140625	0.2578125	-27.25	-12.875	77.875
18	11	28	12	37	11	0.0269160777613	0.565481769746	-0.173031928465	-1.18505859375	0.1591796875	0.265625	-36.5	-13.5625	71.5625
18	11	28	12	37	11	0.0364985953452	0.563103746914	-0.171323674137	-1.19970703125	0.12158203125	0.2783203125	-37.1875	-14.5625	60.1875
18	11	28	12	37	11	0.0438855030172	0.561294973221	-0.169316252253	-1.1923828125	0.111328125	0.27978515625	-30.9375	-13.5625	49.625
18	11	28	12	37	11	0.0479120855814	0.560785022066	-0.167722816787	-1.1904296875	0.0849609375	0.28173828125	-16.375	-8.1875	35.5625
18	11	28	12	37	11	0.0490720664564	0.561338053731	-0.16668633519	-1.1142578125	0.06298828125	0.29296875	-2.8125	-1.4375	23.0625
18	11	28	12	37	11	0.048888677984	0.562433417756	-0.166624333204	-0.98583984375	0.068359375	0.3115234375	6.8125	5.1875	16.4375
18	11	28	12	37	11	0.0469348886171	0.564012101054	-0.167232242927	-0.8935546875	0.0576171875	0.318359375	16.75	9.5	8.5
18	11	28	12	37	11	0.0432116660979	0.566023999141	-0.168513291097	-0.85693359375	0.044921875	0.31494140625	26.0	11.75	1.5
18	11	28	12	37	11	0.0382692611637	0.568789864091	-0.170166985845	-0.8525390625	0.07080078125	0.2744140625	31.0	13.625	-4.875
18	11	28	12	37	11	0.0327767217317	0.572036193798	-0.170719721943	-0.8564453125	0.072265625	0.25146484375	27.4375	15.3125	-12.25
18	11	28	12	37	11	0.0263054161643	0.576155750791	-0.169917119725	-0.9169921875	0.08935546875	0.220703125	23.625	17.375	-22.4375
18	11	28	12	37	11	0.0184935147291	0.580867259659	-0.167418187795	-0.9921875	0.0966796875	0.20068359375	19.875	17.25	-34.0625
18	11	28	12	37	11	0.00976538692118	0.585434945925	-0.16357023093	-1.00927734375	0.06103515625	0.2001953125	16.9375	15.125	-41.8125
18	11	28	12	37	11	-0.000244137123066	0.589347015081	-0.160092918451	-0.94775390625	0.01513671875	0.22216796875	23.6875	13.25	-44.9375
18	11	28	12	37	11	-0.0122676614371	0.592753870034	-0.158869267267	-0.859375	-0.02099609375	0.23974609375	41.5	13.375	-46.3125
18	11	28	12	37	11	-0.0261228511749	0.595881766402	-0.160521258388	-0.7783203125	-0.01318359375	0.2568359375	61.375	15.75	-47.125
18	11	28	12	37	11	-0.041076028035	0.59898980555	-0.16430411214	-0.73681640625	0.03173828125	0.25244140625	74.4375	18.75	-49.25
18	11	28	12	37	11	-0.0557250862387	0.601745482177	-0.168090785872	-0.72119140625	0.10302734375	0.2705078125	72.0625	19.6875	-53.1875
18	11	28	12	37	11	-0.0685428142014	0.603884776232	-0.170044773255	-0.7001953125	0.1865234375	0.30615234375	56.6875	18.625	-57.125
18	11	28	12	37	11	-0.0792850763049	0.605471868318	-0.169739643729	-0.65576171875	0.29345703125	0.31787109375	36.6875	16.125	-63.5
18	11	28	12	37	11	-0.0895977560938	0.607348277172	-0.166012191127	-0.7138671875	0.3525390625	0.30078125	18.125	12.8125	-77.875
18	11	28	12	37	11	-0.101011803529	0.609488743228	-0.158506135206	-0.85693359375	0.3330078125	0.29443359375	4.75	7.9375	-94.9375
18	11	28	12	37	11	-0.114502410819	0.612673347443	-0.147888774741	-0.93212890625	0.2783203125	0.3173828125	-0.1875	5.5625	-104.1875
18	11	28	12	37	11	-0.130426478528	0.615695982868	-0.138482770136	-0.94140625	0.2431640625	0.34521484375	14.875	7.5	-110.75
18	11	28	12	37	11	-0.150451231674	0.618284371951	-0.132201771929	-0.96240234375	0.2177734375	0.3564453125	44.1875	9.9375	-119.25
18	11	28	12	37	11	-0.173581895084	0.61980455154	-0.128538491929	-0.974609375	0.19384765625	0.365234375	68.1875	8.625	-123.3125
18	11	28	12	37	11	-0.197755755738	0.620061951402	-0.126527062236	-0.95166015625	0.2158203125	0.38427734375	79.9375	5.1875	-122.0
18	11	28	12	37	11	-0.221925030615	0.619571228209	-0.124817570849	-0.99072265625	0.24951171875	0.35595703125	82.1875	2.75	-122.125
18	11	28	12	37	11	-0.244808198753	0.618886845016	-0.12200737704	-1.12841796875	0.20263671875	0.30029296875	73.3125	0.375	-120.4375
18	11	28	12	37	11	-0.26464556022	0.617974238291	-0.118162777811	-1.20849609375	0.11181640625	0.2744140625	58.1875	-3.25	-109.75
18	11	28	12	37	11	-0.280689559666	0.616308583062	-0.117060790485	-1.216796875	0.03857421875	0.28515625	53.375	-2.625	-94.5
18	11	28	12	37	11	-0.294797686254	0.614802710898	-0.118834595266	-1.2197265625	0.00537109375	0.28466796875	59.0625	4.1875	-75.8125
18	11	28	12	37	12	-0.305784616626	0.614193731957	-0.124022822552	-1.28125	0.033203125	0.24365234375	60.4375	13.5625	-55.5
18	11	28	12	37	12	-0.310782104524	0.614667434143	-0.129634954833	-1.236328125	0.1220703125	0.22265625	37.3125	17.4375	-32.75
18	11	28	12	37	12	-0.307602553447	0.617768461505	-0.133233407574	-1.31640625	0.1982421875	0.1806640625	-6.125	21.875	-11.6875
18	11	28	12	37	12	-0.295774287462	0.623835945553	-0.130919489601	-1.29638671875	0.171875	0.126953125	-66.3125	20.1875	7.375
18	11	28	12	37	12	-0.277216966939	0.631275889266	-0.120176179635	-1.1376953125	0.08642578125	0.12939453125	-125.1875	14.625	31.5
18	11	28	12	37	12	-0.252308990404	0.638828786298	-0.10766160113	-1.01220703125	-0.0166015625	0.1337890625	-157.125	11.4375	55.875
18	11	28	12	37	12	-0.223382661226	0.645551477538	-0.0960057175161	-0.947265625	-0.05810546875	0.13330078125	-167.0	9.375	78.125
18	11	28	12	37	12	-0.193166718848	0.650968790912	-0.0867877011698	-0.94384765625	-0.037109375	0.1044921875	-160.0	8.25	93.5
18	11	28	12	37	12	-0.162840487474	0.654901960491	-0.0797723077691	-0.9931640625	0.0	0.08203125	-149.4375	5.375	102.0625
18	11	28	12	37	12	-0.134031065369	0.65703297755	-0.0746448055313	-1.119140625	0.0283203125	0.05322265625	-133.6875	-0.875	103.5625
18	11	28	12	37	12	-0.107603154398	0.656910238679	-0.0718371597998	-1.21484375	0.0380859375	0.03369140625	-113.375	-11.125	103.375
18	11	28	12	37	12	-0.0839862644626	0.654372631761	-0.071717922052	-1.2255859375	0.04345703125	0.04638671875	-90.25	-23.25	103.5
18	11	28	12	37	12	-0.0626821287077	0.649831182425	-0.0749500039465	-1.123046875	0.02490234375	0.10546875	-66.3125	-31.625	108.1875
18	11	28	12	37	12	-0.0434574300716	0.644231986526	-0.0821540742647	-0.99951171875	-0.00927734375	0.1689453125	-40.375	-33.0625	115.6875
18	11	28	12	37	12	-0.0262442176457	0.638344819434	-0.0936247206245	-0.89208984375	0.00390625	0.19384765625	-13.9375	-30.4375	122.75
18	11	28	12	37	12	-0.0100709407588	0.632516115658	-0.107545440103	-0.8369140625	0.06298828125	0.1728515625	1.0	-26.875	126.375
18	11	28	12	37	12	0.00671368970324	0.626692417026	-0.120419179859	-0.81494140625	0.1337890625	0.125	-5.6875	-25.375	124.5
18	11	28	12	37	12	0.0253911209365	0.620556554235	-0.129580167664	-0.80908203125	0.2041015625	0.08642578125	-29.375	-27.0625	119.1875
18	11	28	12	37	12	0.0459600625799	0.613777409433	-0.133546636022	-0.818359375	0.23388671875	0.03125	-60.1875	-31.3125	109.75
18	11	28	12	37	12	0.0670751897419	0.607521782248	-0.132441457452	-0.8583984375	0.2138671875	0.00830078125	-86.6875	-37.125	97.3125
18	11	28	12	37	12	0.0869125567997	0.600941737535	-0.127683334849	-0.89697265625	0.1494140625	-0.0068359375	-98.5	-41.75	85.4375
18	11	28	12	37	12	0.103451781945	0.594527320313	-0.122005965846	-0.94921875	0.04150390625	0.00244140625	-89.0	-44.25	76.0625
18	11	28	12	37	12	0.115296226447	0.588444107555	-0.118531112631	-1.00439453125	-0.076171875	0.04833984375	-59.5625	-45.25	71.5625
18	11	28	12	37	12	0.122374071874	0.583367271306	-0.121092348428	-1.00048828125	-0.078125	0.083984375	-13.5	-42.5	71.3125
18	11	28	12	37	12	0.12524398689	0.580138448047	-0.129333337339	-0.97900390625	-0.02587890625	0.07275390625	27.5	-36.25	68.0625
18	11	28	12	37	12	0.12536430575	0.578299316935	-0.140073554867	-0.99365234375	0.01904296875	0.06396484375	48.75	-30.8125	62.0625
18	11	28	12	37	12	0.123410534407	0.577502708484	-0.151241990237	-1.03955078125	0.0849609375	0.072265625	57.875	-26.4375	52.25
18	11	28	12	37	12	0.119810672068	0.577569225563	-0.160886872935	-1.09423828125	0.14306640625	0.08203125	56.625	-21.75	37.5625
18	11	28	12	37	12	0.115599929208	0.57818275047	-0.167601586909	-1.1103515625	0.18359375	0.12353515625	45.625	-15.9375	23.125
18	11	28	12	37	12	0.110045692672	0.579952396988	-0.171507707381	-1.13671875	0.2197265625	0.1484375	38.5625	-7.8125	5.5
18	11	28	12	37	12	0.1027176321	0.582554841591	-0.172416702723	-1.12109375	0.19140625	0.18603515625	32.6875	-1.5625	-13.1875
18	11	28	12	37	12	0.0939305014122	0.585860222908	-0.172297469452	-1.06494140625	0.20263671875	0.2333984375	34.875	6.25	-26.6875
18	11	28	12	37	12	0.0806270387758	0.591183571221	-0.172728629626	-1.1240234375	0.27294921875	0.21240234375	52.5625	13.375	-50.8125
18	11	28	12	37	12	0.0643904233475	0.597030446621	-0.170832980995	-1.12255859375	0.2529296875	0.1787109375	51.875	13.0	-73.0625
18	11	28	12	37	12	0.0490709528389	0.601241239323	-0.166682552491	-0.96435546875	0.1875	0.27099609375	39.9375	11.8125	-77.125
18	11	28	12	37	12	0.0326542230459	0.604927111416	-0.162599719989	-0.8310546875	0.16162109375	0.31640625	44.3125	14.0	-84.0
18	11	28	12	37	12	0.0136719470435	0.609073033691	-0.158264994124	-0.81494140625	0.14111328125	0.3134765625	53.0625	16.4375	-97.625
18	11	28	12	37	12	-0.00689703744263	0.613897368124	-0.154664538758	-0.91259765625	0.1025390625	0.27978515625	59.375	15.0	-106.3125
18	11	28	12	37	12	-0.0277707037345	0.617852382207	-0.150938352385	-0.99267578125	0.07666015625	0.24169921875	60.1875	9.875	-107.3125
18	11	28	12	37	12	-0.049804180157	0.620904319531	-0.147337366298	-1.08447265625	0.08154296875	0.21240234375	64.3125	3.8125	-111.5625
18	11	28	12	37	12	-0.0740955769657	0.623098636938	-0.144040825073	-1.15380859375	0.05419921875	0.1875	74.1875	-0.9375	-119.875
18	11	28	12	37	12	-0.100158821999	0.624451497786	-0.142395205194	-1.14794921875	-0.00048828125	0.18212890625	88.5625	-3.5	-121.0
18	11	28	12	37	12	-0.127137953768	0.624459147863	-0.143556633347	-1.056640625	-0.03759765625	0.20703125	105.5	-5.875	-114.4375
18	11	28	12	37	12	-0.155029063265	0.623045936145	-0.147948995809	-0.93359375	-0.02587890625	0.25341796875	123.9375	-7.125	-106.625
18	11	28	12	37	12	-0.1830437142	0.620358890007	-0.154906617753	-0.83935546875	0.04248046875	0.25341796875	137.125	-7.75	-99.1875
18	11	28	12	37	12	-0.209289707104	0.616760714578	-0.162231566487	-0.82080078125	0.1240234375	0.20263671875	132.75	-10.625	-91.3125
18	11	28	12	37	12	-0.231808857658	0.612724887316	-0.167173370491	-0.8212890625	0.166015625	0.171875	109.125	-16.0625	-83.125
18	11	28	12	37	12	-0.249209245488	0.608710214365	-0.170656147535	-0.83154296875	0.18017578125	0.15673828125	80.8125	-18.8125	-77.3125
18	11	28	12	37	12	-0.263783477136	0.605810919495	-0.17205127766	-0.8564453125	0.1884765625	0.14599609375	60.5	-15.9375	-74.75
18	11	28	12	37	12	-0.276485274878	0.604056239617	-0.172421832567	-0.89013671875	0.203125	0.15185546875	47.6875	-10.375	-74.625
18	11	28	12	37	13	-0.288266626756	0.603083323941	-0.172178732602	-0.9296875	0.216796875	0.1728515625	40.3125	-5.25	-76.0625
18	11	28	12	37	13	-0.299738790087	0.602407220151	-0.172116348615	-0.9609375	0.22119140625	0.203125	39.6875	-0.5625	-76.5
18	11	28	12	37	13	-0.311207677714	0.601847207283	-0.172845684112	-0.99560546875	0.23876953125	0.2216796875	42.4375	3.8125	-77.4375
18	11	28	12	37	13	-0.32219759529	0.601244271871	-0.173641249972	-1.0	0.224609375	0.2412109375	40.75	5.375	-75.0625
18	11	28	12	37	13	-0.332519662556	0.599975822856	-0.174438545445	-0.94775390625	0.2255859375	0.2900390625	38.625	4.5625	-70.8125
18	11	28	12	37	13	-0.341488099075	0.598443397932	-0.175474224279	-0.921875	0.2939453125	0.32568359375	32.9375	5.8125	-67.75
18	11	28	12	37	13	-0.348316746292	0.59794273058	-0.175775754218	-0.98193359375	0.36083984375	0.3173828125	19.0625	8.5	-68.0625
18	11	28	12	37	13	-0.352472731143	0.599112091584	-0.173398273451	-1.0693359375	0.35888671875	0.30029296875	-4.625	8.0	-69.0
18	11	28	12	37	13	-0.354058456747	0.601429414374	-0.168209809825	-1.12255859375	0.32080078125	0.31396484375	-27.875	5.9375	-66.25
18	11	28	12	37	13	-0.354053386259	0.604533492656	-0.162592349766	-1.24755859375	0.27978515625	0.31640625	-36.3125	7.9375	-61.9375
18	11	28	12	37	13	-0.353153304309	0.607855817078	-0.15796072443	-1.3916015625	0.166015625	0.29833984375	-34.0	8.625	-50.4375
18	11	28	12	37	13	-0.350278957712	0.610348419083	-0.156127125601	-1.5439453125	0.107421875	0.27734375	-28.0	5.9375	-28.375
18	11	28	12	37	13	-0.342769951533	0.612054322288	-0.154173236747	-1.4873046875	-0.0322265625	0.26904296875	-43.125	-3.1875	7.25
18	11	28	12	37	13	-0.327982950293	0.612450484963	-0.151113841631	-1.2060546875	-0.0556640625	0.34228515625	-75.5	-11.75	49.8125
18	11	28	12	37	13	-0.306452438204	0.614491764157	-0.146359877875	-1.0439453125	-0.0322265625	0.29052734375	-106.9375	-12.1875	82.4375
18	11	28	12	37	13	-0.277522962003	0.617484012885	-0.138608895252	-1.01318359375	-0.03759765625	0.20166015625	-148.1875	-15.0625	105.1875
18	11	28	12	37	13	-0.241942114226	0.621151588415	-0.12603694901	-1.01171875	-0.02294921875	0.09765625	-193.25	-20.4375	117.5
18	11	28	12	37	13	-0.20123065262	0.624565747122	-0.108946531673	-1.0322265625	-0.04736328125	0.0009765625	-230.625	-25.9375	124.0625
18	11	28	12	37	13	-0.158084148259	0.627148503226	-0.0886247811859	-1.08203125	-0.07861328125	-0.095703125	-250.6875	-29.6875	123.25
18	11	28	12	37	13	-0.114500703345	0.628044902677	-0.066405525181	-1.13134765625	-0.0947265625	-0.16064453125	-258.5	-34.1875	118.4375
18	11	28	12	37	13	-0.072874770524	0.625966203094	-0.0449821657255	-1.18212890625	-0.193359375	-0.16162109375	-245.0	-44.4375	115.25
18	11	28	12	37	13	-0.0357664699211	0.619870765391	-0.0297850466238	-1.2041015625	-0.349609375	-0.04541015625	-199.0625	-58.6875	121.5
18	11	28	12	37	13	-0.00671365755424	0.610942837436	-0.0290518272347	-1.10693359375	-0.3759765625	0.103515625	-104.1875	-65.6875	137.9375
18	11	28	12	37	13	0.0120241113613	0.602243181738	-0.0461432903004	-0.97509765625	-0.2880859375	0.13134765625	12.75	-58.25	152.8125
18	11	28	12	37	13	0.0231934887631	0.595218164257	-0.0772709388791	-0.888671875	-0.134765625	0.07763671875	103.3125	-43.5	164.6875
18	11	28	12	37	13	0.0313720999391	0.589478095743	-0.114929307754	-0.81201171875	0.07275390625	0.01220703125	143.8125	-29.6875	170.375
18	11	28	12	37	13	0.0394282888014	0.584222260692	-0.151365566916	-0.74658203125	0.26171875	-0.04736328125	139.25	-21.0	163.375
18	11	28	12	37	13	0.0498043942615	0.578731944102	-0.18011368562	-0.7177734375	0.38232421875	-0.080078125	95.375	-18.375	147.3125
18	11	28	12	37	13	0.0639652167925	0.572391033474	-0.197694024037	-0.72265625	0.44091796875	-0.083984375	29.3125	-22.1875	127.1875
18	11	28	12	37	13	0.0812371000962	0.564875553261	-0.203367406101	-0.7685546875	0.40673828125	-0.0615234375	-38.625	-28.8125	104.1875
18	11	28	12	37	13	0.100218348565	0.5583419322	-0.199032907838	-0.80712890625	0.28173828125	-0.00244140625	-94.0625	-34.0	86.3125
18	11	28	12	37	13	0.121218090389	0.549265657307	-0.189395636696	-0.81787109375	0.1337890625	0.072265625	-123.3125	-34.0	76.625
18	11	28	12	37	13	0.140381815878	0.540836204562	-0.179383546463	-0.83984375	0.01416015625	0.1552734375	-116.875	-29.3125	68.8125
18	11	28	12	37	13	0.153073620341	0.536062841888	-0.169919042675	-0.85498046875	-0.04345703125	0.19580078125	-83.0	-20.75	61.1875
18	11	28	12	37	13	0.160526194337	0.534314184495	-0.165714303279	-0.88037109375	-0.00244140625	0.21337890625	-37.75	-9.625	50.375
18	11	28	12	37	13	0.162289440995	0.536244839632	-0.165707345732	-0.9736328125	0.099609375	0.19091796875	1.4375	1.375	32.375
18	11	28	12	37	13	0.15960867991	0.541021544445	-0.166688835501	-1.08154296875	0.17431640625	0.1630859375	20.5	9.375	11.8125
18	11	28	12	37	13	0.153811017233	0.547249833537	-0.166567565885	-1.14453125	0.21875	0.1708984375	26.0625	14.875	-7.8125
18	11	28	12	37	13	0.144221219028	0.555340191257	-0.165643837682	-1.20068359375	0.28076171875	0.1669921875	34.5625	22.1875	-32.4375
18	11	28	12	37	13	0.130126639486	0.565245219643	-0.162231054293	-1.29931640625	0.31396484375	0.150390625	38.5625	27.9375	-64.0
18	11	28	12	37	13	0.112734357886	0.576001156131	-0.155459886051	-1.33447265625	0.28369140625	0.16064453125	35.0	32.5	-90.6875
18	11	28	12	37	13	0.0963732074145	0.584342677509	-0.148069285109	-1.1875	0.1484375	0.21826171875	28.625	34.5625	-100.1875
18	11	28	12	37	13	0.0783697290524	0.592899959513	-0.142396088691	-1.00732421875	0.09423828125	0.27197265625	43.1875	37.25	-101.9375
18	11	28	12	37	13	0.0570060516823	0.60112698396	-0.139707550643	-0.9111328125	0.05810546875	0.2666015625	68.25	34.6875	-107.125
18	11	28	12	37	13	0.0336303188509	0.608397492388	-0.138671659581	-0.9326171875	0.07861328125	0.2412109375	82.5	28.6875	-110.4375
18	11	28	12	37	13	0.0107416478411	0.61398282546	-0.137810459234	-1.001953125	0.0771484375	0.2119140625	80.4375	19.3125	-106.625
18	11	28	12	37	13	-0.0104978443391	0.617785932561	-0.135800602643	-1.08447265625	0.0283203125	0.18505859375	68.5625	8.875	-101.125
18	11	28	12	37	13	-0.0312490658671	0.620586917455	-0.131282696641	-1.15380859375	-0.0380859375	0.17578125	57.375	-0.9375	-94.5
18	11	28	12	37	13	-0.0513299167443	0.62224554246	-0.12701255261	-1.15478515625	-0.1396484375	0.17529296875	56.75	-6.6875	-85.625
18	11	28	12	37	13	-0.0729358209721	0.622792566694	-0.125608300887	-1.11279296875	-0.24853515625	0.216796875	77.0	-7.25	-76.125
18	11	28	12	37	14	-0.0948481257755	0.622128021898	-0.133361103487	-1.02734375	-0.2734375	0.2568359375	116.375	-3.0625	-63.6875
18	11	28	12	37	14	-0.118714522118	0.620794552422	-0.147584429039	-0.9541015625	-0.17822265625	0.2392578125	152.8125	1.5625	-51.1875
18	11	28	12	37	14	-0.14233376963	0.617918989595	-0.164489497922	-0.9013671875	-0.00634765625	0.2080078125	164.1875	-1.8125	-43.0625
18	11	28	12	37	14	-0.16363492351	0.61321897669	-0.179992312358	-0.91259765625	0.11767578125	0.2109375	150.125	-12.875	-36.8125
18	11	28	12	37	14	-0.181148640989	0.607592560998	-0.193782660087	-0.8671875	0.1962890625	0.17919921875	128.8125	-18.75	-26.25
18	11	28	12	37	14	-0.193602234013	0.602474039075	-0.205565045447	-0.82470703125	0.26904296875	0.150390625	98.8125	-16.625	-23.25
18	11	28	12	37	14	-0.202327574625	0.598499003551	-0.213313687274	-0.83349609375	0.36083984375	0.1328125	64.9375	-16.1875	-27.8125
18	11	28	12	37	14	-0.208615998142	0.595696940278	-0.216123244418	-0.841796875	0.400390625	0.1357421875	32.4375	-17.625	-37.375
18	11	28	12	37	14	-0.21403898076	0.593840685144	-0.214771363928	-0.80712890625	0.41748046875	0.17626953125	9.4375	-16.5625	-50.0625
18	11	28	12	37	14	-0.220153350549	0.59313841437	-0.210570850955	-0.78271484375	0.40966796875	0.21484375	-1.5	-12.25	-64.6875
18	11	28	12	37	14	-0.228272088571	0.593202253695	-0.204895561853	-0.802734375	0.3642578125	0.25390625	-0.25	-8.0	-78.25
18	11	28	12	37	14	-0.238829621981	0.593198337857	-0.199462101874	-0.826171875	0.32421875	0.28466796875	10.3125	-6.375	-87.4375
18	11	28	12	37	14	-0.251709731716	0.592714162148	-0.195435150571	-0.833984375	0.28857421875	0.28564453125	25.9375	-5.9375	-92.25
18	11	28	12	37	14	-0.266604771981	0.591926071125	-0.193239630973	-0.88720703125	0.2490234375	0.2763671875	42.625	-4.375	-94.625
18	11	28	12	37	14	-0.283379160737	0.59068350584	-0.193415584832	-0.97412109375	0.21484375	0.251953125	61.0625	-3.5625	-95.3125
18	11	28	12	37	14	-0.301137684389	0.588848070325	-0.195367192487	-1.04541015625	0.16552734375	0.2451171875	73.9375	-3.0	-92.3125
18	11	28	12	37	14	-0.319013309101	0.586210605303	-0.199268883531	-1.06689453125	0.12060546875	0.267578125	84.8125	-1.25	-84.3125
18	11	28	12	37	14	-0.336478679534	0.582932680615	-0.205988671037	-1.1337890625	0.109375	0.27392578125	96.6875	3.5625	-74.5
18	11	28	12	37	14	-0.351384616864	0.580208818467	-0.214480726709	-1.291015625	0.09228515625	0.232421875	95.25	7.4375	-59.6875
18	11	28	12	37	14	-0.360778673521	0.577758572755	-0.222900307173	-1.34521484375	0.08837890625	0.22802734375	73.3125	6.9375	-34.125
18	11	28	12	37	14	-0.362533125723	0.576696212956	-0.230580833162	-1.4287109375	0.107421875	0.21630859375	38.6875	9.625	-2.8125
18	11	28	12	37	14	-0.35649492265	0.577496140749	-0.235344020157	-1.39599609375	0.0205078125	0.2099609375	-5.375	10.6875	30.75
18	11	28	12	37	14	-0.344172515661	0.57878843164	-0.237972803434	-1.2138671875	0.01953125	0.22314453125	-40.0	9.875	57.75
18	11	28	12	37	14	-0.327496363303	0.580656056739	-0.239732708732	-1.1328125	0.029296875	0.18310546875	-60.75	9.9375	76.0625
18	11	28	12	37	14	-0.307672962349	0.582753708492	-0.24077957478	-1.09814453125	0.07421875	0.126953125	-76.1875	8.125	87.4375
18	11	28	12	37	14	-0.284914768701	0.584966397435	-0.240114545859	-1.08740234375	0.1318359375	0.0791015625	-95.25	2.875	93.25
18	11	28	12	37	14	-0.260920728957	0.586476557789	-0.235896752613	-1.10009765625	0.1884765625	0.0283203125	-113.4375	-1.75	95.5
18	11	28	12	37	14	-0.235473036752	0.587950171859	-0.229430571579	-1.15966796875	0.18408203125	-0.00830078125	-128.25	-5.375	95.1875
18	11	28	12	37	14	-0.20861148622	0.588482138715	-0.221123292737	-1.177734375	0.10107421875	0.00146484375	-140.0	-12.125	98.9375
18	11	28	12	37	14	-0.180842513162	0.587204123904	-0.213861682794	-1.099609375	0.0146484375	0.07861328125	-136.125	-16.375	110.3125
18	11	28	12	37	14	-0.153925604022	0.584148277597	-0.21080849972	-0.982421875	-0.0439453125	0.16357421875	-111.5625	-15.125	123.1875
18	11	28	12	37	14	-0.128841371769	0.579816689629	-0.213189441776	-0.8876953125	-0.048828125	0.1962890625	-77.5	-11.0	133.5
18	11	28	12	37	14	-0.105530764454	0.574590292987	-0.22009481586	-0.8212890625	-0.0048828125	0.17529296875	-49.1875	-8.5	140.3125
18	11	28	12	37	14	-0.0830676288923	0.568717241748	-0.229000546366	-0.787109375	0.09716796875	0.13623046875	-35.625	-8.1875	142.0625
18	11	28	12	37	14	-0.0609727923313	0.562670843346	-0.237116414622	-0.78369140625	0.19287109375	0.0732421875	-38.5625	-9.6875	136.8125
18	11	28	12	37	14	-0.0387563324227	0.556626380622	-0.241754067286	-0.81201171875	0.259765625	0.0087890625	-55.3125	-13.125	125.8125
18	11	28	12	37	14	-0.0165405362476	0.550476370543	-0.241821419236	-0.8515625	0.28857421875	-0.04296875	-77.8125	-17.9375	112.125
18	11	28	12	37	14	0.00463865134602	0.546628440197	-0.237913986142	-0.88427734375	0.27099609375	-0.05712890625	-96.4375	-22.625	97.75
18	11	28	12	37	14	0.0246586251818	0.540231414566	-0.231510310185	-0.9013671875	0.20654296875	-0.044921875	-101.625	-25.5	83.8125
18	11	28	12	37	14	0.0401005782348	0.536871668423	-0.224245851499	-0.908203125	0.123046875	-0.0029296875	-89.625	-25.8125	72.0625
18	11	28	12	37	14	0.0515736363199	0.533924462161	-0.219233729776	-0.900390625	0.0634765625	0.05712890625	-62.5	-23.5	63.3125
18	11	28	12	37	14	0.0584109863785	0.532046570806	-0.218140925096	-0.89697265625	0.03955078125	0.099609375	-26.0	-18.5625	54.8125
18	11	28	12	37	14	0.0611563721099	0.531303611993	-0.221066247288	-0.89697265625	0.0576171875	0.12353515625	7.9375	-13.1875	45.875
18	11	28	12	37	14	0.0611575590808	0.53131392395	-0.226319589892	-0.88671875	0.0810546875	0.1494140625	29.1875	-9.5625	38.8125
18	11	28	12	37	14	0.0595077506281	0.53202980741	-0.232537979377	-0.9130859375	0.16455078125	0.169921875	38.4375	-5.625	29.5
18	11	28	12	37	14	0.0565192659321	0.533820194214	-0.236697314562	-0.98974609375	0.212890625	0.1796875	32.9375	-2.25	15.1875
18	11	28	12	37	14	0.0529788408779	0.536136103999	-0.237306144393	-1.05224609375	0.22607421875	0.22021484375	18.125	0.0625	2.125
18	11	28	12	37	14	0.0485834405108	0.539239568987	-0.235409962375	-1.0791015625	0.25048828125	0.255859375	9.625	4.875	-12.5
18	11	28	12	37	14	0.0419293715558	0.543922211508	-0.231191352916	-1.13330078125	0.244140625	0.2529296875	6.625	9.5625	-30.75
18	11	28	12	37	14	0.0318602996955	0.550353107959	-0.225463500144	-1.2265625	0.2099609375	0.2529296875	12.25	15.125	-50.8125
18	11	28	12	37	15	0.0189207532736	0.558162221571	-0.218931425782	-1.28076171875	0.14501953125	0.2392578125	19.8125	19.75	-65.3125
18	11	28	12	37	15	0.0066530165538	0.565445370224	-0.212103050683	-1.10205078125	0.10498046875	0.28173828125	17.4375	25.3125	-66.625
18	11	28	12	37	15	-0.00469959037255	0.572678655398	-0.205622337209	-0.9365234375	0.0927734375	0.29541015625	16.5625	32.375	-66.5625
18	11	28	12	37	15	-0.0152584748134	0.580066178505	-0.198604308171	-0.8564453125	0.08984375	0.26318359375	10.9375	35.0625	-67.875
18	11	28	12	37	15	-0.0237428421986	0.587406460975	-0.18921031058	-0.88134765625	0.076171875	0.22705078125	-8.0625	34.0625	-66.5625
18	11	28	12	37	15	-0.0300898243648	0.595082733382	-0.177182069231	-0.96923828125	0.04541015625	0.17822265625	-28.1875	33.0	-64.4375
18	11	28	12	37	15	-0.0355836102275	0.603090313306	-0.163574743413	-1.0595703125	0.01220703125	0.109375	-38.9375	30.875	-64.75
18	11	28	12	37	15	-0.0412591285342	0.611013514431	-0.149106584333	-1.1123046875	-0.00927734375	0.06201171875	-42.25	27.0	-68.625
18	11	28	12	37	15	-0.0489488953648	0.618513847416	-0.135921683264	-1.14111328125	-0.02978515625	0.05859375	-29.25	25.75	-73.8125
18	11	28	12	37	15	-0.060545164353	0.625409575731	-0.126705404432	-1.12841796875	-0.05712890625	0.06494140625	3.3125	25.8125	-77.3125
18	11	28	12	37	15	-0.0767831029921	0.630988647641	-0.123170351223	-1.0673828125	-0.0986328125	0.11474609375	46.5	25.75	-76.6875
18	11	28	12	37	15	-0.0981442524683	0.635252101797	-0.127074834353	-0.98681640625	-0.10107421875	0.15869140625	99.25	29.0625	-73.3125
18	11	28	12	37	15	-0.123901420268	0.637390409782	-0.138794004773	-0.95458984375	-0.01318359375	0.1865234375	149.0	25.9375	-73.5625
18	11	28	12	37	15	-0.152770263362	0.63757018421	-0.154723378994	-0.9228515625	0.08935546875	0.19091796875	180.3125	21.625	-72.8125
18	11	28	12	37	15	-0.1811499842	0.636771490958	-0.17089621151	-0.8642578125	0.26806640625	0.16015625	180.5625	20.5625	-73.0625
18	11	28	12	37	15	-0.20580458831	0.636089982019	-0.181513299417	-0.8603515625	0.4033203125	0.16015625	142.6875	16.3125	-79.4375
18	11	28	12	37	15	-0.22350059047	0.634797826729	-0.186820127643	-0.85546875	0.42041015625	0.18115234375	89.875	8.375	-89.5
18	11	28	12	37	15	-0.237799422414	0.634477668377	-0.185673984339	-0.83349609375	0.37744140625	0.2119140625	48.25	4.375	-95.8125
18	11	28	12	37	15	-0.252438613727	0.636528603132	-0.178403788182	-0.8515625	0.31103515625	0.22607421875	25.125	3.375	-101.4375
18	11	28	12	37	15	-0.266161497239	0.638641116052	-0.170340916944	-0.8779296875	0.25732421875	0.23388671875	18.5	2.9375	-100.5625
18	11	28	12	37	15	-0.27782073279	0.638951065812	-0.164483056869	-0.89111328125	0.2275390625	0.24169921875	18.125	2.125	-97.375
18	11	28	12	37	15	-0.288999009118	0.638910586577	-0.159422473456	-0.916015625	0.20703125	0.23779296875	19.1875	1.375	-92.3125
18	11	28	12	37	15	-0.299374230044	0.638542955091	-0.154966599405	-0.947265625	0.18310546875	0.24609375	19.25	0.8125	-86.25
18	11	28	12	37	15	-0.308960679718	0.637879901962	-0.15130650435	-0.99365234375	0.15185546875	0.2490234375	19.25	0.25	-79.0
18	11	28	12	37	15	-0.317554919955	0.637062897268	-0.148981656661	-1.068359375	0.115234375	0.24072265625	21.5	0.6875	-69.3125
18	11	28	12	37	15	-0.324886580886	0.635918332942	-0.148374840904	-1.1474609375	0.078125	0.23486328125	24.25	0.4375	-56.5
18	11	28	12	37	15	-0.330626451753	0.634153375248	-0.149962930027	-1.17138671875	0.0576171875	0.2353515625	27.5	0.125	-39.75
18	11	28	12	37	15	-0.334769419734	0.63188109435	-0.153987829716	-1.21728515625	0.03662109375	0.2529296875	31.3125	2.625	-22.125
18	11	28	12	37	15	-0.336727642901	0.629815578593	-0.160948122953	-1.302734375	0.06591796875	0.2373046875	34.625	7.8125	-5.1875
18	11	28	12	37	15	-0.33539878791	0.627949541405	-0.168889617133	-1.30126953125	0.11474609375	0.21435546875	25.3125	8.25	10.6875
18	11	28	12	37	15	-0.330084875298	0.626782837359	-0.176639354496	-1.3916015625	0.12451171875	0.1884765625	7.9375	7.3125	27.25
18	11	28	12	37	15	-0.320926606791	0.625434564432	-0.183046575459	-1.3408203125	0.08837890625	0.18115234375	-12.0	0.4375	47.1875
18	11	28	12	37	15	-0.307313376933	0.623721032549	-0.187806010094	-1.22314453125	0.046875	0.1806640625	-35.75	-7.5	70.4375
18	11	28	12	37	15	-0.289848584994	0.621627255879	-0.191706549898	-1.12744140625	0.0048828125	0.18212890625	-53.5625	-12.1875	92.6875
18	11	28	12	37	15	-0.269223196815	0.619378145835	-0.194577998514	-1.087890625	0.01953125	0.15771484375	-68.6875	-15.25	109.625
18	11	28	12	37	15	-0.245602992928	0.616937140288	-0.196042945647	-1.083984375	0.0595703125	0.10693359375	-85.75	-18.5	118.6875
18	11	28	12	37	15	-0.220152235588	0.614192388889	-0.195738347527	-1.15283203125	0.06005859375	0.0556640625	-99.3125	-22.9375	121.1875
18	11	28	12	37	15	-0.194271886268	0.611013463218	-0.193783612598	-1.27197265625	0.04150390625	0.0068359375	-107.125	-27.3125	119.0
18	11	28	12	37	15	-0.168637336438	0.606740413148	-0.191403071686	-1.296875	-0.03125	-0.00732421875	-106.5625	-33.1875	119.375
18	11	28	12	37	15	-0.143916626339	0.600568109915	-0.190729201574	-1.2041015625	-0.10009765625	0.0419921875	-93.6875	-38.9375	125.1875
18	11	28	12	37	15	-0.120849404535	0.592894502853	-0.194518713258	-1.06201171875	-0.1123046875	0.10986328125	-65.375	-38.5625	134.3125
18	11	28	12	37	15	-0.0997322034252	0.584416063523	-0.203675864645	-0.9189453125	-0.0791015625	0.15478515625	-32.4375	-32.8125	143.5625
18	11	28	12	37	15	-0.0798338707666	0.575804844658	-0.216674496347	-0.826171875	-0.00048828125	0.1591796875	-9.25	-25.8125	148.875
18	11	28	12	37	15	-0.0602405356461	0.567493921416	-0.230586366435	-0.7734375	0.10693359375	0.12353515625	-2.75	-20.8125	148.1875
18	11	28	12	37	15	-0.0404047709313	0.55956335332	-0.242672763176	-0.73095703125	0.21142578125	0.07861328125	-12.1875	-18.375	141.6875
18	11	28	12	37	15	-0.0200804145893	0.551997779774	-0.250425352766	-0.7177734375	0.30078125	0.021484375	-34.5625	-18.9375	128.375
18	11	28	12	37	15	0.000244138063448	0.544733054069	-0.252560826637	-0.7353515625	0.3623046875	-0.02490234375	-62.1875	-22.3125	109.8125
18	11	28	12	37	15	0.0191037097403	0.539725575825	-0.249996150467	-0.78466796875	0.3583984375	-0.06689453125	-85.1875	-28.0625	87.625
18	11	28	12	37	15	0.0352787210907	0.535162329625	-0.242922681559	-0.84130859375	0.30126953125	-0.064453125	-98.375	-33.5	66.3125
18	11	28	12	37	15	0.0479136052547	0.53101702639	-0.233769564491	-0.88037109375	0.197265625	-0.017578125	-93.5625	-35.375	50.4375
18	11	28	12	37	16	0.0562742332501	0.52764723042	-0.226073492363	-0.87646484375	0.0908203125	0.04248046875	-68.125	-32.4375	40.25
18	11	28	12	37	16	0.0598749334432	0.525568860224	-0.222471082977	-0.8623046875	0.03173828125	0.07421875	-29.875	-26.625	31.875
18	11	28	12	37	16	0.0596302235279	0.524892448659	-0.223262392697	-0.82666015625	0.02685546875	0.10498046875	6.5	-18.6875	25.125
18	11	28	12	37	16	0.0559087742218	0.526006349611	-0.22729724367	-0.84765625	0.0654296875	0.0986328125	33.8125	-10.875	15.625
18	11	28	12	37	16	0.0497428287559	0.528555701873	-0.232051822	-0.908203125	0.1279296875	0.0947265625	44.8125	-5.4375	2.375
18	11	28	12	37	16	0.0422368136139	0.532293716079	-0.234743909189	-0.97216796875	0.18359375	0.107421875	38.875	-0.8125	-12.9375
18	11	28	12	37	16	0.0339958251499	0.536975349495	-0.234369782003	-1.02099609375	0.2236328125	0.1494140625	27.4375	4.875	-28.5
18	11	28	12	37	16	0.024108735341	0.542965340744	-0.231626963593	-1.08447265625	0.23974609375	0.1708984375	22.3125	11.0625	-46.25
18	11	28	12	37	16	0.0123898767023	0.549854183305	-0.226252576036	-1.14501953125	0.21728515625	0.20166015625	17.0625	14.875	-62.5625
18	11	28	12	37	16	-0.00152583835009	0.557785467258	-0.220086923617	-1.2021484375	0.18896484375	0.22314453125	22.75	20.4375	-75.8125
18	11	28	12	37	16	-0.0188599390906	0.566774739143	-0.214295294974	-1.25927734375	0.15185546875	0.25048828125	37.8125	27.4375	-90.6875
18	11	28	12	37	16	-0.0371085361687	0.575792648381	-0.209101718609	-1.18115234375	0.14306640625	0.26953125	44.4375	33.5	-97.0625
18	11	28	12	37	16	-0.0554187872315	0.584216554384	-0.204585655066	-1.05224609375	0.130859375	0.2978515625	48.8125	37.875	-99.0
18	11	28	12	37	16	-0.073547465341	0.592224942907	-0.201355259884	-0.986328125	0.10888671875	0.322265625	52.4375	37.375	-101.75
18	11	28	12	37	16	-0.091549801225	0.599468098421	-0.197930670248	-0.990234375	0.109375	0.3330078125	51.3125	34.5625	-101.4375
18	11	28	12	37	16	-0.109130716272	0.605223815744	-0.193603261753	-1.00537109375	0.09375	0.33251953125	47.4375	31.6875	-96.75
18	11	28	12	37	16	-0.125362339242	0.610332712959	-0.188897974661	-1.05615234375	0.05419921875	0.30224609375	40.875	27.1875	-90.125
18	11	28	12	37	16	-0.139523928202	0.614491211344	-0.183712608874	-1.095703125	0.044921875	0.271484375	30.375	20.1875	-82.5
18	11	28	12	37	16	-0.151977637291	0.617798250869	-0.178100701051	-1.07666015625	0.01025390625	0.24658203125	22.125	13.5625	-74.9375
18	11	28	12	37	16	-0.164119095599	0.619917312754	-0.17333515489	-1.0185546875	-0.0439453125	0.24658203125	25.375	8.8125	-67.0625
18	11	28	12	37	16	-0.176513831006	0.620728098662	-0.171020661991	-0.92529296875	-0.05322265625	0.25341796875	37.875	5.8125	-58.8125
18	11	28	12	37	16	-0.188967032365	0.620429549093	-0.171754918952	-0.84228515625	-0.0146484375	0.244140625	51.125	4.75	-51.125
18	11	28	12	37	16	-0.200924475049	0.619557820847	-0.174801851926	-0.79443359375	0.04736328125	0.21240234375	59.0	4.125	-45.125
18	11	28	12	37	16	-0.2115413585	0.618206122401	-0.178644419022	-0.79052734375	0.1103515625	0.189453125	57.0	1.5	-40.625
18	11	28	12	37	16	-0.220577223478	0.61681057567	-0.182003674713	-0.791015625	0.15380859375	0.16162109375	48.375	-1.1875	-38.8125
18	11	28	12	37	16	-0.228873558848	0.615578323877	-0.184563637855	-0.81201171875	0.18115234375	0.15966796875	41.4375	-1.8125	-40.3125
18	11	28	12	37	16	-0.237059737942	0.61449985623	-0.186889010705	-0.85595703125	0.21337890625	0.16796875	39.5	-0.75	-43.8125
18	11	28	12	37	16	-0.245103759161	0.613552811466	-0.189259650687	-0.875	0.2568359375	0.17578125	38.75	0.75	-47.125
18	11	28	12	37	16	-0.253170272068	0.612784361514	-0.191525630123	-0.91259765625	0.28125	0.1904296875	38.0	3.0	-50.3125
18	11	28	12	37	16	-0.261408873126	0.611927471856	-0.19378313616	-0.92626953125	0.28173828125	0.2255859375	38.4375	4.6875	-51.5
18	11	28	12	37	16	-0.270014495347	0.610706383463	-0.196468503735	-0.9296875	0.28173828125	0.25439453125	41.875	5.75	-51.625
18	11	28	12	37	16	-0.278372517584	0.609233604588	-0.198968298032	-0.935546875	0.267578125	0.271484375	40.4375	5.0	-50.1875
18	11	28	12	37	16	-0.285329319417	0.60794980764	-0.200493436211	-0.9130859375	0.25048828125	0.2724609375	30.5	3.625	-46.0625
18	11	28	12	37	16	-0.290090273447	0.607157172366	-0.200615764532	-0.91015625	0.23193359375	0.26904296875	15.5	3.0	-40.625
18	11	28	12	37	16	-0.292775920777	0.60727963555	-0.199151100583	-0.97509765625	0.18798828125	0.25439453125	0.4375	2.875	-35.4375
18	11	28	12	37	16	-0.293754492718	0.608199360054	-0.196833209852	-1.064453125	0.11279296875	0.23828125	-9.6875	3.375	-27.8125
18	11	28	12	37	16	-0.293874593731	0.609293887689	-0.194817799209	-1.12646484375	0.01171875	0.23291015625	-10.75	4.0625	-16.9375
18	11	28	12	37	16	-0.293940595217	0.609975562417	-0.195431433946	-1.22119140625	-0.00244140625	0.24365234375	1.0	7.6875	-7.0625
18	11	28	12	37	16	-0.294303528296	0.610823249936	-0.199091271112	-1.3583984375	0.01318359375	0.2099609375	15.5625	13.8125	-1.375
18	11	28	12	37	16	-0.294070933896	0.611396543137	-0.204226098965	-1.40771484375	0.052734375	0.2109375	19.3125	15.625	4.25
18	11	28	12	37	16	-0.292172200222	0.612115102575	-0.210446991094	-1.50390625	0.11669921875	0.1708984375	17.1875	16.3125	11.0625
18	11	28	12	37	16	-0.286921760017	0.612539200922	-0.214168997214	-1.3955078125	0.09130859375	0.18798828125	-6.625	9.4375	23.1875
18	11	28	12	37	16	-0.276906384005	0.611916113297	-0.215080030247	-1.12158203125	0.07666015625	0.2412109375	-37.1875	0.4375	43.4375
18	11	28	12	37	16	-0.262078689138	0.610947293496	-0.214960676093	-0.95166015625	0.1005859375	0.24609375	-60.4375	-2.25	63.4375
18	11	28	12	37	16	-0.242494291901	0.611027021449	-0.213136186085	-0.93798828125	0.12939453125	0.1875	-86.625	-2.0	76.5625
18	11	28	12	37	16	-0.21850417564	0.612727212081	-0.206663446569	-0.99609375	0.14697265625	0.0849609375	-123.3125	-2.1875	83.5625
18	11	28	12	37	16	-0.189932698577	0.61514513784	-0.195364578453	-1.07763671875	0.06103515625	-0.0263671875	-161.8125	-5.375	88.625
18	11	28	12	37	16	-0.159357695346	0.616862591675	-0.181390681949	-1.17138671875	-0.06689453125	-0.09716796875	-179.125	-11.5625	91.25
18	11	28	12	37	16	-0.129512832057	0.616864370215	-0.168146961506	-1.17431640625	-0.1708984375	-0.10302734375	-171.0625	-17.4375	94.5
18	11	28	12	37	16	-0.102477312123	0.615474220041	-0.159239611274	-1.1123046875	-0.21826171875	-0.05224609375	-139.75	-16.5	98.6875
18	11	28	12	37	17	-0.0793442219861	0.613574972021	-0.156857423465	-1.0478515625	-0.2060546875	0.0029296875	-94.25	-8.6875	103.625
18	11	28	12	37	17	-0.0602408955946	0.611686175937	-0.161252731673	-0.9697265625	-0.1474609375	0.0537109375	-48.4375	0.125	107.8125
18	11	28	12	37	17	-0.0442504445147	0.609801642961	-0.170898268471	-0.90087890625	-0.0546875	0.08203125	-12.6875	6.25	110.5
18	11	28	12	37	17	-0.0302725862925	0.607648929694	-0.183710654719	-0.83447265625	0.07861328125	0.0869140625	9.0625	8.25	110.875
18	11	28	12	37	17	-0.0169067765118	0.605225977945	-0.196472612243	-0.76953125	0.208984375	0.05419921875	10.8125	6.625	106.375
18	11	28	12	37	17	-0.00244135075907	0.60307467126	-0.206721375524	-0.71533203125	0.29833984375	0.02099609375	-7.0625	2.5	98.0625
18	11	28	12	37	17	0.0131835724842	0.600523933669	-0.212463036193	-0.67041015625	0.3330078125	0.00048828125	-33.4375	-2.625	86.625
18	11	28	12	37	17	0.0288076557084	0.597819889119	-0.213310925214	-0.6533203125	0.306640625	-0.00537109375	-56.125	-7.3125	72.0
18	11	28	12	37	17	0.0427839749501	0.595252650054	-0.210624104925	-0.65771484375	0.26318359375	0.00537109375	-66.3125	-9.8125	56.3125
18	11	28	12	37	17	0.0538311033512	0.593301763806	-0.206352562846	-0.68212890625	0.2197265625	0.02001953125	-62.0	-9.75	40.875
18	11	28	12	37	17	0.0607908977507	0.592161937729	-0.202270115608	-0.7236328125	0.18115234375	0.04638671875	-45.5	-8.5625	26.1875
18	11	28	12	37	17	0.0632951886005	0.59205721256	-0.199590421141	-0.7763671875	0.18798828125	0.05517578125	-22.4375	-7.0	11.0625
18	11	28	12	37	17	0.0610958248581	0.593014020301	-0.198485137301	-0.84375	0.21728515625	0.0498046875	1.125	-6.625	-5.875
18	11	28	12	37	17	0.0543219451338	0.594855817162	-0.197756294645	-0.958984375	0.228515625	0.0419921875	18.625	-8.6875	-23.875
18	11	28	12	37	17	0.0434567469738	0.597286131862	-0.196043639438	-1.10595703125	0.185546875	0.04736328125	29.5625	-11.75	-41.0
18	11	28	12	37	17	0.0291139823809	0.600102043541	-0.193665966655	-1.2421875	0.1005859375	0.08740234375	40.5	-12.375	-52.125
18	11	28	12	37	17	0.0126342235943	0.602963743422	-0.191954749778	-1.26953125	0.00927734375	0.1748046875	54.5625	-7.5625	-54.8125
18	11	28	12	37	17	-0.00469954782365	0.605997536897	-0.19268146077	-1.2236328125	-0.00048828125	0.248046875	71.0625	2.4375	-52.25
18	11	28	12	37	17	-0.0238650996693	0.609994388989	-0.194582960986	-1.3017578125	-0.02685546875	0.26025390625	84.8125	10.875	-56.0625
18	11	28	12	37	17	-0.0419927524695	0.613411573137	-0.19732931502	-1.341796875	0.02001953125	0.26953125	83.9375	11.75	-52.125
18	11	28	12	37	17	-0.0582257165241	0.616191649924	-0.199273547643	-1.3818359375	0.11669921875	0.25390625	72.1875	8.875	-53.5625
18	11	28	12	37	17	-0.0717160911232	0.618101153025	-0.1979364115	-1.306640625	0.12548828125	0.25244140625	46.5625	3.5	-55.5625
18	11	28	12	37	17	-0.0827607060085	0.618752240055	-0.194695171215	-1.1044921875	0.08740234375	0.25048828125	27.875	-3.6875	-51.25
18	11	28	12	37	17	-0.0942345157775	0.617651100821	-0.192741321778	-0.96337890625	0.00048828125	0.25244140625	35.9375	-12.4375	-43.75
18	11	28	12	37	17	-0.107477979908	0.614778927661	-0.194998379219	-0.90234375	-0.02197265625	0.2568359375	61.1875	-19.0625	-34.375
18	11	28	12	37	17	-0.12329174591	0.611087603987	-0.20239377695	-0.93212890625	0.0048828125	0.22412109375	94.125	-20.375	-29.3125
18	11	28	12	37	17	-0.140255602676	0.606675670409	-0.213923362654	-0.98681640625	0.0654296875	0.16064453125	115.5625	-22.0625	-28.375
18	11	28	12	37	17	-0.157647885651	0.601539899719	-0.225272298079	-1.02001953125	0.1337890625	0.103515625	116.5625	-26.5	-31.125
18	11	28	12	37	17	-0.174499179863	0.596068202359	-0.234618694437	-1.0419921875	0.14697265625	0.08984375	105.8125	-30.875	-35.1875
18	11	28	12	37	17	-0.190911826553	0.590801304678	-0.242667973905	-1.02783203125	0.1083984375	0.11767578125	98.8125	-33.625	-35.8125
18	11	28	12	37	17	-0.206968798101	0.5847127944	-0.251157948743	-0.9833984375	0.06982421875	0.14501953125	100.625	-32.25	-32.75
18	11	28	12	37	17	-0.222167782945	0.578246586709	-0.26104714496	-0.91552734375	0.07861328125	0.1591796875	104.6875	-28.8125	-25.0625
18	11	28	12	37	17	-0.235889812527	0.571567424143	-0.27171576853	-0.84814453125	0.13818359375	0.15673828125	103.375	-25.9375	-16.75
18	11	28	12	37	17	-0.246814321764	0.565036347895	-0.282090948366	-0.80859375	0.1943359375	0.13916015625	90.75	-24.5	-11.0
18	11	28	12	37	17	-0.254812747275	0.559123252164	-0.290272916416	-0.77734375	0.23974609375	0.13330078125	68.8125	-23.8125	-8.5625
18	11	28	12	37	17	-0.260499194417	0.554506837226	-0.295350422161	-0.7587890625	0.24560546875	0.13134765625	45.0	-22.0625	-9.625
18	11	28	12	37	17	-0.264587915384	0.551453705996	-0.297730069491	-0.77099609375	0.2490234375	0.13818359375	25.4375	-18.125	-13.75
18	11	28	12	37	17	-0.267757853536	0.54998085667	-0.298397115554	-0.79296875	0.28271484375	0.1328125	12.3125	-12.375	-20.5
18	11	28	12	37	17	-0.270622024432	0.550215956304	-0.297354646601	-0.82421875	0.3134765625	0.126953125	2.3125	-6.875	-30.25
18	11	28	12	37	17	-0.273735869064	0.551866160107	-0.294426272545	-0.86181640625	0.33056640625	0.1455078125	-6.8125	-2.625	-41.6875
18	11	28	12	37	17	-0.277696130034	0.554415746205	-0.290024617566	-0.8828125	0.30615234375	0.15771484375	-10.5625	-0.3125	-51.4375
18	11	28	12	37	17	-0.283679267719	0.556921970295	-0.285510244059	-0.8828125	0.25732421875	0.1865234375	-2.375	0.5	-58.625
18	11	28	12	37	17	-0.291258029055	0.558712489096	-0.282041775411	-0.86083984375	0.251953125	0.21826171875	9.125	0.8125	-63.0625
18	11	28	12	37	17	-0.300108670386	0.559934297768	-0.279539904488	-0.85400390625	0.26025390625	0.24853515625	18.875	2.25	-66.3125
18	11	28	12	37	17	-0.309320933517	0.561147723511	-0.277583189746	-0.91064453125	0.2841796875	0.25732421875	22.5625	3.75	-69.8125
18	11	28	12	37	17	-0.318042878044	0.562907208636	-0.275014624538	-0.99169921875	0.30859375	0.24267578125	17.0625	4.1875	-73.25
18	11	28	12	37	17	-0.325683243723	0.565551149989	-0.270629591955	-1.07373046875	0.2880859375	0.23681640625	3.875	3.5	-75.4375
18	11	28	12	37	17	-0.332817206699	0.568895870832	-0.26494764245	-1.1728515625	0.20703125	0.2548828125	-3.4375	4.25	-74.375
18	11	28	12	37	17	-0.340142927235	0.572316567143	-0.260676555217	-1.349609375	0.119140625	0.25341796875	4.8125	7.6875	-68.5625
18	11	28	12	37	17	-0.346788270129	0.57468467996	-0.259145194468	-1.4169921875	0.0810546875	0.24560546875	16.125	8.375	-53.875
18	11	28	12	37	18	-0.350527329864	0.575931722897	-0.259584317241	-1.42626953125	0.08642578125	0.263671875	14.1875	8.3125	-32.0
18	11	28	12	37	18	-0.349782594431	0.576643858347	-0.260856885116	-1.37451171875	0.07958984375	0.26953125	0.125	7.8125	-5.25
18	11	28	12	37	18	-0.34393440082	0.576540257347	-0.261353523392	-1.189453125	0.03857421875	0.296875	-22.75	4.0625	25.125
18	11	28	12	37	18	-0.333178088085	0.575661426419	-0.261525573813	-1.0166015625	0.01708984375	0.3056640625	-42.8125	0.0625	53.6875
18	11	28	12	37	18	-0.318898297268	0.574444167251	-0.262137452013	-0.97021484375	0.01611328125	0.26904296875	-53.4375	-1.875	74.25
18	11	28	12	37	18	-0.301698475583	0.573611627257	-0.263063004201	-0.9951171875	0.068359375	0.19140625	-63.6875	-2.6875	85.5625
18	11	28	12	37	18	-0.28160661634	0.573710921888	-0.262686362533	-1.0498046875	0.1162109375	0.111328125	-81.5	-4.5	91.3125
18	11	28	12	37	18	-0.25982652271	0.57354705988	-0.258849960727	-1.111328125	0.11865234375	0.060546875	-101.75	-8.5625	92.875
18	11	28	12	37	18	-0.237176589233	0.57310555144	-0.252862225731	-1.1611328125	0.07080078125	0.046875	-114.0	-13.875	92.0
18	11	28	12	37	18	-0.214775596459	0.571575294356	-0.246695925231	-1.1767578125	0.0341796875	0.04541015625	-112.3125	-19.25	92.9375
18	11	28	12	37	18	-0.193964149104	0.570051967472	-0.241753302265	-1.150390625	-0.00634765625	0.0908203125	-98.5	-23.25	98.5
18	11	28	12	37	18	-0.173148816209	0.565098656778	-0.241016804797	-1.05517578125	-0.0126953125	0.14892578125	-77.3125	-24.5	108.4375
18	11	28	12	37	18	-0.153926889556	0.558702120142	-0.244989109706	-0.94384765625	-0.00439453125	0.19482421875	-48.125	-22.875	117.4375
18	11	28	12	37	18	-0.136472192724	0.551442871763	-0.253352447226	-0.85595703125	0.03564453125	0.20849609375	-19.3125	-19.25	122.8125
18	11	28	12	37	18	-0.12023490667	0.543925628551	-0.264211629937	-0.80224609375	0.11083984375	0.1767578125	-2.75	-16.25	123.5
18	11	28	12	37	18	-0.104308093105	0.536616006191	-0.274716633743	-0.771484375	0.1845703125	0.134765625	-3.0	-14.9375	119.75
18	11	28	12	37	18	-0.088074153393	0.529848735693	-0.282472059531	-0.7587890625	0.23828125	0.0859375	-17.3125	-14.25	111.125
18	11	28	12	37	18	-0.0720193159306	0.525435839701	-0.286368330802	-0.7568359375	0.2587890625	0.04541015625	-37.8125	-14.25	98.0625
18	11	28	12	37	18	-0.0566389705998	0.52201844347	-0.2861854883	-0.77197265625	0.2353515625	0.021484375	-55.5625	-15.5	84.375
18	11	28	12	37	18	-0.0424185609292	0.519032290852	-0.283075231065	-0.7568359375	0.17724609375	0.041015625	-64.6875	-16.375	73.375
18	11	28	12	37	18	-0.0297842725615	0.516403135539	-0.279044455228	-0.724609375	0.12841796875	0.0771484375	-61.875	-14.6875	65.0
18	11	28	12	37	18	-0.0197749269313	0.514392235115	-0.275994504887	-0.71435546875	0.123046875	0.11474609375	-47.0625	-10.5625	55.3125
18	11	28	12	37	18	-0.0125733398713	0.513431723289	-0.274172051951	-0.74365234375	0.1552734375	0.1220703125	-31.375	-6.9375	43.1875
18	11	28	12	37	18	-0.00811769450031	0.513245812429	-0.272705706973	-0.787109375	0.19482421875	0.13525390625	-21.4375	-5.75	29.3125
18	11	28	12	37	18	-0.00585919062866	0.513777778251	-0.270560333926	-0.84814453125	0.26416015625	0.140625	-18.875	-6.25	13.75
18	11	28	12	37	18	-0.00646975029067	0.51556585571	-0.26666357566	-0.94140625	0.32080078125	0.1337890625	-20.0	-7.0	-7.9375
18	11	28	12	37	18	-0.00988721176577	0.518346231646	-0.259142599738	-1.01708984375	0.2841796875	0.16064453125	-28.1875	-8.125	-29.75
18	11	28	12	37	18	-0.0159908051194	0.522081477065	-0.249566420355	-1.046875	0.228515625	0.21533203125	-27.1875	-4.9375	-47.875
18	11	28	12	37	18	-0.0258792721202	0.526923953334	-0.240481915457	-1.03271484375	0.16455078125	0.2578125	-9.75	1.4375	-63.875
18	11	28	12	37	18	-0.0407708821619	0.533378352115	-0.233456024355	-1.109375	0.0966796875	0.27392578125	19.375	8.75	-79.875
18	11	28	12	37	18	-0.0588972728834	0.539962873782	-0.229485747193	-1.125	0.046875	0.2978515625	46.4375	12.375	-85.125
18	11	28	12	37	18	-0.0800154484788	0.54674171432	-0.22948748	-1.1630859375	0.06494140625	0.29931640625	76.125	18.25	-90.1875
18	11	28	12	37	18	-0.103209421303	0.552973008283	-0.232602663859	-1.291015625	0.1142578125	0.25244140625	95.0	21.8125	-104.5
18	11	28	12	37	18	-0.125789815566	0.558943780179	-0.233574781256	-1.26611328125	0.15087890625	0.244140625	82.9375	20.125	-109.75
18	11	28	12	37	18	-0.145560381138	0.564359263892	-0.231004630024	-1.099609375	0.13134765625	0.2890625	57.0	16.9375	-107.8125
18	11	28	12	37	18	-0.163384536594	0.569496119147	-0.226065118993	-0.9814453125	0.0595703125	0.3173828125	39.6875	15.1875	-105.375
18	11	28	12	37	18	-0.179872096394	0.573796259992	-0.219728383786	-0.9111328125	-0.013671875	0.349609375	31.875	15.8125	-94.875
18	11	28	12	37	18	-0.194516716916	0.577568776963	-0.215024284185	-0.89599609375	-0.03369140625	0.3349609375	32.875	17.6875	-80.9375
18	11	28	12	37	18	-0.206606177845	0.5811218373	-0.211794220715	-0.93310546875	0.01708984375	0.28271484375	29.6875	17.3125	-69.5
18	11	28	12	37	18	-0.216062339079	0.58483314493	-0.208066811842	-0.98583984375	0.08447265625	0.22705078125	15.9375	14.6875	-64.875
18	11	28	12	37	18	-0.223448397238	0.589107874935	-0.20245242656	-1.04150390625	0.0595703125	0.17236328125	-0.75	11.375	-61.6875
18	11	28	12	37	18	-0.229977501903	0.593193031049	-0.195981358442	-1.056640625	-0.03076171875	0.15625	-6.4375	8.0	-55.6875
18	11	28	12	37	18	-0.23772804493	0.596181654139	-0.191769324049	-1.0224609375	-0.10009765625	0.18017578125	10.1875	7.6875	-48.8125
18	11	28	12	37	18	-0.247683396632	0.597357664572	-0.192629078307	-0.947265625	-0.08642578125	0.2060546875	41.875	10.6875	-41.5625
18	11	28	12	37	18	-0.25940201645	0.596990852447	-0.198976605559	-0.89599609375	-0.01025390625	0.2080078125	73.3125	14.1875	-35.75
18	11	28	12	37	18	-0.271844146771	0.595566947506	-0.208857357488	-0.88427734375	0.08349609375	0.1904296875	91.75	16.0	-33.0625
18	11	28	12	37	18	-0.283386695504	0.593628903828	-0.219421746788	-0.87744140625	0.1806640625	0.1767578125	90.6875	15.1875	-32.6875
18	11	28	12	37	18	-0.293141461644	0.591958991566	-0.22820235792	-0.8642578125	0.2451171875	0.17529296875	75.125	13.6875	-34.875
18	11	28	12	37	18	-0.300716666451	0.591118513208	-0.234311200021	-0.859375	0.28515625	0.18896484375	53.625	13.4375	-37.875
18	11	28	12	37	18	-0.306508365142	0.591411003232	-0.237540931329	-0.86328125	0.30322265625	0.20166015625	33.0625	14.625	-41.9375
18	11	28	12	37	19	-0.310895467107	0.592800877898	-0.238389810467	-0.875	0.302734375	0.2197265625	15.9375	16.5625	-45.8125
18	11	28	12	37	19	-0.314256920276	0.594945903836	-0.237233763665	-0.876953125	0.27490234375	0.24609375	2.8125	17.875	-47.125
18	11	28	12	37	19	-0.317014194755	0.597285504404	-0.234983567541	-0.86572265625	0.2470703125	0.26611328125	-4.5625	17.8125	-46.6875
18	11	28	12	37	19	-0.318904650408	0.599845914681	-0.231869620459	-0.861328125	0.224609375	0.27587890625	-11.8125	17.5625	-44.5
18	11	28	12	37	19	-0.319091052151	0.602598691256	-0.228270951615	-0.853515625	0.22314453125	0.26708984375	-21.1875	16.5625	-38.8125
18	11	28	12	37	19	-0.317065025732	0.605932930793	-0.224356310797	-0.86865234375	0.21044921875	0.23486328125	-31.25	17.25	-30.125
18	11	28	12	37	19	-0.312614361475	0.609787209195	-0.218927706875	-0.91162109375	0.18798828125	0.251953125	-48.1875	16.8125	-23.125
18	11	28	12	37	19	-0.306950035681	0.613533855372	-0.213015634227	-0.982421875	0.15966796875	0.25537109375	-54.6875	14.5	-17.6875
18	11	28	12	37	19	-0.302550849127	0.616637326756	-0.207519242895	-1.07421875	0.076171875	0.255859375	-46.375	11.25	-16.125
18	11	28	12	37	19	-0.300525570446	0.618323426928	-0.204276824591	-1.1552734375	0.0224609375	0.24560546875	-25.3125	7.0625	-13.5
18	11	28	12	37	19	-0.299980371092	0.618453936983	-0.203608243736	-1.19873046875	0.00732421875	0.25048828125	-6.625	3.375	-7.75
18	11	28	12	37	19	-0.299863450527	0.617732135719	-0.205503813948	-1.2841796875	0.017578125	0.248046875	6.25	3.4375	-0.625
18	11	28	12	37	19	-0.298760533968	0.616075348288	-0.208979789235	-1.271484375	0.02490234375	0.2705078125	10.1875	2.4375	11.625
18	11	28	12	37	19	-0.296026909555	0.61421005997	-0.21490943269	-1.3701171875	0.11865234375	0.2431640625	13.6875	4.625	21.0625
18	11	28	12	37	19	-0.291373236588	0.612774883816	-0.220635578187	-1.47900390625	0.091796875	0.19677734375	5.625	2.5625	31.4375
18	11	28	12	37	19	-0.282591753338	0.610227289389	-0.224059249785	-1.28466796875	0.0703125	0.2138671875	-20.25	-9.25	51.0625
18	11	28	12	37	19	-0.270074053469	0.607224126093	-0.226068767017	-1.146484375	0.0361328125	0.22412109375	-39.875	-14.125	69.25
18	11	28	12	37	19	-0.254325664701	0.603558074928	-0.22747102288	-1.0068359375	0.01611328125	0.220703125	-54.4375	-18.0625	87.125
18	11	28	12	37	19	-0.235220246911	0.600074070479	-0.228079414298	-0.96435546875	0.0625	0.173828125	-70.5625	-20.3125	97.9375
18	11	28	12	37	19	-0.214104481226	0.596538540336	-0.226677321343	-1.00341796875	0.11376953125	0.11376953125	-86.5625	-23.9375	100.8125
18	11	28	12	37	19	-0.19176749278	0.592697047225	-0.22240634745	-1.08056640625	0.13330078125	0.05712890625	-103.875	-31.0	97.625
18	11	28	12	37	19	-0.169490104671	0.588363200947	-0.215631451135	-1.19482421875	0.13720703125	0.00244140625	-114.1875	-38.5	90.1875
18	11	28	12	37	19	-0.148128431446	0.583236625833	-0.207636144944	-1.28125	0.0634765625	-0.0224609375	-115.0625	-44.75	85.1875
18	11	28	12	37	19	-0.12823375357	0.576777235241	-0.201353237996	-1.24267578125	-0.0576171875	0.01318359375	-100.5625	-48.75	87.5
18	11	28	12	37	19	-0.112975229334	0.571406859551	-0.198423809058	-1.125	-0.1396484375	0.0908203125	-63.875	-46.9375	94.1875
18	11	28	12	37	19	-0.0996079655059	0.563163417723	-0.205441428856	-0.990234375	-0.15576171875	0.146484375	-12.0625	-39.0	102.5625
18	11	28	12	37	19	-0.0893530658219	0.555099818067	-0.219598586631	-0.89990234375	-0.080078125	0.14453125	33.25	-28.875	108.9375
18	11	28	12	37	19	-0.080138186779	0.547234564098	-0.237057667517	-0.83984375	0.03662109375	0.10595703125	53.0625	-22.4375	111.6875
18	11	28	12	37	19	-0.0701888173283	0.539660454624	-0.253534214941	-0.77685546875	0.15869140625	0.06640625	46.0	-20.0	109.9375
18	11	28	12	37	19	-0.0585926755525	0.532583007158	-0.265559095134	-0.74853515625	0.2548828125	0.02001953125	18.0625	-19.6875	102.1875
18	11	28	12	37	19	-0.0450433338553	0.527946934754	-0.271480689686	-0.74755859375	0.29052734375	-0.01318359375	-21.5	-21.0	90.5625
18	11	28	12	37	19	-0.0301503290995	0.524029809005	-0.270681598292	-0.7587890625	0.25244140625	-0.02099609375	-59.125	-23.125	79.4375
18	11	28	12	37	19	-0.0155024869149	0.520798113562	-0.265129146292	-0.78076171875	0.18798828125	-0.00048828125	-79.9375	-23.5	68.375
18	11	28	12	37	19	-0.00274659781396	0.518313525248	-0.257508803936	-0.81298828125	0.09912109375	0.048828125	-80.3125	-20.9375	58.9375
18	11	28	12	37	19	0.0068967904985	0.516771019034	-0.251641302879	-0.82861328125	0.0498046875	0.09814453125	-58.25	-14.875	51.375
18	11	28	12	37	19	0.0128780978379	0.516344586296	-0.249688617321	-0.81787109375	0.05029296875	0.12548828125	-25.8125	-7.6875	44.0
18	11	28	12	37	19	0.0159908279933	0.516833326134	-0.251092619711	-0.79052734375	0.0908203125	0.150390625	1.0	-1.125	36.125
18	11	28	12	37	19	0.0164182079179	0.518546819593	-0.254634808303	-0.81103515625	0.1806640625	0.14697265625	18.875	4.4375	24.25
18	11	28	12	37	19	0.0144648422451	0.521771883349	-0.25737653902	-0.89697265625	0.26025390625	0.12451171875	21.0	7.625	6.25
18	11	28	12	37	19	0.0108031517048	0.526302695764	-0.256345972655	-1.00048828125	0.29052734375	0.12841796875	7.5625	8.625	-13.75
18	11	28	12	37	19	0.0057981608379	0.531599798928	-0.250785714557	-1.0791015625	0.25439453125	0.1767578125	-8.1875	9.875	-31.9375
18	11	28	12	37	19	-0.0013427163708	0.53787997163	-0.243275793364	-1.11279296875	0.23779296875	0.220703125	-9.25	14.4375	-48.625
18	11	28	12	37	19	-0.0115964564096	0.545094485232	-0.23461462336	-1.1318359375	0.1708984375	0.2451171875	-2.8125	18.0625	-65.8125
18	11	28	12	37	19	-0.0237421096435	0.552599127796	-0.22667916508	-1.1025390625	0.150390625	0.2890625	9.0625	23.375	-74.625
18	11	28	12	37	19	-0.0399766650784	0.561565336468	-0.220817670616	-1.19287109375	0.1728515625	0.28271484375	32.75	31.25	-90.8125
18	11	28	12	37	19	-0.0579819838726	0.570603754973	-0.215937114675	-1.2646484375	0.15576171875	0.2509765625	42.1875	35.4375	-107.1875
18	11	28	12	37	19	-0.074523281426	0.579218624679	-0.209592914346	-1.1064453125	0.1279296875	0.30859375	30.4375	36.5625	-105.9375
18	11	28	12	37	19	-0.0908796369639	0.587391286864	-0.203304278527	-0.958984375	0.10595703125	0.31201171875	30.8125	36.1875	-105.1875
18	11	28	12	37	19	-0.107724953974	0.594531884794	-0.19750592128	-0.92626953125	0.06103515625	0.3115234375	34.8125	31.3125	-104.1875
18	11	28	12	37	19	-0.124569540348	0.59977700784	-0.191645446689	-0.9794921875	0.0419921875	0.3017578125	36.5625	24.3125	-96.5
18	11	28	12	37	20	-0.140132254914	0.603923633439	-0.186822662148	-1.01904296875	0.00146484375	0.2734375	36.875	18.375	-84.6875
18	11	28	12	37	20	-0.155149044033	0.607107608576	-0.183163761268	-1.068359375	-0.02294921875	0.25390625	40.25	13.125	-77.0625
18	11	28	12	37	20	-0.170404593848	0.609477175561	-0.180902298054	-1.11181640625	-0.0283203125	0.22265625	47.5	8.875	-73.875
18	11	28	12	37	20	-0.186223677804	0.610979683652	-0.180303095455	-1.11279296875	-0.08740234375	0.201171875	58.0	5.375	-67.1875
18	11	28	12	37	20	-0.202809614693	0.610748063265	-0.182607994933	-1.06005859375	-0.12353515625	0.21337890625	74.9375	1.3125	-57.625
18	11	28	12	37	20	-0.219966726829	0.608509507903	-0.188839359825	-0.96240234375	-0.087890625	0.23681640625	95.3125	-0.625	-47.25
18	11	28	12	37	20	-0.236751329072	0.605214276637	-0.198849144139	-0.90185546875	-0.005859375	0.2216796875	110.625	-0.8125	-38.8125
18	11	28	12	37	20	-0.252560475233	0.601067075906	-0.209836373575	-0.86474609375	0.07861328125	0.1875	111.875	-3.0	-31.875
18	11	28	12	37	20	-0.265200802737	0.596259296189	-0.220522554727	-0.83447265625	0.14794921875	0.166015625	97.6875	-6.75	-25.6875
18	11	28	12	37	20	-0.275685893907	0.591531477474	-0.229728072762	-0.8291015625	0.1904296875	0.15478515625	82.5625	-9.4375	-23.1875
18	11	28	12	37	20	-0.284604884165	0.587276044486	-0.237241943974	-0.82275390625	0.21826171875	0.16064453125	68.1875	-9.3125	-24.25
18	11	28	12	37	20	-0.292478700386	0.583858774603	-0.243589835818	-0.8359375	0.24951171875	0.16162109375	58.25	-6.6875	-27.375
18	11	28	12	37	20	-0.300037183327	0.58139833368	-0.249074805768	-0.8671875	0.291015625	0.15087890625	52.1875	-2.8125	-34.125
18	11	28	12	37	20	-0.307429642445	0.579825611123	-0.253414309198	-0.87744140625	0.32275390625	0.15869140625	45.0625	0.6875	-41.4375
18	11	28	12	37	20	-0.315001781915	0.579039315061	-0.25628608453	-0.888671875	0.33544921875	0.1923828125	38.875	4.125	-50.0625
18	11	28	12	37	20	-0.323238008506	0.578972006927	-0.258114338741	-0.91357421875	0.337890625	0.21630859375	36.4375	7.9375	-58.875
18	11	28	12	37	20	-0.33177794788	0.579329705901	-0.259087084023	-0.91796875	0.328125	0.24365234375	33.5	10.5	-64.6875
18	11	28	12	37	20	-0.340081310402	0.580066901303	-0.258784055295	-0.91455078125	0.3125	0.27197265625	26.9375	11.25	-67.75
18	11	28	12	37	20	-0.34728246178	0.581408212815	-0.257135502896	-0.92431640625	0.2998046875	0.28125	15.625	12.4375	-67.875
18	11	28	12	37	20	-0.351984708326	0.583914982582	-0.253841581746	-0.97998046875	0.2939453125	0.2705078125	-2.4375	12.875	-64.5
18	11	28	12	37	20	-0.353984566134	0.587431284317	-0.248399514511	-1.0625	0.263671875	0.25439453125	-23.875	10.25	-59.1875
18	11	28	12	37	20	-0.353333881875	0.591555015224	-0.240479442837	-1.09521484375	0.15966796875	0.2587890625	-44.75	6.0	-48.6875
18	11	28	12	37	20	-0.351012684735	0.595397103042	-0.232360509614	-1.11328125	0.06591796875	0.30029296875	-51.4375	5.8125	-35.0
18	11	28	12	37	20	-0.348992588008	0.598499705843	-0.227046594507	-1.18310546875	-0.01171875	0.2939453125	-36.0	8.75	-22.3125
18	11	28	12	37	20	-0.3464298472	0.599721578328	-0.224971884563	-1.16943359375	0.009765625	0.31298828125	-23.25	7.5625	-6.4375
18	11	28	12	37	20	-0.342762565592	0.600078622667	-0.225944981806	-1.29052734375	0.08642578125	0.27392578125	-14.0625	6.8125	4.375
18	11	28	12	37	20	-0.337401003251	0.599973202235	-0.226988844264	-1.35693359375	0.02734375	0.2236328125	-19.0625	-1.4375	18.625
18	11	28	12	37	20	-0.329525678896	0.598138850377	-0.227231728567	-1.25537109375	-0.0166015625	0.259765625	-31.0	-12.75	38.6875
18	11	28	12	37	20	-0.319698900675	0.595147762598	-0.228696407184	-1.16455078125	-0.056640625	0.26416015625	-31.125	-16.5	59.3125
18	11	28	12	37	20	-0.307979388606	0.591056757681	-0.232235745867	-1.109375	-0.03515625	0.248046875	-28.3125	-18.0	77.875
18	11	28	12	37	20	-0.293825141844	0.586551643773	-0.237001043993	-1.1005859375	0.04150390625	0.19677734375	-32.25	-20.5625	90.5
18	11	28	12	37	20	-0.277153059037	0.5821373876	-0.240532967554	-1.1181640625	0.07861328125	0.14990234375	-47.0	-25.6875	98.125
18	11	28	12	37	20	-0.259276829902	0.577025223609	-0.241576669668	-1.18017578125	0.0791015625	0.1123046875	-61.625	-31.6875	101.3125
18	11	28	12	37	20	-0.240421440124	0.571420543905	-0.241398018708	-1.26220703125	0.03466796875	0.07177734375	-69.6875	-37.25	103.875
18	11	28	12	37	20	-0.220576066143	0.564745528507	-0.240961347298	-1.27197265625	-0.07177734375	0.08349609375	-72.75	-42.5	111.875
18	11	28	12	37	20	-0.200379981464	0.556828075204	-0.242921817309	-1.1875	-0.1318359375	0.13525390625	-60.6875	-42.25	123.9375
18	11	28	12	37	20	-0.180355448424	0.548085254432	-0.248957656217	-1.048828125	-0.11181640625	0.16650390625	-39.0625	-35.5625	135.5
18	11	28	12	37	20	-0.160276997789	0.539241155929	-0.25823761525	-0.9248046875	-0.0419921875	0.16552734375	-22.6875	-26.4375	143.375
18	11	28	12	37	20	-0.140011857987	0.530751140824	-0.268427267404	-0.857421875	0.04931640625	0.14990234375	-17.5625	-20.0	144.0625
18	11	28	12	37	20	-0.119504114537	0.522754208892	-0.277276400583	-0.810546875	0.1396484375	0.119140625	-24.5	-17.4375	139.125
18	11	28	12	37	20	-0.0989329091873	0.515293369691	-0.283493746561	-0.77490234375	0.2109375	0.083984375	-37.4375	-16.125	129.9375
18	11	28	12	37	20	-0.0782455069364	0.508595795086	-0.286188129504	-0.7490234375	0.24365234375	0.03955078125	-55.0625	-15.875	118.1875
18	11	28	12	37	20	-0.0576761787244	0.502301535346	-0.285268210961	-0.73583984375	0.23828125	0.00390625	-72.25	-17.4375	107.3125
18	11	28	12	37	20	-0.0386962355091	0.498473431234	-0.282165136843	-0.73046875	0.2119140625	-0.017578125	-80.8125	-19.375	96.75
18	11	28	12	37	20	-0.0220336495446	0.495177281871	-0.27801460852	-0.72314453125	0.16259765625	-0.0244140625	-77.625	-20.25	85.4375
18	11	28	12	37	20	-0.00823956967734	0.492482131307	-0.274530254879	-0.70751953125	0.12646484375	-0.00830078125	-63.25	-18.0	74.75
18	11	28	12	37	20	0.00170890910928	0.491006206577	-0.273303392549	-0.69677734375	0.12060546875	0.00244140625	-38.875	-12.8125	61.375
18	11	28	12	37	20	0.00707986365043	0.491318124017	-0.274649882991	-0.72314453125	0.13916015625	-0.0029296875	-11.0625	-7.125	44.125
18	11	28	12	37	21	0.00836175532139	0.493099425121	-0.277585862786	-0.7626953125	0.16650390625	0.00732421875	9.8125	-2.5625	26.875
18	11	28	12	37	21	0.00695794621301	0.495967288833	-0.28100337162	-0.7890625	0.212890625	0.0361328125	20.625	1.75	12.375
18	11	28	12	37	21	0.00311276922609	0.499874116896	-0.2837502771	-0.8232421875	0.2666015625	0.078125	25.5	6.25	-4.8125
18	11	28	12	37	21	-0.00378412206664	0.505424432804	-0.284114326133	-0.9208984375	0.28173828125	0.10107421875	23.875	9.875	-27.125
18	11	28	12	37	21	-0.0131222942787	0.512501883992	-0.280756063637	-1.033203125	0.23779296875	0.162109375	16.4375	13.75	-47.0
18	11	28	12	37	21	-0.0231935054822	0.520205913748	-0.275148217667	-1.0419921875	0.2021484375	0.24755859375	11.1875	20.9375	-57.25
18	11	28	12	37	21	-0.0358874057767	0.529644400221	-0.269765873355	-1.0849609375	0.2138671875	0.2822265625	22.5625	32.0	-73.0625
18	11	28	12	37	21	-0.0512701816921	0.540106949754	-0.263186932686	-1.15576171875	0.169921875	0.3076171875	27.5	36.625	-89.3125
18	11	28	12	37	21	-0.0678078652688	0.550275169454	-0.258902758299	-1.27099609375	0.20361328125	0.3349609375	39.875	40.9375	-102.0625
18	11	28	12	37	21	-0.0861789662289	0.560956712896	-0.253654237711	-1.32080078125	0.169921875	0.3505859375	42.375	42.9375	-114.5
18	11	28	12	37	21	-0.103450332996	0.571692784173	-0.247365309518	-1.18798828125	0.16748046875	0.400390625	35.0625	47.25	-114.5625
18	11	28	12	37	21	-0.120299050258	0.582391444731	-0.240109824311	-1.07080078125	0.14892578125	0.38671875	28.8125	48.6875	-117.0
18	11	28	12	37	21	-0.135126572136	0.592445183252	-0.23100906754	-0.97900390625	0.11279296875	0.38525390625	13.75	45.125	-113.1875
18	11	28	12	37	21	-0.147582514104	0.601560487597	-0.220702386683	-0.97705078125	0.1123046875	0.3701171875	-0.4375	40.1875	-105.6875
18	11	28	12	37	21	-0.157894194478	0.608933273407	-0.208430102103	-1.013671875	0.083984375	0.341796875	-15.9375	35.375	-97.0
18	11	28	12	37	21	-0.164978468007	0.615968442149	-0.194885774453	-1.07373046875	0.08447265625	0.29443359375	-34.4375	30.125	-88.9375
18	11	28	12	37	21	-0.169495340202	0.622988454245	-0.179749289483	-1.1279296875	0.02685546875	0.244140625	-51.125	25.875	-80.8125
18	11	28	12	37	21	-0.172422708675	0.629388662605	-0.164915454457	-1.13671875	-0.0498046875	0.236328125	-55.1875	23.5	-69.125
18	11	28	12	37	21	-0.174863800005	0.634697611259	-0.152464143949	-1.087890625	-0.0654296875	0.27099609375	-46.0625	24.25	-58.125
18	11	28	12	37	21	-0.177363213946	0.639264385022	-0.143550681074	-1.0380859375	-0.00537109375	0.2890625	-31.0	27.875	-50.75
18	11	28	12	37	21	-0.179497625604	0.643225255435	-0.137445988731	-1.013671875	0.08740234375	0.28466796875	-20.9375	29.4375	-45.625
18	11	28	12	37	21	-0.17993288404	0.646732984833	-0.13214202644	-1.00732421875	0.17919921875	0.26708984375	-25.0625	26.5625	-41.9375
18	11	28	12	37	21	-0.177670813483	0.649771034127	-0.125608565493	-0.9755859375	0.236328125	0.26708984375	-41.0625	21.3125	-38.0
18	11	28	12	37	21	-0.17248401827	0.652582846194	-0.117247628838	-0.95068359375	0.27197265625	0.26220703125	-60.5625	16.375	-34.0625
18	11	28	12	37	21	-0.164853184276	0.655140348025	-0.107114897595	-0.9326171875	0.26806640625	0.265625	-77.25	12.4375	-29.5625
18	11	28	12	37	21	-0.155205993558	0.65732149061	-0.096065369194	-0.89404296875	0.26220703125	0.28466796875	-89.0	10.4375	-23.375
18	11	28	12	37	21	-0.144282792009	0.659159963492	-0.0848973619645	-0.86865234375	0.24267578125	0.29443359375	-94.0	9.3125	-17.0
18	11	28	12	37	21	-0.132629055098	0.660398700486	-0.0738523500543	-0.85693359375	0.21826171875	0.302734375	-95.9375	7.0625	-10.75
18	11	28	12	37	21	-0.119685100783	0.66110607429	-0.0629247011257	-0.8408203125	0.20166015625	0.29345703125	-99.5625	3.375	-3.3125
18	11	28	12	37	21	-0.105956146889	0.662470056646	-0.0501094450439	-0.830078125	0.1923828125	0.2919921875	-108.4375	-1.875	6.0
18	11	28	12	37	21	-0.0894153475636	0.663016328043	-0.0362544139609	-0.8212890625	0.19287109375	0.2998046875	-123.625	-7.25	14.4375
18	11	28	12	37	21	-0.0702517901479	0.663027972526	-0.0208741200961	-0.84912109375	0.1806640625	0.2958984375	-139.5	-10.8125	20.1875
18	11	28	12	37	21	-0.0494996891126	0.662538995458	-0.00421144087394	-0.92431640625	0.17236328125	0.287109375	-150.875	-12.4375	22.3125
18	11	28	12	37	21	-0.0277714114233	0.661875132909	0.013733115539	-1.064453125	0.20556640625	0.24658203125	-159.6875	-12.0	20.6875
18	11	28	12	37	21	-0.00512697048643	0.661012980572	0.0342408386058	-1.2705078125	0.21240234375	0.154296875	-174.3125	-11.0	14.5
18	11	28	12	37	21	0.0194705366771	0.659251619591	0.0583505738662	-1.373046875	0.2041015625	0.07275390625	-197.5625	-14.5625	9.0
18	11	28	12	37	21	0.045533010994	0.656078197285	0.0862441615744	-1.4521484375	0.169921875	-0.037109375	-219.3125	-19.3125	1.0
18	11	28	12	37	21	0.0719005030159	0.651010836305	0.117067202703	-1.5791015625	0.19189453125	-0.12109375	-234.125	-25.4375	-10.125
18	11	28	12	37	21	0.0989392554586	0.643379822202	0.151552233994	-1.6376953125	0.2041015625	-0.2529296875	-253.5625	-34.875	-22.875
18	11	28	12	37	21	0.129276140346	0.631731847301	0.190801328953	-1.4736328125	0.1318359375	-0.29345703125	-288.9375	-48.75	-28.5
18	11	28	12	37	21	0.162176732464	0.616295998377	0.232553011173	-1.22998046875	0.05322265625	-0.25927734375	-313.4375	-58.3125	-28.0625
18	11	28	12	37	21	0.194279553564	0.59864714463	0.273505083104	-1.0517578125	-0.0087890625	-0.259765625	-311.8125	-60.4375	-28.5625
18	11	28	12	37	21	0.224002374292	0.57984265825	0.311711205861	-0.943359375	-0.0517578125	-0.27880859375	-295.1875	-59.1875	-29.0625
18	11	28	12	37	21	0.250980669883	0.560678120997	0.346746397277	-0.87109375	-0.01220703125	-0.33642578125	-275.0625	-57.25	-29.5
18	11	28	12	37	21	0.274599697769	0.54114268069	0.378848705058	-0.83984375	0.05517578125	-0.40869140625	-253.3125	-56.6875	-35.375
18	11	28	12	37	21	0.295537226073	0.520516617916	0.409003501015	-0.82177734375	0.1064453125	-0.46875	-238.25	-59.75	-44.0
18	11	28	12	37	21	0.313352201898	0.498531512487	0.437008524658	-0.81298828125	0.15234375	-0.51904296875	-219.4375	-65.125	-55.6875
18	11	28	12	37	21	0.327576928932	0.475404639361	0.462282030879	-0.8486328125	0.1630859375	-0.55078125	-195.5	-71.625	-69.125
18	11	28	12	37	22	0.338627163124	0.45166564656	0.484319852089	-0.90185546875	0.158203125	-0.56982421875	-169.125	-78.25	-79.375
18	11	28	12	37	22	0.347171798926	0.427617022376	0.503423522774	-0.9736328125	0.14453125	-0.576171875	-146.0	-83.5	-86.8125
18	11	28	12	37	22	0.354188727675	0.403688479208	0.519961015176	-1.05810546875	0.0869140625	-0.56689453125	-128.625	-86.75	-88.0625
18	11	28	12	37	22	0.361879750721	0.380373521082	0.533999989722	-1.11572265625	-0.00341796875	-0.5341796875	-119.25	-90.5625	-77.875
18	11	28	12	37	22	0.371514090009	0.357842469151	0.54668173225	-1.14501953125	-0.07421875	-0.48193359375	-121.4375	-92.625	-61.0
18	11	28	12	37	22	0.384104023609	0.336617462292	0.559340421476	-1.140625	-0.134765625	-0.41748046875	-135.8125	-88.25	-37.75
18	11	28	12	37	22	0.399554569263	0.317763685852	0.572169956046	-1.12451171875	-0.220703125	-0.3642578125	-151.3125	-78.9375	-8.75
18	11	28	12	37	22	0.417861248671	0.302073520256	0.585103407794	-1.087890625	-0.26025390625	-0.30712890625	-166.0	-66.5	23.625
18	11	28	12	37	22	0.457450957903	0.280635023941	0.607594968102	-1.13232421875	-0.23876953125	-0.27880859375	-161.875	-46.4375	69.25
18	11	28	12	37	22	0.478526409261	0.273321589372	0.615736532733	-1.14404296875	-0.1787109375	-0.2939453125	-155.625	-47.125	85.0625
18	11	28	12	37	22	0.572605117316	0.252090303221	0.626563429191	-1.07861328125	-0.1162109375	-0.341796875	-135.75	-68.5625	131.5625
18	11	28	12	37	22	0.595221253098	0.251284444115	0.623236691487	-1.05712890625	-0.1220703125	-0.322265625	-111.3125	-66.5	138.8125
18	11	28	12	37	22	0.664939191014	0.284067100696	0.584125946209	-1.10400390625	-0.04541015625	-0.23291015625	5.375	-49.8125	147.875
18	11	28	12	37	22	0.67733014892	0.297922722977	0.57143055368	-1.11767578125	-0.0517578125	-0.205078125	13.25	-44.6875	147.0
18	11	28	12	37	22	0.688491913192	0.312568004207	0.55830102216	-1.0556640625	-0.05029296875	-0.146484375	20.6875	-40.5	146.875
18	11	28	12	37	22	0.698224545061	0.327840198577	0.545016781436	-1.00244140625	-0.033203125	-0.08837890625	27.5625	-35.5625	144.5625
18	11	28	12	37	22	0.706202780953	0.343762667444	0.531635801391	-0.986328125	0.017578125	-0.0341796875	37.625	-30.8125	138.75
18	11	28	12	37	22	0.712064377426	0.359694443355	0.51881940752	-1.0693359375	0.13037109375	-0.03125	46.0	-25.8125	124.875
18	11	28	12	37	22	0.716554357356	0.372803578767	0.508057791365	-1.18798828125	0.23095703125	-0.0302734375	38.1875	-22.1875	103.4375
18	11	28	12	37	22	0.721010916926	0.381043863063	0.501283557158	-1.14208984375	0.2421875	0.04736328125	4.75	-19.375	91.0
18	11	28	12	37	22	0.726763817065	0.38495837694	0.496106181666	-0.9638671875	0.22314453125	0.1318359375	-19.5	-13.1875	81.625
18	11	28	12	37	22	0.732760357158	0.384233773287	0.493186479453	-0.85498046875	0.1572265625	0.2451171875	-36.5625	-6.1875	61.9375
18	11	28	12	37	22	0.741410442342	0.369392936285	0.501598008987	-1.16796875	0.0693359375	0.3154296875	-45.625	26.3125	15.5
18	11	28	12	37	22	0.74300970666	0.35987720615	0.509236012705	-1.25830078125	0.068359375	0.24267578125	-69.1875	24.25	6.9375
18	11	28	12	37	22	0.746422122233	0.345652831647	0.517533173147	-1.228515625	-0.0078125	0.18115234375	-97.25	13.75	2.125
18	11	28	12	37	22	0.752353033957	0.330642250928	0.523155756453	-1.12451171875	-0.11962890625	0.17529296875	-111.8125	4.3125	1.75
18	11	28	12	37	22	0.758019208916	0.316110917383	0.527909504623	-0.98095703125	-0.23583984375	0.22802734375	-105.875	2.125	3.375
18	11	28	12	37	22	0.761248953197	0.301765139882	0.533460218966	-0.873046875	-0.279296875	0.27587890625	-79.3125	8.3125	2.9375
18	11	28	12	37	22	0.76160983598	0.292485521239	0.538644558625	-0.85107421875	-0.24169921875	0.2734375	-43.1875	16.0	-1.8125
18	11	28	12	37	22	0.759973838699	0.286752637877	0.543536023903	-0.88330078125	-0.15478515625	0.23876953125	-18.125	18.25	-10.1875
18	11	28	12	37	22	0.75778454651	0.281689543467	0.548119631708	-0.91796875	-0.080078125	0.20263671875	-11.375	14.1875	-20.5625
18	11	28	12	37	22	0.756192899167	0.27521783698	0.552266797293	-0.89892578125	-0.04345703125	0.220703125	-16.5	9.125	-29.75
18	11	28	12	37	22	0.754662369002	0.267647564548	0.556291882164	-0.88916015625	-0.037109375	0.2607421875	-17.9375	8.625	-39.0625
18	11	28	12	37	22	0.752213207581	0.260381494932	0.560619791596	-0.90380859375	-0.03564453125	0.29833984375	-10.5	13.3125	-47.875
18	11	28	12	37	22	0.748530441015	0.254474713251	0.565105995508	-0.9345703125	-0.00244140625	0.318359375	1.0625	18.625	-55.5
18	11	28	12	37	22	0.744137522995	0.249571713544	0.569455633985	-0.939453125	0.0439453125	0.3271484375	8.625	21.0625	-61.625
18	11	28	12	37	22	0.739517200366	0.244817059316	0.573681261657	-0.943359375	0.1005859375	0.31396484375	9.125	20.5	-67.6875
18	11	28	12	37	22	0.735002623689	0.238775142324	0.578260659095	-0.94384765625	0.14013671875	0.2783203125	0.5625	18.5	-74.6875
18	11	28	12	37	22	0.730787963958	0.230595249965	0.583568339046	-0.93359375	0.15283203125	0.25439453125	-14.4375	17.6875	-80.3125
18	11	28	12	37	22	0.726665817662	0.220471812969	0.589633918405	-0.92236328125	0.13330078125	0.2333984375	-27.4375	17.8125	-84.4375
18	11	28	12	37	22	0.722372083518	0.209234600955	0.596208746245	-0.91015625	0.111328125	0.21728515625	-33.875	18.8125	-87.3125
18	11	28	12	37	22	0.717817581214	0.197949185024	0.602820274836	-0.9052734375	0.1025390625	0.2119140625	-34.75	20.0	-88.1875
18	11	28	12	37	22	0.71291188237	0.187261443075	0.609271096731	-0.919921875	0.11279296875	0.19580078125	-31.9375	21.0625	-89.4375
18	11	28	12	37	23	0.707892648801	0.177064715828	0.615423484899	-0.935546875	0.12158203125	0.197265625	-30.1875	20.9375	-89.8125
18	11	28	12	37	23	0.703033240062	0.166999387464	0.621181566601	-0.96337890625	0.12109375	0.20849609375	-30.4375	20.375	-89.0625
18	11	28	12	37	23	0.698105626046	0.157908477274	0.626384535672	-1.01318359375	0.12841796875	0.2255859375	-25.9375	21.125	-88.9375
18	11	28	12	37	23	0.693065003131	0.149782608338	0.63105231769	-1.07275390625	0.1162109375	0.24365234375	-19.8125	21.8125	-87.9375
18	11	28	12	37	23	0.688140682563	0.143316863816	0.634915680328	-1.12158203125	0.1171875	0.259765625	-11.875	21.9375	-83.75
18	11	28	12	37	23	0.683446847603	0.139045451357	0.63803428579	-1.220703125	0.1298828125	0.2529296875	-3.375	21.375	-77.8125
18	11	28	12	37	23	0.679529449965	0.136113417176	0.64064862183	-1.33544921875	0.13134765625	0.2314453125	-3.25	18.125	-68.3125
18	11	28	12	37	23	0.677275279725	0.133123412498	0.643216194822	-1.43359375	0.13720703125	0.20751953125	-16.4375	12.0625	-55.0
18	11	28	12	37	23	0.677272246782	0.128545002859	0.645960002496	-1.4609375	0.06884765625	0.1962890625	-40.1875	4.0	-35.9375
18	11	28	12	37	23	0.680230595326	0.122191265307	0.648248465945	-1.3662109375	-0.0390625	0.2294921875	-65.5625	-4.9375	-8.6875
18	11	28	12	37	23	0.685637623799	0.116032860575	0.649808434342	-1.2216796875	-0.11328125	0.2412109375	-80.9375	-11.25	21.9375
18	11	28	12	37	23	0.692839471324	0.110844549372	0.65054031234	-1.05224609375	-0.15625	0.22802734375	-89.3125	-16.5625	50.375
18	11	28	12	37	23	0.701555212391	0.106997240936	0.650406502805	-0.9150390625	-0.1220703125	0.203125	-96.1875	-21.375	74.25
18	11	28	12	37	23	0.710414491616	0.103397383693	0.650475748531	-0.87744140625	-0.0537109375	0.13037109375	-105.4375	-24.1875	90.4375
18	11	28	12	37	23	0.719699734849	0.0988816529943	0.650238425523	-0.91064453125	-0.0107421875	0.05322265625	-119.4375	-28.1875	98.6875
18	11	28	12	37	23	0.729529289239	0.0927781559274	0.648958785408	-0.96240234375	0.013671875	-0.0224609375	-130.9375	-36.9375	101.125
18	11	28	12	37	23	0.739529127179	0.0852692465062	0.646386056192	-1.0458984375	0.033203125	-0.0908203125	-136.4375	-45.9375	98.0625
18	11	28	12	37	23	0.749544574728	0.0767245545956	0.642423179887	-1.150390625	0.0107421875	-0.1171875	-138.75	-54.3125	94.5
18	11	28	12	37	23	0.75985065183	0.0688498301281	0.636372632017	-1.18359375	-0.06005859375	-0.0908203125	-130.0	-63.6875	95.375
18	11	28	12	37	23	0.769868684111	0.0653103537619	0.628444301245	-1.18115234375	-0.13720703125	-0.01953125	-100.125	-68.625	102.1875
18	11	28	12	37	23	0.779087467296	0.0700104453924	0.618985114843	-1.1435546875	-0.21923828125	0.060546875	-46.9375	-68.625	114.75
18	11	28	12	37	23	0.786735004074	0.0850276872275	0.60880556526	-1.06005859375	-0.24072265625	0.1025390625	18.875	-63.5	129.3125
18	11	28	12	37	23	0.792019606999	0.109561898471	0.598775612258	-0.98681640625	-0.17919921875	0.0810546875	77.9375	-54.0	141.25
18	11	28	12	37	23	0.794824515697	0.139713816344	0.589251718211	-0.919921875	-0.0732421875	0.0380859375	112.0625	-44.0625	148.5625
18	11	28	12	37	23	0.795738887171	0.170598311701	0.580278407635	-0.87060546875	0.0615234375	0.00244140625	115.4375	-34.8125	149.625
18	11	28	12	37	23	0.795716952293	0.197769478784	0.572066529372	-0.83837890625	0.1650390625	-0.029296875	92.4375	-27.375	144.25
18	11	28	12	37	23	0.795988737633	0.218391818361	0.564473878202	-0.830078125	0.236328125	-0.04736328125	51.5	-23.3125	135.1875
18	11	28	12	37	23	0.797534714087	0.2312154827	0.557163391259	-0.84228515625	0.234375	-0.037109375	5.3125	-22.75	123.875
18	11	28	12	37	23	0.800283508564	0.237686216333	0.549962200607	-0.86474609375	0.203125	-0.00927734375	-31.25	-23.25	113.0625
18	11	28	12	37	23	0.803378846925	0.240427691691	0.543174924691	-0.9052734375	0.18408203125	0.0341796875	-47.9375	-21.5625	100.625
18	11	28	12	37	23	0.805081516652	0.239693337065	0.539752528564	-0.955078125	0.1640625	0.0517578125	-50.75	-19.125	85.1875
18	11	28	12	37	23	0.806566846099	0.237685129311	0.537141535165	-0.96337890625	0.119140625	0.08251953125	-46.8125	-16.75	72.8125
18	11	28	12	37	23	0.807598557311	0.236401573008	0.534940197738	-0.90380859375	0.1298828125	0.12939453125	-34.9375	-12.5625	62.9375
18	11	28	12	37	23	0.807665251302	0.235975956887	0.534211478189	-0.89013671875	0.15869140625	0.15576171875	-17.9375	-6.6875	45.3125
18	11	28	12	37	23	0.806878783128	0.234940346188	0.535742119639	-0.93505859375	0.18310546875	0.15771484375	-3.9375	-0.625	18.375
18	11	28	12	37	23	0.805860473355	0.231832909999	0.539112233046	-0.9990234375	0.16796875	0.18798828125	1.0	4.875	-6.25
18	11	28	12	37	23	0.804353414644	0.227731263472	0.544028075939	-1.048828125	0.16064453125	0.21240234375	9.125	10.1875	-26.5625
18	11	28	12	37	23	0.802068474851	0.223468240976	0.550521733233	-1.12255859375	0.16162109375	0.2109375	24.5625	13.4375	-49.4375
18	11	28	12	37	23	0.798892063219	0.219438949211	0.558211179564	-1.20703125	0.19287109375	0.18896484375	39.125	14.0625	-71.4375
18	11	28	12	37	23	0.79516035486	0.214492476163	0.566628815089	-1.28662109375	0.18408203125	0.16015625	47.1875	12.9375	-92.75
18	11	28	12	37	23	0.792476184364	0.209548697599	0.572733885688	-1.2099609375	0.1298828125	0.19287109375	42.375	11.9375	-102.875
18	11	28	12	37	23	0.789334333265	0.204230797951	0.578877730953	-1.037109375	0.07080078125	0.271484375	42.5	15.625	-105.5
18	11	28	12	37	23	0.784871917344	0.200627886485	0.585342692848	-0.95556640625	0.046875	0.29345703125	60.25	19.8125	-112.125
18	11	28	12	37	23	0.779446648221	0.197699897697	0.591756871927	-0.9716796875	0.0517578125	0.28857421875	71.4375	20.4375	-120.25
18	11	28	12	37	23	0.773719466361	0.194284400554	0.597685469755	-1.02001953125	0.0888671875	0.279296875	68.9375	19.125	-122.25
18	11	28	12	37	23	0.768040567202	0.189339731341	0.603116017208	-1.09912109375	0.08935546875	0.228515625	59.875	16.0	-124.5
18	11	28	12	37	23	0.763098864067	0.182198856922	0.607573675645	-1.14208984375	0.07373046875	0.16357421875	44.9375	8.5	-124.6875
18	11	28	12	37	23	0.759259756443	0.173471840808	0.610691684477	-1.11083984375	0.025390625	0.11865234375	30.6875	-1.25	-119.625
18	11	28	12	37	23	0.756182712199	0.164676806644	0.612441466963	-1.0322265625	-0.037109375	0.109375	26.9375	-8.375	-112.0625
18	11	28	12	37	23	0.752751357629	0.158692413025	0.613102034167	-0.9267578125	-0.09814453125	0.1484375	41.875	-8.875	-103.1875
18	11	28	12	37	23	0.747891398527	0.157049258827	0.612937682527	-0.84716796875	-0.10498046875	0.16162109375	72.6875	-5.25	-95.0625
18	11	28	12	37	24	0.742028402615	0.160527654757	0.61134790496	-0.82958984375	-0.05078125	0.13671875	101.5	-3.0625	-89.375
18	11	28	12	37	24	0.735723748372	0.166505258467	0.608525449749	-0.8447265625	0.04150390625	0.10107421875	115.0625	-4.8125	-84.1875
18	11	28	12	37	24	0.729814608651	0.172367354255	0.604811654857	-0.8642578125	0.125	0.0732421875	110.75	-9.1875	-79.0
18	11	28	12	37	24	0.724270980861	0.178839876447	0.601219379865	-0.892578125	0.16015625	0.08447265625	98.25	-11.5	-75.375
18	11	28	12	37	24	0.718434857516	0.184278235755	0.598370170622	-0.96826171875	0.17529296875	0.07763671875	87.8125	-8.9375	-76.125
18	11	28	12	37	24	0.712226148702	0.189149784457	0.596258226641	-0.97265625	0.19091796875	0.08837890625	79.3125	-3.875	-76.3125
18	11	28	12	37	24	0.705466409419	0.19367061058	0.594867245734	-0.99072265625	0.2060546875	0.1201171875	74.0	3.5	-77.625
18	11	28	12	37	24	0.698140517973	0.198247980624	0.594011498594	-1.01220703125	0.20068359375	0.173828125	71.0	11.25	-77.25
18	11	28	12	37	24	0.690751175297	0.203373943279	0.593031582503	-0.994140625	0.2041015625	0.23388671875	70.25	17.8125	-73.25
18	11	28	12	37	24	0.683746197061	0.208993659948	0.591762130022	-0.95166015625	0.22705078125	0.279296875	67.5	21.375	-67.125
18	11	28	12	37	24	0.677862079131	0.214052071989	0.590703151614	-0.9130859375	0.279296875	0.29541015625	53.5	22.125	-60.625
18	11	28	12	37	24	0.673744699388	0.216870349422	0.591037318733	-0.88818359375	0.3564453125	0.279296875	24.375	21.375	-54.1875
18	11	28	12	37	24	0.671905750599	0.215463962538	0.593960288797	-0.92236328125	0.396484375	0.2470703125	-20.25	18.625	-48.375
18	11	28	12	37	24	0.672256912157	0.208745109822	0.599684416374	-0.98046875	0.31689453125	0.2236328125	-65.8125	14.5625	-40.75
18	11	28	12	37	24	0.67415580479	0.198859177185	0.606648668521	-1.02880859375	0.17919921875	0.23193359375	-92.5625	11.625	-28.125
18	11	28	12	37	24	0.676400191571	0.190248998117	0.613289038523	-1.134765625	0.0869140625	0.22900390625	-91.125	12.9375	-12.375
18	11	28	12	37	24	0.678378270333	0.185067744795	0.61874397394	-1.2470703125	0.0078125	0.20556640625	-73.25	14.1875	3.8125
18	11	28	12	37	24	0.680429270269	0.18457284834	0.622323003199	-1.37353515625	0.02392578125	0.1962890625	-50.125	14.375	19.75
18	11	28	12	37	24	0.682779461103	0.187266885988	0.624548493295	-1.48388671875	-0.00537109375	0.142578125	-34.8125	10.625	36.4375
18	11	28	12	37	24	0.68787697754	0.19049370425	0.624155277047	-1.3623046875	-0.0693359375	0.1806640625	-35.75	-2.75	59.875
18	11	28	12	37	24	0.695652540207	0.19507813622	0.62124695571	-1.20849609375	-0.0712890625	0.2314453125	-37.75	-12.1875	86.0625
18	11	28	12	37	24	0.704427789912	0.200994776205	0.617633203892	-1.11083984375	-0.05224609375	0.2255859375	-41.1875	-15.3125	108.4375
18	11	28	12	37	24	0.714072124956	0.206915505907	0.613727260145	-1.10009765625	0.01416015625	0.17626953125	-53.5	-16.6875	123.25
18	11	28	12	37	24	0.724870930421	0.210637384716	0.60975586013	-1.1298828125	0.0673828125	0.1240234375	-76.4375	-21.125	131.9375
18	11	28	12	37	24	0.736522757099	0.211490126241	0.605600297998	-1.22021484375	0.08935546875	0.07275390625	-99.4375	-26.6875	136.125
18	11	28	12	37	24	0.748796540272	0.20953851669	0.600843914447	-1.33984375	0.06201171875	0.01953125	-118.625	-33.75	138.3125
18	11	28	12	37	24	0.761622384319	0.205634381533	0.594746635102	-1.38818359375	0.00732421875	0.00537109375	-131.625	-42.4375	142.4375
18	11	28	12	37	24	0.774454069304	0.201853689091	0.586761267987	-1.31494140625	-0.06298828125	0.0380859375	-131.375	-49.375	150.1875
18	11	28	12	37	24	0.786106618187	0.201180791486	0.577051942569	-1.18408203125	-0.1259765625	0.09130859375	-111.875	-51.25	159.6875
18	11	28	12	37	24	0.795704368738	0.205701420884	0.566075660914	-1.0537109375	-0.15380859375	0.13232421875	-78.0625	-48.4375	168.5625
18	11	28	12	37	24	0.802760183557	0.215827251297	0.554583259413	-0.95166015625	-0.115234375	0.1416015625	-41.5	-43.25	175.1875
18	11	28	12	37	24	0.807434786978	0.229937015614	0.54313235066	-0.8798828125	-0.025390625	0.1201171875	-14.5	-37.375	177.4375
18	11	28	12	37	24	0.810348784222	0.245375272113	0.532012654661	-0.830078125	0.08935546875	0.07568359375	-3.0	-32.375	173.9375
18	11	28	12	37	24	0.812470694246	0.258921244459	0.521382666235	-0.8173828125	0.20361328125	0.0078125	-10.3125	-29.6875	163.625
18	11	28	12	37	24	0.815072344933	0.267845236993	0.51084703473	-0.82373046875	0.26806640625	-0.04345703125	-33.125	-30.3125	149.9375
18	11	28	12	37	24	0.81877221665	0.271194644295	0.500150554886	-0.8330078125	0.271484375	-0.0576171875	-61.75	-33.125	134.3125
18	11	28	12	37	24	0.823518594826	0.269908036341	0.489032832919	-0.80859375	0.19970703125	-0.0546875	-83.4375	-36.5625	120.5
18	11	28	12	37	24	0.828175844039	0.266862086537	0.478117731895	-0.7783203125	0.1240234375	-0.0078125	-86.25	-36.6875	108.9375
18	11	28	12	37	24	0.83086864322	0.263140958046	0.471346434245	-0.751953125	0.06591796875	0.03955078125	-69.125	-32.8125	97.8125
18	11	28	12	37	24	0.831884020988	0.262340415453	0.466511818359	-0.724609375	0.0517578125	0.06396484375	-39.0625	-25.875	86.0625
18	11	28	12	37	24	0.830812101495	0.265461893278	0.464329414156	-0.72314453125	0.10546875	0.09375	-4.0625	-16.4375	71.375
18	11	28	12	37	24	0.827879173495	0.271076561932	0.465609550647	-0.79443359375	0.20849609375	0.08251953125	24.1875	-7.25	48.4375
18	11	28	12	37	24	0.82445508495	0.27595775813	0.469512735133	-0.86767578125	0.2880859375	0.0810546875	32.875	-0.875	22.4375
18	11	28	12	37	24	0.821374377988	0.278267503102	0.475111700844	-0.91162109375	0.34326171875	0.10546875	28.875	4.625	-1.9375
18	11	28	12	37	24	0.818516533344	0.278027055136	0.482564631813	-0.94091796875	0.40576171875	0.1298828125	26.0625	11.4375	-29.25
18	11	28	12	37	24	0.815667410556	0.274737634881	0.492769812573	-1.0205078125	0.43994140625	0.1328125	27.125	18.5625	-65.1875
18	11	28	12	37	24	0.81382593464	0.268935503489	0.502957001533	-1.138671875	0.42822265625	0.16015625	29.0625	26.125	-103.8125
18	11	28	12	37	24	0.811366063613	0.260506308546	0.515519278814	-1.20703125	0.33837890625	0.2138671875	34.4375	33.6875	-136.5625
18	11	28	12	37	24	0.807392710425	0.251715114741	0.52949287594	-1.07958984375	0.17626953125	0.32666015625	43.3125	44.75	-147.75
18	11	28	12	37	24	0.800695961746	0.246288169359	0.544641718758	-0.9716796875	0.12255859375	0.392578125	72.8125	55.375	-152.375
18	11	28	12	37	25	0.792144249061	0.243295344179	0.559652536573	-0.9404296875	0.115234375	0.361328125	96.6875	55.5625	-160.25
18	11	28	12	37	25	0.783422627637	0.239757232673	0.573024669128	-0.966796875	0.1796875	0.3349609375	95.625	47.625	-164.5
18	11	28	12	37	25	0.776054378575	0.232743066345	0.584146641731	-1.0146484375	0.2119140625	0.2880859375	70.5625	35.625	-163.875
18	11	28	12	37	25	0.770543364434	0.220286042637	0.59359428225	-1.1142578125	0.14306640625	0.2314453125	33.75	23.4375	-164.375
18	11	28	12	37	25	0.766582629289	0.203929657174	0.601412425064	-1.2294921875	0.02978515625	0.19482421875	4.25	12.6875	-159.875
18	11	28	12	37	25	0.763159690386	0.187326008941	0.607573507007	-1.25732421875	-0.1416015625	0.16943359375	-1.5	4.8125	-150.125
18	11	28	12	37	25	0.758557793722	0.175356979511	0.612315077777	-1.212890625	-0.31982421875	0.205078125	27.25	4.75	-138.5
18	11	28	12	37	25	0.751846301246	0.172427813039	0.614880633118	-1.107421875	-0.35205078125	0.27978515625	86.75	6.5625	-126.6875
18	11	28	12	37	25	0.742620178089	0.18042124159	0.61462851922	-1.052734375	-0.302734375	0.28173828125	155.3125	9.25	-109.8125
18	11	28	12	37	25	0.731309609369	0.196545942924	0.611550870234	-0.97216796875	-0.07861328125	0.17529296875	203.25	9.875	-95.0625
18	11	28	12	37	25	0.720323672109	0.212721633531	0.606668670205	-0.990234375	0.1337890625	0.10498046875	195.5	3.0625	-85.8125
18	11	28	12	37	25	0.711699917863	0.223459125154	0.601099553269	-0.97705078125	0.22119140625	0.09765625	153.8125	-10.4375	-81.375
18	11	28	12	37	25	0.705109242009	0.229868542712	0.595729414993	-0.9296875	0.25	0.1171875	117.0	-17.0	-75.1875
18	11	28	12	37	25	0.699524312762	0.235656868648	0.590881674535	-0.9365234375	0.291015625	0.1318359375	93.5625	-16.125	-76.9375
18	11	28	12	37	25	0.694048830954	0.239569225353	0.587356600147	-0.9404296875	0.33935546875	0.1181640625	75.0	-12.625	-79.9375
18	11	28	12	37	25	0.688881255921	0.24165168281	0.584932578016	-0.94775390625	0.3623046875	0.1220703125	57.8125	-10.4375	-81.6875
18	11	28	12	37	25	0.684116313685	0.242382751753	0.582792876791	-0.91748046875	0.35888671875	0.16796875	47.8125	-9.1875	-82.5
18	11	28	12	37	25	0.679407743438	0.242684861011	0.580588128253	-0.8984375	0.337890625	0.2080078125	45.75	-7.1875	-82.375
18	11	28	12	37	25	0.674338386282	0.243660285847	0.578021770283	-0.88916015625	0.31591796875	0.2138671875	50.5625	-6.3125	-80.8125
18	11	28	12	37	25	0.668990107239	0.244645287392	0.57566110414	-0.8955078125	0.27734375	0.20849609375	49.8125	-5.1875	-78.75
18	11	28	12	37	25	0.663845615062	0.245676590716	0.573631950198	-0.91455078125	0.265625	0.21240234375	44.8125	-2.9375	-74.0625
18	11	28	12	37	25	0.658848855281	0.246595272868	0.572296356042	-0.94580078125	0.212890625	0.20947265625	38.125	0.0	-66.9375
18	11	28	12	37	25	0.65450829019	0.248057604339	0.571252735977	-0.99267578125	0.17529296875	0.2197265625	32.625	3.0625	-55.0625
18	11	28	12	37	25	0.650648953822	0.251043071958	0.570447009608	-1.05859375	0.12939453125	0.2236328125	30.75	8.25	-39.4375
18	11	28	12	37	25	0.647732783493	0.255870319299	0.570031706091	-1.13916015625	0.09375	0.22509765625	26.0	14.75	-18.3125
18	11	28	12	37	25	0.645508681802	0.263000842463	0.570069127083	-1.2412109375	0.0595703125	0.20703125	23.0	22.25	3.6875
18	11	28	12	37	25	0.645285314326	0.271737629529	0.570148516942	-1.2568359375	0.12841796875	0.2041015625	11.8125	26.4375	25.6875
18	11	28	12	37	25	0.646312331808	0.280827560549	0.571726094253	-1.40576171875	0.119140625	0.15576171875	-6.625	31.8125	45.125
18	11	28	12	37	25	0.650612319655	0.287492637731	0.573276189718	-1.2978515625	0.01708984375	0.18359375	-31.4375	25.75	69.9375
18	11	28	12	37	25	0.657945521911	0.294088646866	0.573344678292	-1.1162109375	0.06982421875	0.18896484375	-44.9375	19.125	92.125
18	11	28	12	37	25	0.666777346823	0.299573710931	0.57345049189	-1.06689453125	0.09375	0.1494140625	-60.0625	16.4375	110.625
18	11	28	12	37	25	0.677261583861	0.303839957143	0.57319426226	-1.09521484375	0.1201171875	0.10986328125	-76.4375	11.6875	121.9375
18	11	28	12	37	25	0.689171120055	0.306406786173	0.572406940384	-1.1357421875	0.13818359375	0.076171875	-92.875	5.125	130.625
18	11	28	12	37	25	0.702057656847	0.307081557259	0.57119244938	-1.2490234375	0.158203125	0.0576171875	-108.3125	0.0625	135.9375
18	11	28	12	37	25	0.715725704127	0.3051874911	0.569724008385	-1.37890625	0.138671875	0.03466796875	-126.1875	-4.9375	139.5625
18	11	28	12	37	25	0.730074295172	0.301099949677	0.567469335525	-1.42529296875	0.08349609375	0.05517578125	-141.625	-10.4375	144.6875
18	11	28	12	37	25	0.744368128707	0.296648553138	0.563571212165	-1.3896484375	-0.02197265625	0.1015625	-142.625	-15.9375	152.1875
18	11	28	12	37	25	0.757598980279	0.294689645245	0.55727350064	-1.287109375	-0.10791015625	0.158203125	-124.25	-20.1875	161.5625
18	11	28	12	37	25	0.769018564021	0.297072255821	0.54854907809	-1.1455078125	-0.1220703125	0.1962890625	-94.25	-22.5625	170.75
18	11	28	12	37	25	0.778283842332	0.303659486754	0.538286032902	-1.00341796875	-0.0791015625	0.1826171875	-66.9375	-21.6875	178.4375
18	11	28	12	37	25	0.78554388525	0.312813707219	0.527358132756	-0.90185546875	0.0029296875	0.14697265625	-48.8125	-19.0	181.0
18	11	28	12	37	25	0.791523209847	0.322090374642	0.516308978416	-0.828125	0.11376953125	0.08984375	-45.1875	-17.3125	177.625
18	11	28	12	37	25	0.797289606305	0.328694268102	0.505401771567	-0.7841796875	0.2119140625	0.0283203125	-57.8125	-18.0	167.875
18	11	28	12	37	25	0.803646953851	0.331017577908	0.494542580898	-0.771484375	0.2666015625	-0.01513671875	-78.5625	-21.25	153.5625
18	11	28	12	37	25	0.810832743092	0.328752269971	0.483667468855	-0.77392578125	0.2646484375	-0.03369140625	-98.375	-26.125	137.0625
18	11	28	12	37	25	0.818459191282	0.323196466391	0.472678646975	-0.77587890625	0.2197265625	-0.00341796875	-110.1875	-30.8125	121.4375
18	11	28	12	37	25	0.825785041566	0.316238620767	0.461814592689	-0.79052734375	0.1728515625	0.04052734375	-109.1875	-32.75	108.1875
18	11	28	12	37	25	0.830660882285	0.309155512438	0.455096446346	-0.8193359375	0.1513671875	0.060546875	-89.4375	-31.625	95.0
18	11	28	12	37	25	0.834422255221	0.303592736264	0.449468618788	-0.82373046875	0.0771484375	0.0732421875	-67.0	-32.0625	82.25
18	11	28	12	37	25	0.837377467199	0.300061785025	0.44411097393	-0.7958984375	0.04150390625	0.13916015625	-45.375	-31.25	76.0625
18	11	28	12	37	25	0.838355107273	0.300306307083	0.44063236399	-0.8173828125	0.10009765625	0.18359375	-12.625	-24.9375	63.875
18	11	28	12	37	26	0.837251191525	0.303051116565	0.440568571876	-0.884765625	0.18212890625	0.15087890625	13.125	-17.1875	42.0
18	11	28	12	37	26	0.835936587945	0.304404217896	0.442597750945	-0.93994140625	0.22216796875	0.1435546875	14.1875	-12.125	21.625
18	11	28	12	37	26	0.83426699215	0.304457400998	0.446920026084	-0.99462890625	0.2890625	0.16064453125	16.875	-5.4375	-1.8125
18	11	28	12	37	26	0.831643353969	0.303786346621	0.454733430244	-1.09326171875	0.33740234375	0.16650390625	31.875	2.5	-37.75
18	11	28	12	37	26	0.827666243387	0.301829614569	0.466569377909	-1.21630859375	0.4052734375	0.197265625	47.375	13.5	-80.25
18	11	28	12	37	26	0.824133651108	0.29945191026	0.477072183162	-1.15185546875	0.3818359375	0.25830078125	50.8125	23.1875	-107.8125
18	11	28	12	37	26	0.819289724963	0.29681933491	0.489083555549	-0.9921875	0.2939453125	0.3203125	59.1875	32.8125	-121.5625
18	11	28	12	37	26	0.812360298569	0.296829824325	0.501796830305	-0.92333984375	0.21533203125	0.33984375	87.625	35.25	-134.9375
18	11	28	12	37	26	0.804026042758	0.298244096942	0.514144500315	-0.93896484375	0.26806640625	0.30126953125	104.6875	32.375	-145.4375
18	11	28	12	37	26	0.795312795832	0.297250446332	0.526383541923	-0.9765625	0.32177734375	0.271484375	96.375	31.0625	-157.6875
18	11	28	12	37	26	0.786849058747	0.291642603575	0.538849080026	-1.076171875	0.265625	0.25341796875	72.5625	31.125	-168.375
18	11	28	12	37	26	0.779137049474	0.281441514698	0.55085874434	-1.1982421875	0.1826171875	0.232421875	47.5625	26.5	-175.375
18	11	28	12	37	26	0.77250760412	0.268448833985	0.561374244239	-1.2265625	0.103515625	0.20263671875	26.375	18.125	-170.0
18	11	28	12	37	26	0.767127817359	0.254162971951	0.569791388849	-1.1494140625	-0.0048828125	0.1796875	12.5	8.0625	-158.625
18	11	28	12	37	26	0.761791258846	0.241702859148	0.576180553122	-1.01513671875	-0.13671875	0.24365234375	20.125	3.0	-145.5625
18	11	28	12	37	26	0.754649245201	0.235293824026	0.580879720688	-0.87255859375	-0.201171875	0.30419921875	55.25	7.5625	-130.5
18	11	28	12	37	26	0.744903028363	0.236459712543	0.583885805418	-0.84130859375	-0.1640625	0.27001953125	100.6875	13.625	-117.0
18	11	28	12	37	26	0.734032561687	0.241829121022	0.584857808589	-0.8994140625	-0.04052734375	0.19921875	125.875	11.6875	-108.8125
18	11	28	12	37	26	0.723710165565	0.246892773864	0.584363761923	-0.9423828125	0.11376953125	0.14453125	120.8125	3.9375	-104.9375
18	11	28	12	37	26	0.714561111953	0.248787143788	0.583697609431	-0.97314453125	0.21728515625	0.1396484375	98.125	-2.8125	-105.9375
18	11	28	12	37	26	0.70614661185	0.247142158474	0.583460581094	-0.9892578125	0.2705078125	0.150390625	75.9375	-6.8125	-111.8125
18	11	28	12	37	26	0.697738480823	0.243179958674	0.583839433914	-0.994140625	0.3125	0.169921875	62.125	-6.875	-117.6875
18	11	28	12	37	26	0.689047774937	0.238349859255	0.584430192667	-0.9716796875	0.333984375	0.19140625	56.5	-5.5	-119.75
18	11	28	12	37	26	0.680078307761	0.234078290277	0.584432758644	-0.9384765625	0.3291015625	0.212890625	59.125	-5.0	-117.25
18	11	28	12	37	26	0.670740806805	0.231576178089	0.583213068434	-0.9150390625	0.3203125	0.234375	69.625	-4.625	-111.625
18	11	28	12	37	26	0.66145637701	0.230658267853	0.580521509804	-0.87548828125	0.3173828125	0.234375	78.6875	-6.6875	-103.9375
18	11	28	12	37	26	0.654069102422	0.233404278431	0.575759037248	-0.85498046875	0.30859375	0.21435546875	78.375	-7.75	-96.6875
18	11	28	12	37	26	0.647178311513	0.235787024179	0.571675192458	-0.89208984375	0.2822265625	0.201171875	67.6875	-6.6875	-89.0
18	11	28	12	37	26	0.641007431217	0.237737949399	0.568801014236	-0.9638671875	0.25732421875	0.19287109375	53.1875	-3.6875	-79.6875
18	11	28	12	37	26	0.635456572691	0.239692436938	0.567522352596	-1.07421875	0.21435546875	0.1865234375	38.3125	1.5625	-67.8125
18	11	28	12	37	26	0.630947508047	0.242625166343	0.56752925702	-1.21484375	0.16015625	0.18603515625	25.875	8.5625	-49.75
18	11	28	12	37	26	0.627577211918	0.247930230968	0.568676997028	-1.4140625	0.12451171875	0.1640625	17.1875	17.0	-25.4375
18	11	28	12	37	26	0.626193875241	0.255385044742	0.570954041232	-1.6171875	0.10107421875	0.13330078125	2.8125	23.6875	3.625
18	11	28	12	37	26	0.628245519199	0.262089406338	0.573984344948	-1.53466796875	0.0615234375	0.1416015625	-23.8125	24.1875	34.6875
18	11	28	12	37	26	0.634954450007	0.266664999719	0.576482243614	-1.2197265625	0.0068359375	0.22802734375	-53.5625	20.9375	69.25
18	11	28	12	37	26	0.644246056959	0.270821388415	0.579058488145	-1.046875	-0.0087890625	0.251953125	-71.9375	20.4375	103.0625
18	11	28	12	37	26	0.655786184569	0.275461936984	0.58101532864	-0.98779296875	0.0263671875	0.21728515625	-86.6875	18.5	127.6875
18	11	28	12	37	26	0.669102968156	0.278945499405	0.582794667028	-1.03125	0.07568359375	0.15771484375	-106.875	14.625	143.5625
18	11	28	12	37	26	0.684423243815	0.279677811751	0.584137201758	-1.13916015625	0.11376953125	0.1123046875	-132.8125	5.8125	154.3125
18	11	28	12	37	26	0.701080068725	0.277294685027	0.584742038863	-1.2763671875	0.10546875	0.08642578125	-155.9375	-3.3125	161.1875
18	11	28	12	37	26	0.71804660975	0.273143367786	0.583824874384	-1.40576171875	0.064453125	0.076171875	-165.875	-11.8125	165.75
18	11	28	12	37	26	0.734889708526	0.268442270606	0.580526247325	-1.43798828125	0.0068359375	0.09130859375	-164.5625	-21.875	170.625
18	11	28	12	37	26	0.75075783115	0.265756064783	0.574177147775	-1.38720703125	-0.06103515625	0.154296875	-145.4375	-30.375	176.9375
18	11	28	12	37	26	0.765090923689	0.267339309594	0.564647477866	-1.2470703125	-0.12890625	0.2333984375	-115.0	-35.75	188.375
18	11	28	12	37	26	0.77724965922	0.273996679774	0.552571161059	-1.0869140625	-0.10498046875	0.24755859375	-79.3125	-38.375	196.6875
18	11	28	12	37	26	0.786568727629	0.285647679468	0.539129477081	-0.982421875	-0.03076171875	0.22412109375	-44.4375	-35.6875	201.3125
18	11	28	12	37	26	0.793993772555	0.298846364578	0.525117498869	-0.8974609375	0.06689453125	0.162109375	-30.375	-35.0	199.125
18	11	28	12	37	26	0.800509518018	0.310498811907	0.511068714782	-0.83984375	0.17236328125	0.083984375	-35.3125	-34.875	190.375
18	11	28	12	37	26	0.806819724795	0.318626037481	0.497349607931	-0.8037109375	0.23193359375	0.02685546875	-51.0	-35.5	177.5
18	11	28	12	37	27	0.813453384872	0.32258581369	0.48378716354	-0.79150390625	0.24658203125	-0.01806640625	-69.375	-37.9375	161.9375
18	11	28	12	37	27	0.820337741389	0.323130059741	0.470290349509	-0.7724609375	0.21875	-0.04296875	-81.375	-41.5625	145.9375
18	11	28	12	37	27	0.826736709297	0.322454782962	0.457039828661	-0.75	0.17431640625	-0.03662109375	-79.0	-43.75	130.9375
18	11	28	12	37	27	0.831958679882	0.322467916788	0.444545492706	-0.74462890625	0.1318359375	-0.01416015625	-63.75	-43.625	115.75
18	11	28	12	37	27	0.835543169175	0.324536710534	0.4333056438	-0.74072265625	0.087890625	0.00537109375	-40.125	-41.5625	101.875
18	11	28	12	37	27	0.836209287793	0.328135848991	0.427321257214	-0.732421875	0.0908203125	0.05322265625	-8.5625	-35.375	89.4375
18	11	28	12	37	27	0.83441582068	0.335353366409	0.424227502101	-0.76220703125	0.1298828125	0.064453125	25.375	-26.4375	72.5
18	11	28	12	37	27	0.830676705949	0.34450285314	0.424341572471	-0.8173828125	0.2109375	0.06591796875	49.1875	-17.125	50.25
18	11	28	12	37	27	0.826225541991	0.352623002075	0.427395925312	-0.88671875	0.2734375	0.07177734375	55.875	-9.1875	25.25
18	11	28	12	37	27	0.822620306195	0.357138191849	0.431971796909	-0.890625	0.31396484375	0.13037109375	44.125	-1.8125	2.875
18	11	28	12	37	27	0.819351733424	0.35840534704	0.438790197526	-0.8984375	0.37890625	0.1787109375	34.875	8.5625	-22.75
18	11	28	12	37	27	0.815991113054	0.356206457909	0.448981272169	-0.95947265625	0.42919921875	0.19873046875	30.875	18.625	-58.5625
18	11	28	12	37	27	0.812603606051	0.349810806451	0.462426569477	-1.05712890625	0.4287109375	0.2275390625	25.3125	27.5	-95.0
18	11	28	12	37	27	0.808816989158	0.342180064993	0.476586148317	-1.12646484375	0.41943359375	0.28955078125	27.8125	37.875	-129.3125
18	11	28	12	37	27	0.803728252689	0.332465658596	0.49311365078	-1.0634765625	0.35302734375	0.337890625	29.875	49.0	-154.0
18	11	28	12	37	27	0.796498558242	0.322164103793	0.511629313755	-0.99267578125	0.28955078125	0.37744140625	38.3125	61.75	-169.6875
18	11	28	12	37	27	0.78733096578	0.312026970856	0.530726625898	-0.99267578125	0.2685546875	0.3515625	50.25	65.0625	-184.1875
18	11	28	12	37	27	0.777897974214	0.300379467287	0.548569451841	-1.05517578125	0.25048828125	0.279296875	47.8125	56.875	-192.875
18	11	28	12	37	27	0.769384995922	0.287184165475	0.563625628904	-1.16455078125	0.103515625	0.2314453125	39.0625	40.8125	-189.5
18	11	28	12	37	27	0.762296196313	0.27381381509	0.574850314427	-1.24658203125	-0.07421875	0.244140625	36.375	20.8125	-178.0
18	11	28	12	37	27	0.755045615548	0.262038062049	0.583771727333	-1.25341796875	-0.13720703125	0.234375	44.0	12.3125	-168.125
18	11	28	12	37	27	0.746354331232	0.253240441632	0.590894363809	-1.24560546875	-0.22802734375	0.26171875	68.6875	9.4375	-166.0625
18	11	28	12	37	27	0.735887797806	0.249650057484	0.595131555126	-1.20068359375	-0.2490234375	0.2646484375	107.3125	3.5625	-161.3125
18	11	28	12	37	27	0.723775861486	0.251655243456	0.595781428906	-1.0771484375	-0.2294921875	0.294921875	148.0	-2.9375	-153.75
18	11	28	12	37	27	0.71049052433	0.260513192254	0.591465049893	-1.07373046875	-0.1865234375	0.3056640625	191.6875	-13.0	-134.8125
18	11	28	12	37	27	0.696549921948	0.274725832342	0.582960769763	-0.96142578125	-0.03125	0.18408203125	218.3125	-19.875	-111.5625
18	11	28	12	37	27	0.683520673436	0.288874305507	0.572621748208	-0.95458984375	0.140625	0.09130859375	205.625	-25.5	-94.5625
18	11	28	12	37	27	0.673255648909	0.298905975767	0.561982299139	-0.97705078125	0.228515625	0.05908203125	168.0	-36.0	-82.8125
18	11	28	12	37	27	0.665232324881	0.305180440812	0.551949345252	-0.95263671875	0.26220703125	0.0517578125	133.625	-41.75	-75.1875
18	11	28	12	37	27	0.658023385213	0.308290151073	0.543337740021	-0.943359375	0.30517578125	0.05810546875	109.0625	-41.75	-77.1875
18	11	28	12	37	27	0.651086161508	0.312389516696	0.535847512129	-0.95751953125	0.34765625	0.05126953125	93.0	-38.375	-83.0
18	11	28	12	37	27	0.644138982694	0.314775394082	0.529874965296	-0.9501953125	0.400390625	0.05078125	77.0625	-34.8125	-90.1875
18	11	28	12	37	27	0.637036059783	0.315374659471	0.525156487341	-0.93896484375	0.41162109375	0.087890625	64.375	-31.25	-96.875
18	11	28	12	37	27	0.629223311346	0.315618754774	0.520761789931	-0.9375	0.37548828125	0.12939453125	64.375	-26.6875	-99.875
18	11	28	12	37	27	0.620364599408	0.316896202295	0.515871860901	-0.927734375	0.345703125	0.1533203125	73.125	-22.6875	-99.5
18	11	28	12	37	27	0.610798893908	0.319346438786	0.510270685827	-0.92919921875	0.33154296875	0.17431640625	80.6875	-18.875	-97.0625
18	11	28	12	37	27	0.600791427968	0.323010081967	0.504901624723	-0.9638671875	0.33544921875	0.171875	80.6875	-12.5625	-92.4375
18	11	28	12	37	27	0.591677659096	0.326539661251	0.500917943903	-1.0087890625	0.3173828125	0.173828125	66.9375	-6.6875	-82.875
18	11	28	12	37	27	0.584718265014	0.329224459445	0.498902619857	-1.0361328125	0.27490234375	0.197265625	42.875	-0.375	-66.625
18	11	28	12	37	27	0.580025383992	0.33276843034	0.498725393307	-1.146484375	0.2216796875	0.21630859375	22.5625	10.3125	-42.625
18	11	28	12	37	27	0.577722010585	0.338454152001	0.500448258298	-1.33740234375	0.1826171875	0.19873046875	4.5625	23.125	-12.6875
18	11	28	12	37	27	0.57832389977	0.345712566575	0.504347270058	-1.49951171875	0.14892578125	0.162109375	-19.0625	35.0	18.6875
18	11	28	12	37	27	0.582844991359	0.351757847439	0.510332702141	-1.458984375	0.04638671875	0.15576171875	-51.625	40.625	51.6875
18	11	28	12	37	27	0.59187412303	0.355966782047	0.51600534558	-1.20849609375	-0.05078125	0.25341796875	-77.3125	42.25	85.375
18	11	28	12	37	27	0.602998229979	0.361530369083	0.520108099773	-1.0439453125	-0.00048828125	0.27099609375	-80.625	42.5	112.9375
18	11	28	12	37	27	0.615944178622	0.36739352008	0.523653266118	-0.98046875	0.099609375	0.2109375	-91.75	42.4375	130.6875
18	11	28	12	37	27	0.631065897079	0.370680258532	0.527729543103	-1.01513671875	0.150390625	0.14990234375	-117.375	37.625	140.25
18	11	28	12	37	27	0.648025739233	0.370553288394	0.53217824436	-1.08642578125	0.16162109375	0.11572265625	-143.75	30.8125	144.875
18	11	28	12	37	27	0.665666321556	0.36792926704	0.536512650511	-1.1943359375	0.150390625	0.08056640625	-160.625	26.3125	148.1875
18	11	28	12	37	27	0.683791784218	0.36322814495	0.539867743587	-1.30078125	0.13623046875	0.05126953125	-172.375	19.1875	152.75
18	11	28	12	37	27	0.702909650839	0.356765101525	0.540976748471	-1.30859375	0.1044921875	0.0908203125	-181.6875	7.9375	161.0
18	11	28	12	37	28	0.722092554036	0.350486512703	0.538853175573	-1.2294921875	0.0419921875	0.18212890625	-176.9375	-2.5	172.6875
18	11	28	12	37	28	0.73952832405	0.347302423559	0.533100064564	-1.11669921875	-0.00732421875	0.236328125	-149.75	-9.5625	181.6875
18	11	28	12	37	28	0.754121553792	0.348464585237	0.524436454082	-1.0380859375	-0.005859375	0.228515625	-113.0	-13.875	185.625
18	11	28	12	37	28	0.766324708107	0.352735204154	0.513812934516	-0.974609375	0.0458984375	0.1806640625	-85.9375	-17.5	185.5625
18	11	28	12	37	28	0.776708318297	0.358109839171	0.502403628126	-0.91015625	0.119140625	0.1064453125	-72.8125	-19.3125	181.1875
18	11	28	12	37	28	0.785907640893	0.362496542347	0.491039683985	-0.87451171875	0.18701171875	0.03564453125	-71.375	-20.5	170.1875
18	11	28	12	37	28	0.794710756793	0.364150873658	0.480122489473	-0.86865234375	0.2490234375	-0.02685546875	-79.8125	-22.875	154.8125
18	11	28	12	37	28	0.803666205737	0.362312037461	0.469614018906	-0.869140625	0.265625	-0.06298828125	-92.75	-26.9375	137.75
18	11	28	12	37	28	0.812668109663	0.357625240688	0.459376610585	-0.8564453125	0.23388671875	-0.07373046875	-100.25	-31.4375	120.6875
18	11	28	12	37	28	0.821044598171	0.352015775604	0.449374048898	-0.8466796875	0.18359375	-0.05615234375	-95.3125	-34.75	104.4375
18	11	28	12	37	28	0.826378583666	0.346445442122	0.443860333881	-0.84716796875	0.146484375	-0.03125	-76.6875	-35.25	88.4375
18	11	28	12	37	28	0.829879143739	0.343097283536	0.439660155366	-0.87255859375	0.1259765625	0.00341796875	-49.1875	-33.5625	71.6875
18	11	28	12	37	28	0.831102139633	0.342793009414	0.437402903394	-0.91455078125	0.14111328125	0.02197265625	-17.25	-29.125	53.875
18	11	28	12	37	28	0.830192941027	0.34517616951	0.437284187157	-0.9521484375	0.16455078125	0.03173828125	11.625	-23.3125	34.5
18	11	28	12	37	28	0.827965166736	0.348581575174	0.438977182393	-0.9599609375	0.1552734375	0.0556640625	29.3125	-17.4375	17.375
18	11	28	12	37	28	0.824894941103	0.352262002746	0.4419908442	-0.927734375	0.18603515625	0.1201171875	39.4375	-8.0625	3.625
18	11	28	12	37	28	0.820568472271	0.355901127775	0.447211038108	-0.931640625	0.2353515625	0.14453125	47.0625	3.3125	-13.5625
18	11	28	12	37	28	0.815404062612	0.358047775379	0.454792699343	-0.994140625	0.22900390625	0.15771484375	50.0625	11.5	-33.75
18	11	28	12	37	28	0.809662341493	0.358656307472	0.464007019979	-1.0625	0.24169921875	0.1748046875	50.875	15.8125	-52.3125
18	11	28	12	37	28	0.803736159123	0.357249980205	0.474258046505	-1.08642578125	0.23388671875	0.228515625	49.4375	21.1875	-70.0
18	11	28	12	37	28	0.797107830595	0.354758458643	0.485503919485	-1.06982421875	0.244140625	0.2685546875	50.9375	28.5	-85.125
18	11	28	12	37	28	0.790092919834	0.351342308912	0.496982119382	-1.00341796875	0.2451171875	0.28125	49.375	32.8125	-96.3125
18	11	28	12	37	28	0.783104262079	0.348093811897	0.507461327742	-0.9619140625	0.23828125	0.2958984375	44.4375	32.375	-105.8125
18	11	28	12	37	28	0.776053583434	0.343284989243	0.517979448563	-0.947265625	0.25244140625	0.30078125	40.25	30.3125	-115.5625
18	11	28	12	37	28	0.768749547588	0.336797142008	0.528755643569	-0.974609375	0.22509765625	0.302734375	36.0	29.375	-126.1875
18	11	28	12	37	28	0.760539751767	0.329119610075	0.54006867766	-1.07177734375	0.1767578125	0.3076171875	36.6875	30.875	-137.3125
18	11	28	12	37	28	0.751126872431	0.321179067344	0.551534407548	-1.203125	0.12939453125	0.2919921875	42.1875	32.3125	-145.125
18	11	28	12	37	28	0.740970567496	0.313722299582	0.562136649641	-1.29345703125	0.08447265625	0.2666015625	48.1875	29.5625	-145.25
18	11	28	12	37	28	0.731060734008	0.306902677682	0.570650981234	-1.26904296875	0.04345703125	0.25244140625	53.1875	20.5	-140.5
18	11	28	12	37	28	0.721939800858	0.300971014375	0.576611878484	-1.1376953125	0.03369140625	0.27294921875	57.6875	9.875	-131.8125
18	11	28	12	37	28	0.713576337328	0.296209559922	0.580333916287	-0.9775390625	0.0498046875	0.28955078125	60.4375	2.0	-120.625
18	11	28	12	37	28	0.706083098639	0.291881861834	0.582604009034	-0.84814453125	0.0634765625	0.27978515625	57.6875	-3.125	-109.6875
18	11	28	12	37	28	0.700329389213	0.287236369674	0.583139880123	-0.794921875	0.06982421875	0.259765625	49.8125	-6.375	-99.0625
18	11	28	12	37	28	0.69557819352	0.282784641153	0.583147951991	-0.77587890625	0.095703125	0.23681640625	39.9375	-8.875	-88.5625
18	11	28	12	37	28	0.691649490106	0.278258915054	0.582946018355	-0.7841796875	0.13134765625	0.20947265625	30.75	-11.3125	-82.0625
18	11	28	12	37	28	0.688437878465	0.273446377828	0.582721555609	-0.8134765625	0.16943359375	0.20166015625	21.5625	-12.8125	-78.4375
18	11	28	12	37	28	0.685613577749	0.268617943174	0.582402275339	-0.841796875	0.20068359375	0.19384765625	17.125	-13.75	-76.8125
18	11	28	12	37	28	0.682609469786	0.264523376435	0.581841566119	-0.87548828125	0.2333984375	0.18994140625	18.9375	-13.625	-77.1875
18	11	28	12	37	28	0.679098490495	0.261360752858	0.581072948904	-0.92041015625	0.251953125	0.1875	24.25	-12.4375	-78.1875
18	11	28	12	37	28	0.675068622615	0.259529094336	0.57978994993	-0.9609375	0.25146484375	0.1962890625	32.8125	-10.8125	-77.4375
18	11	28	12	37	28	0.670673662672	0.259345867555	0.577714435493	-0.97314453125	0.26318359375	0.203125	41.625	-9.3125	-74.5
18	11	28	12	37	28	0.666226042937	0.260447688979	0.575157856399	-0.984375	0.267578125	0.216796875	46.375	-7.4375	-69.1875
18	11	28	12	37	28	0.661858280147	0.262448414296	0.572564784771	-1.02099609375	0.26171875	0.21240234375	46.125	-5.4375	-62.6875
18	11	28	12	37	28	0.657901639021	0.264527850776	0.570559840576	-1.08203125	0.2431640625	0.21240234375	38.875	-2.6875	-55.125
18	11	28	12	37	28	0.654724574755	0.266540712031	0.569397367194	-1.11865234375	0.22802734375	0.2041015625	27.0	0.25	-45.125
18	11	28	12	37	28	0.652780622434	0.268070359395	0.569283297377	-1.13232421875	0.2265625	0.1982421875	11.0	3.3125	-34.0
18	11	28	12	37	28	0.651582998499	0.269300626639	0.570829433439	-1.240234375	0.212890625	0.17919921875	-5.3125	8.6875	-23.375
18	11	28	12	37	28	0.651444896346	0.270331626152	0.573501006846	-1.30419921875	0.1806640625	0.16650390625	-20.0625	12.1875	-9.75
18	11	28	12	37	28	0.652710942064	0.27160685358	0.576905164053	-1.4208984375	0.15380859375	0.15576171875	-33.6875	15.3125	7.75
18	11	28	12	37	29	0.656088669564	0.272592054914	0.580402563856	-1.39697265625	0.09033203125	0.15771484375	-49.125	14.6875	30.875
18	11	28	12	37	29	0.662585250064	0.272847173449	0.582867485293	-1.20556640625	-0.00244140625	0.21923828125	-65.25	11.9375	60.375
18	11	28	12	37	29	0.670988046481	0.27521923966	0.583398867303	-1.0849609375	-0.02587890625	0.248046875	-64.6875	11.0	89.4375
18	11	28	12	37	29	0.680118764458	0.279115418637	0.58343850574	-1.046875	0.048828125	0.21337890625	-68.125	10.5	109.1875
18	11	28	12	37	29	0.690687193756	0.281438551645	0.58356842166	-1.07666015625	0.11279296875	0.15283203125	-88.625	7.9375	120.1875
18	11	28	12	37	29	0.702950402721	0.280398901632	0.58393040747	-1.1669921875	0.1357421875	0.09130859375	-116.8125	0.9375	126.25
18	11	28	12	37	29	0.716684724616	0.275760652854	0.583748314276	-1.27099609375	0.13134765625	0.0517578125	-141.25	-9.0	128.3125
18	11	28	12	37	29	0.731170031261	0.268504630396	0.582421273754	-1.3359375	0.078125	0.02734375	-155.1875	-19.4375	129.375
18	11	28	12	37	29	0.74579998904	0.260379961801	0.579171462149	-1.3193359375	0.0068359375	0.05126953125	-156.25	-28.6875	131.625
18	11	28	12	37	29	0.759557011877	0.254284354828	0.573635229638	-1.234375	-0.05224609375	0.103515625	-139.0625	-34.4375	137.3125
18	11	28	12	37	29	0.771886888575	0.252636393469	0.565639395574	-1.0771484375	-0.0986328125	0.15966796875	-110.0	-37.1875	147.9375
18	11	28	12	37	29	0.782337269922	0.256119777217	0.55569934504	-0.92919921875	-0.09130859375	0.18701171875	-76.25	-37.375	157.25
18	11	28	12	37	29	0.79062431539	0.264294239608	0.54464145497	-0.82763671875	-0.04248046875	0.17822265625	-45.375	-35.625	163.25
18	11	28	12	37	29	0.797147171216	0.275156159865	0.533038763111	-0.78173828125	0.044921875	0.13720703125	-25.8125	-33.5625	164.0
18	11	28	12	37	29	0.802345772747	0.286207632439	0.52169260705	-0.765625	0.14990234375	0.07080078125	-21.1875	-31.4375	158.1875
18	11	28	12	37	29	0.807179692711	0.294757315192	0.510835363604	-0.7802734375	0.23291015625	0.009765625	-31.1875	-30.8125	146.25
18	11	28	12	37	29	0.81240522263	0.299326462192	0.500383021421	-0.81103515625	0.2724609375	-0.03955078125	-48.875	-32.8125	130.5625
18	11	28	12	37	29	0.818263351032	0.299875268061	0.49018894317	-0.82958984375	0.26025390625	-0.060546875	-65.4375	-36.5625	114.25
18	11	28	12	37	29	0.822803517716	0.297259134368	0.48336654724	-0.84130859375	0.20849609375	-0.04150390625	-72.3125	-39.9375	98.875
18	11	28	12	37	29	0.827005921516	0.293959740056	0.477135234223	-0.8427734375	0.1572265625	-0.0087890625	-64.6875	-40.1875	85.875
18	11	28	12	37	29	0.830080918759	0.291953602061	0.472021159259	-0.84765625	0.1064453125	0.02685546875	-43.6875	-37.25	73.5
18	11	28	12	37	29	0.831708886618	0.292190697214	0.468286406732	-0.8447265625	0.0751953125	0.06396484375	-18.3125	-32.125	62.25
18	11	28	12	37	29	0.831325917416	0.295480819839	0.466628974937	-0.85205078125	0.09765625	0.087890625	11.125	-23.3125	49.1875
18	11	28	12	37	29	0.829167888944	0.300416956156	0.467532280405	-0.8994140625	0.13623046875	0.0986328125	31.9375	-13.75	32.25
18	11	28	12	37	29	0.826449628723	0.304211591548	0.470356044235	-0.94580078125	0.173828125	0.13525390625	34.625	-4.875	15.9375
18	11	28	12	37	29	0.823306625805	0.306359427262	0.475012764088	-0.9560546875	0.23486328125	0.17529296875	31.1875	6.25	0.5
18	11	28	12	37	29	0.819548372672	0.306224337953	0.482256028337	-0.9931640625	0.291015625	0.1943359375	27.4375	18.125	-22.625
18	11	28	12	37	29	0.815226677408	0.302810687827	0.492456486473	-1.0791015625	0.33544921875	0.2080078125	21.75	29.1875	-52.0625
18	11	28	12	37	29	0.810201152097	0.296150067047	0.50538387369	-1.16650390625	0.3583984375	0.232421875	17.875	40.0625	-81.125
18	11	28	12	37	29	0.804946500619	0.288274364758	0.518564260635	-1.18359375	0.32470703125	0.267578125	15.625	50.875	-105.9375
18	11	28	12	37	29	0.798756811126	0.278643194467	0.533175970135	-1.09375	0.2451171875	0.3017578125	13.5	60.125	-118.9375
18	11	28	12	37	29	0.791251767705	0.269610357012	0.548254522682	-1.05126953125	0.138671875	0.31689453125	23.8125	64.0625	-125.75
18	11	28	12	37	29	0.783117509159	0.262402351666	0.562037881865	-1.017578125	0.09619140625	0.341796875	39.625	58.8125	-126.9375
18	11	28	12	37	29	0.77511815852	0.255870172495	0.574120907082	-1.01171875	0.1220703125	0.34912109375	44.1875	50.75	-125.125
18	11	28	12	37	29	0.767562634187	0.248549904287	0.58499564899	-1.07763671875	0.076171875	0.333984375	37.5	44.5625	-121.6875
18	11	28	12	37	29	0.760968523916	0.240003869098	0.594394119347	-1.15673828125	0.02001953125	0.3134765625	26.625	36.625	-116.625
18	11	28	12	37	29	0.755393548878	0.230719749092	0.602068678582	-1.12939453125	-0.0107421875	0.26708984375	21.125	25.0	-114.4375
18	11	28	12	37	29	0.750282708712	0.222728734469	0.60763621585	-1.06640625	-0.08251953125	0.2744140625	31.9375	13.8125	-112.6875
18	11	28	12	37	29	0.744474379657	0.218636322697	0.611412631059	-0.93359375	-0.1484375	0.27490234375	58.5	9.3125	-105.9375
18	11	28	12	37	29	0.739212750829	0.217717106945	0.61121926239	-0.85595703125	-0.15185546875	0.3271484375	95.3125	-1.8125	-98.1875
18	11	28	12	37	29	0.732377992996	0.225163965011	0.608656833583	-0.8046875	-0.06884765625	0.275390625	132.6875	-8.6875	-83.8125
18	11	28	12	37	29	0.724467069198	0.236158319212	0.604770386857	-0.75634765625	0.107421875	0.1787109375	149.8125	-7.625	-74.1875
18	11	28	12	37	29	0.717626714816	0.24458027101	0.600494311505	-0.80908203125	0.236328125	0.13623046875	127.75	-13.375	-71.25
18	11	28	12	37	29	0.714193867739	0.249580268796	0.594500322346	-0.83935546875	0.30712890625	0.1484375	93.5625	-30.375	-74.0
18	11	28	12	37	29	0.712788156698	0.249274433289	0.589371676749	-0.8837890625	0.35546875	0.1875	54.9375	-35.75	-79.5
18	11	28	12	37	29	0.712147916879	0.245500893262	0.585918218404	-0.904296875	0.35986328125	0.236328125	25.75	-30.5	-81.5625
18	11	28	12	37	29	0.709813391621	0.242321709927	0.584013632387	-0.8955078125	0.3505859375	0.21484375	27.5625	-19.375	-85.0625
18	11	28	12	37	29	0.705725535063	0.240063875575	0.583282581998	-0.92529296875	0.35009765625	0.185546875	33.1875	-10.5625	-90.125
18	11	28	12	37	29	0.701069950241	0.237616691301	0.583512861249	-0.947265625	0.32275390625	0.18603515625	28.5	-4.375	-88.75
18	11	28	12	37	29	0.696021188904	0.235303138054	0.58456502027	-0.947265625	0.27392578125	0.1884765625	24.6875	1.9375	-83.875
18	11	28	12	37	30	0.690902173667	0.232498134066	0.58658626106	-0.9794921875	0.2275390625	0.18310546875	16.375	6.8125	-78.8125
