18	12	03	11	18	31	-0.0333854692052	-0.571520171184	0.0130001918477	-1.0	-0.0068359375	0.14990234375	20.25	-56.8125	-11.9375
18	12	03	11	18	31	-0.0270387516503	-0.565921682396	0.016113386988	-1.03369140625	-0.03759765625	0.18310546875	35.5625	-54.8125	-13.375
18	12	03	11	18	31	-0.0183108416607	-0.560861080068	0.0223392268261	-1.00390625	-0.03369140625	0.21337890625	58.3125	-49.3125	-14.875
18	12	03	11	18	31	-0.0079348394127	-0.556476391735	0.0314952087458	-0.90673828125	-0.009765625	0.23779296875	77.1875	-41.0625	-15.125
18	12	03	11	18	31	0.00305182385533	-0.552807373154	0.0422372421577	-0.8017578125	0.0244140625	0.26806640625	86.0	-30.75	-15.4375
18	12	03	11	18	31	0.0136719531044	-0.550357147958	0.0529788182797	-0.73291015625	0.0654296875	0.2890625	84.3125	-18.3125	-16.6875
18	12	03	11	18	31	0.023010383773	-0.549563648519	0.0620120687356	-0.70361328125	0.1103515625	0.30615234375	71.6875	-4.3125	-19.0625
18	12	03	11	18	31	0.0307619324744	-0.550846112265	0.0682377787825	-0.70849609375	0.1318359375	0.3193359375	52.25	10.875	-22.625
18	12	03	11	18	31	0.0369871171588	-0.554318478608	0.0712276662118	-0.74072265625	0.12451171875	0.34326171875	33.125	26.1875	-26.0
18	12	03	11	18	31	0.0418717715138	-0.55989760947	0.0719022548736	-0.75537109375	0.1171875	0.34814453125	18.0	41.0625	-28.1875
18	12	03	11	18	31	0.0455942639407	-0.567517357591	0.0707413010807	-0.77197265625	0.12158203125	0.3486328125	5.3125	55.25	-30.4375
18	12	03	11	18	31	0.0482776469679	-0.576707315044	0.0675032585923	-0.7958984375	0.12158203125	0.34912109375	-7.9375	66.8125	-33.6875
18	12	03	11	18	31	0.0501120988495	-0.587184398212	0.0620144852997	-0.833984375	0.103515625	0.34228515625	-21.0	75.5625	-37.0
18	12	03	11	18	31	0.0513311137859	-0.598456088788	0.0549932622129	-0.86767578125	0.07763671875	0.34228515625	-29.5625	82.4375	-39.4375
18	12	03	11	18	31	0.0525514834099	-0.610170940359	0.0469972615861	-0.912109375	0.0439453125	0.33447265625	-33.5	86.5625	-41.5625
18	12	03	11	18	31	0.0544450557169	-0.621662435512	0.0389416429904	-0.94677734375	-0.00439453125	0.32373046875	-31.3125	86.625	-42.5625
18	12	03	11	18	31	0.0570664706798	-0.632247668205	0.0316154350932	-0.95361328125	-0.0556640625	0.32080078125	-24.4375	83.1875	-40.75
18	12	03	11	18	31	0.0603034804355	-0.642036751722	0.025757154599	-0.97216796875	-0.0771484375	0.31884765625	-15.6875	80.625	-37.25
18	12	03	11	18	31	0.0636613361526	-0.65132321964	0.0215459747477	-1.03466796875	-0.06298828125	0.326171875	-8.6875	79.75	-33.9375
18	12	03	11	18	31	0.0665297664903	-0.660109563847	0.0179447260075	-1.10595703125	-0.029296875	0.3251953125	-8.3125	78.4375	-32.5
18	12	03	11	18	31	0.0686029495489	-0.668024272965	0.0139769354508	-1.140625	-0.037109375	0.326171875	-12.8125	73.375	-30.6875
18	12	03	11	18	31	0.0698264161793	-0.674581775886	0.00976593233277	-1.14501953125	-0.0537109375	0.32958984375	-16.625	65.0625	-27.0625
18	12	03	11	18	31	0.070069568213	-0.679760262359	0.00610362092447	-1.1455078125	-0.0556640625	0.34130859375	-18.0	56.625	-20.375
18	12	03	11	18	31	0.0690906770114	-0.684009909246	0.0036010158513	-1.18212890625	-0.01708984375	0.35009765625	-18.25	51.0	-13.75
18	12	03	11	18	31	0.0663451392144	-0.687438181207	0.0014038069935	-1.1884765625	0.04345703125	0.3349609375	-23.5625	44.1875	-9.25
18	12	03	11	18	31	0.0614036468022	-0.689722871635	-0.00201423493486	-1.18212890625	0.07568359375	0.3134765625	-36.8125	32.875	-6.3125
18	12	03	11	18	31	0.0541999007065	-0.690438374766	-0.00714120313363	-1.15771484375	0.0654296875	0.2646484375	-51.6875	16.5	-2.5625
18	12	03	11	18	31	0.0457768346181	-0.688971878892	-0.0136109788264	-1.1015625	-0.00146484375	0.21142578125	-60.9375	-5.125	3.5
18	12	03	11	18	31	0.0356437955043	-0.684861351633	-0.0200801519194	-1.060546875	-0.009765625	0.18896484375	-66.3125	-28.0	11.5625
18	12	03	11	18	31	0.0227661078958	-0.678771812089	-0.0264282164045	-1.0986328125	0.076171875	0.16259765625	-76.25	-46.1875	18.4375
18	12	03	11	18	31	0.00634758411648	-0.671440123705	-0.0345455058647	-1.1943359375	0.16015625	0.1318359375	-97.5	-59.6875	21.125
18	12	03	11	18	31	-0.0111083708358	-0.662168764822	-0.0469359185315	-1.28515625	0.1513671875	0.103515625	-118.3125	-73.625	21.0
18	12	03	11	18	31	-0.0288086638841	-0.650392208367	-0.0595094222183	-1.33642578125	0.01806640625	0.09912109375	-119.5625	-89.875	22.5625
18	12	03	11	18	31	-0.0443723828802	-0.636411054046	-0.0677487551541	-1.33544921875	-0.10400390625	0.11328125	-92.3125	-105.75	31.0
18	12	03	11	18	31	-0.0568860429692	-0.620619404411	-0.0688492022202	-1.2890625	-0.16845703125	0.1015625	-49.1875	-120.625	44.0625
18	12	03	11	18	31	-0.0670773589748	-0.603391056255	-0.0623166364998	-1.22314453125	-0.16455078125	0.08251953125	-6.9375	-133.875	60.0
18	12	03	11	18	31	-0.0766010999575	-0.584792939197	-0.0502942680199	-1.14306640625	-0.1201171875	0.05712890625	20.125	-145.5625	75.1875
18	12	03	11	18	31	-0.0870975185523	-0.564577467841	-0.0353394977167	-1.0693359375	-0.0703125	0.05224609375	29.375	-155.75	88.1875
18	12	03	11	18	31	-0.0992430222792	-0.542906939221	-0.0195922571658	-1.005859375	-0.02099609375	0.04736328125	27.125	-162.8125	98.4375
18	12	03	11	18	31	-0.113589895285	-0.519974378254	-0.00451673952234	-0.93505859375	0.03466796875	0.0673828125	15.625	-166.625	107.125
18	12	03	11	18	31	-0.130130358702	-0.495984659857	0.0086061822594	-0.896484375	0.09130859375	0.09375	-1.5625	-167.375	111.6875
18	12	03	11	18	31	-0.148195961318	-0.471321751769	0.0188601944181	-0.865234375	0.1328125	0.15185546875	-20.5625	-164.875	111.75
18	12	03	11	18	31	-0.166571205114	-0.446733107451	0.0261850666889	-0.8515625	0.16552734375	0.2021484375	-36.1875	-158.3125	106.875
18	12	03	11	18	31	-0.184148024573	-0.422618800843	0.0308846206278	-0.80859375	0.16455078125	0.26953125	-46.1875	-149.9375	97.25
18	12	03	11	18	31	-0.20001690582	-0.399484482328	0.0341194538765	-0.748046875	0.13720703125	0.31640625	-48.0625	-140.5	85.9375
18	12	03	11	18	32	-0.213256196413	-0.378111659067	0.037475473554	-0.70166015625	0.11669921875	0.37451171875	-38.75	-129.0625	74.25
18	12	03	11	18	32	-0.223763609778	-0.359389016468	0.04168863761	-0.669921875	0.12109375	0.41064453125	-25.0625	-114.125	62.8125
18	12	03	11	18	32	-0.231209883469	-0.346082375732	0.045778092028	-0.6474609375	0.1416015625	0.42236328125	-12.0625	-95.3125	51.3125
18	12	03	11	18	32	-0.23644728241	-0.336421636717	0.0493768331104	-0.646484375	0.16162109375	0.4404296875	-6.0625	-74.1875	38.5
18	12	03	11	18	32	-0.239628357463	-0.33051134887	0.0509042409894	-0.65673828125	0.173828125	0.47119140625	-7.6875	-51.4375	24.0625
18	12	03	11	18	32	-0.24066215812	-0.328491943951	0.0494996221748	-0.6904296875	0.1806640625	0.48486328125	-13.6875	-27.25	7.4375
18	12	03	11	18	32	-0.239499613327	-0.330380073125	0.0447993670189	-0.71826171875	0.14599609375	0.48193359375	-19.6875	-3.3125	-9.25
18	12	03	11	18	32	-0.236019314906	-0.33593232719	0.0376581115328	-0.73583984375	0.080078125	0.4736328125	-19.8125	19.25	-23.5
18	12	03	11	18	32	-0.230476586075	-0.344921395103	0.0302134295834	-0.7353515625	0.04443359375	0.48779296875	-10.75	40.8125	-33.875
18	12	03	11	18	32	-0.222909029452	-0.358168177663	0.023743595963	-0.7783203125	0.1064453125	0.501953125	0.6875	64.25	-44.5
18	12	03	11	18	32	-0.212954865585	-0.375799113615	0.0166628484679	-0.82177734375	0.16943359375	0.47412109375	4.4375	89.6875	-59.4375
18	12	03	11	18	32	-0.201051935538	-0.39459646729	0.00781258280171	-0.89111328125	0.16162109375	0.4677734375	2.875	113.0625	-75.625
18	12	03	11	18	32	-0.186524124714	-0.416932688457	-0.00207520295821	-0.97509765625	0.1357421875	0.4580078125	7.5	136.125	-89.1875
18	12	03	11	18	32	-0.16937670953	-0.442454690948	-0.0114748905915	-1.00146484375	0.07275390625	0.40087890625	20.375	156.5625	-98.625
18	12	03	11	18	32	-0.149968973053	-0.469255785442	-0.0189826416848	-0.9638671875	-0.0263671875	0.3388671875	37.375	166.25	-103.1875
18	12	03	11	18	32	-0.128660081489	-0.495719725737	-0.0238643699536	-0.9482421875	-0.08642578125	0.28955078125	55.8125	165.25	-104.0
18	12	03	11	18	32	-0.105835671412	-0.520999591218	-0.026245293372	-0.994140625	-0.08447265625	0.21923828125	70.8125	158.9375	-104.5625
18	12	03	11	18	32	-0.0828240413511	-0.544185079356	-0.0277707728922	-1.01953125	-0.087890625	0.162109375	74.1875	148.375	-103.25
18	12	03	11	18	32	-0.0610942762335	-0.564801630634	-0.0297842225794	-1.021484375	-0.10595703125	0.13671875	66.875	136.25	-99.4375
18	12	03	11	18	32	-0.041138450472	-0.583323696084	-0.0321050815256	-1.03759765625	-0.14111328125	0.12255859375	58.6875	126.3125	-92.25
18	12	03	11	18	32	-0.0228271795189	-0.600098473341	-0.0336914521241	-1.08203125	-0.1474609375	0.12255859375	56.1875	117.25	-82.5
18	12	03	11	18	32	-0.0056762127029	-0.615167180994	-0.0338131380366	-1.1318359375	-0.10546875	0.14013671875	58.625	108.625	-74.0
18	12	03	11	18	32	0.0106202822483	-0.629038096843	-0.0324712077935	-1.1455078125	-0.046875	0.17431640625	61.6875	99.9375	-67.6875
18	12	03	11	18	32	0.0259400506998	-0.641054947058	-0.0296632109179	-1.162109375	0.0087890625	0.21435546875	63.5625	93.5625	-63.6875
18	12	03	11	18	32	0.0409558941313	-0.651571042999	-0.0257576562197	-1.17578125	0.02294921875	0.23583984375	67.125	88.0625	-60.375
18	12	03	11	18	32	0.0563980827275	-0.660419107264	-0.0205083937191	-1.14794921875	0.00634765625	0.2939453125	74.9375	84.0625	-57.0625
18	12	03	11	18	32	0.0726334618753	-0.66792266664	-0.0134280349685	-1.080078125	0.013671875	0.33251953125	85.5625	81.6875	-54.25
18	12	03	11	18	32	0.0888658849885	-0.674489625692	-0.00500480945677	-1.04541015625	0.05322265625	0.36181640625	90.875	80.75	-52.0
18	12	03	11	18	32	0.103637513469	-0.680601833153	0.00317382255618	-1.02734375	0.10498046875	0.37060546875	84.0625	80.375	-51.0625
18	12	03	11	18	32	0.115909071474	-0.686482004671	0.00891138727501	-1.00146484375	0.123046875	0.36376953125	63.9375	78.3125	-51.6875
18	12	03	11	18	32	0.125306195514	-0.691961197538	0.0115967740612	-0.9658203125	0.10107421875	0.376953125	40.1875	74.4375	-50.5625
18	12	03	11	18	32	0.132077510507	-0.697007934375	0.0116574882194	-0.91455078125	0.06640625	0.38134765625	19.375	69.375	-47.3125
18	12	03	11	18	32	0.136477338334	-0.70155211396	0.0100710021579	-0.86767578125	0.03125	0.38134765625	3.0625	63.5625	-41.4375
18	12	03	11	18	32	0.138554009857	-0.705465747106	0.00750755207596	-0.85107421875	0.0	0.37158203125	-9.375	56.375	-33.4375
18	12	03	11	18	32	0.137814437475	-0.708664053819	0.00451650503683	-0.8857421875	0.01513671875	0.3720703125	-22.375	48.75	-24.5625
18	12	03	11	18	32	0.133732046308	-0.711325087941	0.000610369905561	-0.9453125	0.04541015625	0.35595703125	-38.6875	40.5	-17.1875
18	12	03	11	18	32	0.126584292905	-0.713242066968	-0.00451650804002	-1.01953125	0.05126953125	0.34375	-55.6875	31.1875	-10.5
18	12	03	11	18	32	0.1176146405	-0.714110687	-0.0104980374499	-1.08740234375	0.0078125	0.32470703125	-64.875	20.0	-3.3125
18	12	03	11	18	32	0.107908627891	-0.713490871068	-0.0156247786992	-1.14404296875	-0.021484375	0.30908203125	-63.3125	7.6875	5.8125
18	12	03	11	18	32	0.0982661093829	-0.71123911344	-0.0186766642678	-1.2119140625	-0.02685546875	0.29736328125	-53.6875	-5.0	15.25
18	12	03	11	18	32	0.0885001671802	-0.707452026059	-0.0197141751719	-1.25390625	0.00390625	0.26953125	-44.125	-18.5625	23.125
18	12	03	11	18	32	0.078249514159	-0.701926219055	-0.0197149711961	-1.2724609375	0.01416015625	0.2451171875	-40.25	-34.8125	30.375
18	12	03	11	18	32	0.0674435523163	-0.694638071413	-0.0189818504709	-1.294921875	0.00048828125	0.203125	-38.25	-52.875	38.4375
18	12	03	11	18	32	0.0559081958354	-0.685180574725	-0.0175170875598	-1.28173828125	-0.02392578125	0.1484375	-36.0625	-74.5	48.0625
18	12	03	11	18	32	0.0425424150339	-0.673354264927	-0.0155642981831	-1.2666015625	-0.01806640625	0.11865234375	-39.8125	-96.8125	60.0
18	12	03	11	18	32	0.0264897223123	-0.659130210255	-0.0147707668193	-1.3271484375	0.0478515625	0.10205078125	-54.375	-114.75	70.875
18	12	03	11	18	32	0.00616454385739	-0.642821543624	-0.0167846491167	-1.4111328125	0.11376953125	0.06201171875	-81.8125	-130.0	78.0
18	12	03	11	18	32	-0.0182496551682	-0.624211449516	-0.0228883635053	-1.4619140625	0.08740234375	0.0498046875	-115.1875	-144.0625	81.75
18	12	03	11	18	32	-0.0449206339222	-0.60313275057	-0.0314322370516	-1.45458984375	0.01025390625	0.05615234375	-133.5625	-156.5625	84.375
18	12	03	11	18	33	-0.071715466641	-0.579766142658	-0.0394892824823	-1.43310546875	-0.06005859375	0.06787109375	-132.625	-167.8125	88.1875
18	12	03	11	18	33	-0.0976568297171	-0.554507686237	-0.045044212707	-1.400390625	-0.0908203125	0.076171875	-118.5	-177.25	92.75
18	12	03	11	18	33	-0.122009312342	-0.52771011231	-0.047119154141	-1.3388671875	-0.11083984375	0.07568359375	-97.625	-185.8125	97.0
18	12	03	11	18	33	-0.144776550199	-0.499759862155	-0.0450443060906	-1.25732421875	-0.11376953125	0.076171875	-73.8125	-192.6875	101.875
18	12	03	11	18	33	-0.165773889464	-0.471015134386	-0.0385137423607	-1.154296875	-0.107421875	0.0810546875	-47.3125	-197.875	106.875
18	12	03	11	18	33	-0.184872382944	-0.441826074656	-0.0270991541853	-1.04638671875	-0.08251953125	0.0888671875	-19.125	-201.75	111.3125
18	12	03	11	18	33	-0.203011874765	-0.412859988246	-0.0123296448294	-0.96484375	0.00048828125	0.109375	-0.375	-199.9375	115.4375
18	12	03	11	18	33	-0.220828460024	-0.384221988902	0.00311283898872	-0.8671875	0.06689453125	0.119140625	3.375	-194.625	117.0625
18	12	03	11	18	33	-0.238534685677	-0.355726752335	0.0169684346515	-0.79443359375	0.13232421875	0.15283203125	-5.0	-187.8125	114.0625
18	12	03	11	18	33	-0.25598637321	-0.327765098745	0.0271001310694	-0.73291015625	0.1806640625	0.1943359375	-23.625	-176.4375	107.25
18	12	03	11	18	33	-0.273132964227	-0.301087131292	0.0318604262182	-0.6962890625	0.20654296875	0.2294921875	-49.125	-158.8125	97.1875
18	12	03	11	18	33	-0.288758491366	-0.276551410775	0.0323487635645	-0.6435546875	0.1826171875	0.251953125	-65.0625	-138.5625	83.6875
18	12	03	11	18	33	-0.302493950277	-0.254763871763	0.0300907016721	-0.51416015625	0.111328125	0.302734375	-70.625	-116.375	70.0625
18	12	03	11	18	33	-0.312020096611	-0.24011875197	0.0265510058736	-0.42041015625	0.0556640625	0.3662109375	-56.375	-85.75	50.3125
18	12	03	11	18	33	-0.317700939303	-0.232370312378	0.0232553425311	-0.46484375	0.0361328125	0.3896484375	-36.125	-51.9375	31.8125
18	12	03	11	18	33	-0.32073698125	-0.230894005722	0.0194700470064	-0.56494140625	0.0830078125	0.38427734375	-26.625	-23.5625	17.0
18	12	03	11	18	33	-0.321345317653	-0.23437151373	0.0131833976473	-0.65869140625	0.09521484375	0.35888671875	-29.1875	0.75	1.75
18	12	03	11	18	33	-0.319831493323	-0.242009899051	0.0040284119388	-0.72900390625	0.03955078125	0.330078125	-30.75	24.0625	-11.1875
18	12	03	11	18	33	-0.316525090053	-0.252866071749	-0.00653069507052	-0.74560546875	-0.05029296875	0.32275390625	-24.4375	44.1875	-19.6875
18	12	03	11	18	33	-0.311460562724	-0.266905161825	-0.0162962904658	-0.7421875	-0.04833984375	0.3505859375	-12.5	62.5625	-27.0625
18	12	03	11	18	33	-0.304329199092	-0.285346772113	-0.0253302482197	-0.80078125	0.03271484375	0.373046875	-2.3125	85.25	-37.625
18	12	03	11	18	33	-0.295295404185	-0.304389867852	-0.033753277907	-0.888671875	0.10888671875	0.4052734375	2.8125	112.3125	-51.0625
18	12	03	11	18	33	-0.283014536111	-0.328301744607	-0.0434561892843	-0.98388671875	0.13720703125	0.45849609375	9.1875	143.0	-67.4375
18	12	03	11	18	33	-0.26672960419	-0.357307803874	-0.0531017747473	-1.01220703125	0.09521484375	0.46923828125	25.875	174.1875	-83.875
18	12	03	11	18	33	-0.246095633069	-0.390627988998	-0.0599369820618	-0.9658203125	-0.01904296875	0.4462890625	56.375	199.0625	-94.8125
18	12	03	11	18	33	-0.221735505105	-0.426625703463	-0.0622543944968	-0.93408203125	-0.0625	0.439453125	91.4375	213.1875	-99.8125
18	12	03	11	18	33	-0.194035294688	-0.463816987836	-0.0618910943105	-0.99609375	0.02783203125	0.3876953125	112.6875	222.0625	-108.4375
18	12	03	11	18	33	-0.164064472009	-0.500067045823	-0.0629280024708	-1.14892578125	0.1123046875	0.27197265625	109.0625	223.4375	-123.125
18	12	03	11	18	33	-0.134215424112	-0.533199611206	-0.0686030635297	-1.2275390625	0.09912109375	0.19970703125	82.8125	215.9375	-135.8125
18	12	03	11	18	33	-0.105346501909	-0.563109401284	-0.0786741836392	-1.28564453125	-0.0126953125	0.1572265625	56.4375	207.0625	-144.125
18	12	03	11	18	33	-0.0776954792446	-0.590070615347	-0.0888035524752	-1.31494140625	-0.1748046875	0.1201171875	51.0	195.6875	-138.0
18	12	03	11	18	33	-0.0498658016063	-0.614441890784	-0.0941163599472	-1.28271484375	-0.29931640625	0.10498046875	73.125	182.4375	-122.625
18	12	03	11	18	33	-0.0207519127708	-0.635985091389	-0.0924070468678	-1.232421875	-0.3291015625	0.10302734375	108.875	165.5	-105.125
18	12	03	11	18	33	0.00866695504147	-0.654172000947	-0.084838503575	-1.18310546875	-0.24609375	0.12158203125	135.1875	146.0625	-88.875
18	12	03	11	18	33	0.0367438052887	-0.669018022874	-0.0744031538986	-1.154296875	-0.12744140625	0.1376953125	143.0	127.0625	-76.5625
18	12	03	11	18	33	0.0618279477548	-0.681083977291	-0.0644524312232	-1.1328125	0.0068359375	0.1591796875	130.25	110.75	-68.875
18	12	03	11	18	33	0.0802006787251	-0.690555920164	-0.0554202559227	-1.1171875	0.10498046875	0.1806640625	99.125	98.8125	-63.5625
18	12	03	11	18	33	0.0924096967825	-0.698993294289	-0.0501722396006	-1.08984375	0.1787109375	0.22607421875	59.4375	92.125	-58.5
18	12	03	11	18	33	0.0992426812253	-0.707027810156	-0.0488278874417	-1.06884765625	0.17431640625	0.27392578125	21.625	90.0625	-52.5
18	12	03	11	18	33	0.102175111209	-0.714798522921	-0.0499888984948	-1.06591796875	0.12890625	0.3154296875	-4.375	89.4375	-44.1875
18	12	03	11	18	33	0.102721480127	-0.722102098263	-0.0521847091552	-1.0546875	0.08447265625	0.349609375	-18.125	87.375	-35.625
18	12	03	11	18	33	0.102233894526	-0.728576715797	-0.0543212932109	-1.033203125	0.03076171875	0.3681640625	-22.25	83.1875	-27.5625
18	12	03	11	18	33	0.10150230958	-0.733953862115	-0.0557255614229	-1.00390625	-0.01806640625	0.36181640625	-19.3125	74.75	-19.4375
18	12	03	11	18	33	0.100830183111	-0.737854772175	-0.0559082613378	-0.935546875	-0.04345703125	0.36474609375	-13.1875	63.25	-11.0625
18	12	03	11	18	33	0.0994868914498	-0.740292335211	-0.0551145171651	-0.90234375	-0.0537109375	0.37255859375	-11.125	51.4375	-2.5
18	12	03	11	18	33	0.0971078931539	-0.74127929752	-0.0532842179279	-0.92138671875	-0.046875	0.3681640625	-9.9375	38.4375	6.0
18	12	03	11	18	33	0.0930164890397	-0.740897086911	-0.0508416898754	-0.9736328125	-0.01171875	0.34619140625	-12.6875	24.125	13.0
18	12	03	11	18	33	0.0866079410669	-0.739005602846	-0.0489496608426	-1.0400390625	0.02001953125	0.3125	-22.5	7.25	17.9375
18	12	03	11	18	33	0.077515412953	-0.735663993955	-0.0484623920352	-1.0927734375	0.02490234375	0.27490234375	-36.9375	-10.0	22.3125
18	12	03	11	18	33	0.0655496254459	-0.730689120893	-0.0491927356698	-1.1416015625	0.0263671875	0.287109375	-52.4375	-25.0	29.375
18	12	03	11	18	34	0.0496203258982	-0.724957233725	-0.0510851325667	-1.22509765625	0.08447265625	0.2685546875	-72.3125	-34.625	36.625
18	12	03	11	18	34	0.0297841833039	-0.718055156906	-0.0559674100198	-1.31787109375	0.08349609375	0.21240234375	-98.875	-49.375	40.1875
18	12	03	11	18	34	0.00842273187532	-0.709828780507	-0.0653677234672	-1.39599609375	0.013671875	0.19580078125	-121.75	-71.125	42.1875
18	12	03	11	18	34	-0.0140375488367	-0.698276505393	-0.0754365667919	-1.4130859375	-0.05126953125	0.17236328125	-127.625	-95.3125	44.0625
18	12	03	11	18	34	-0.0369255181956	-0.683396739233	-0.0847761070639	-1.38818359375	-0.0498046875	0.15380859375	-125.625	-118.5	47.5625
18	12	03	11	18	34	-0.0606072058414	-0.66558064421	-0.0939320138871	-1.3994140625	0.0009765625	0.134765625	-128.0625	-137.375	49.625
18	12	03	11	18	34	-0.0853877686408	-0.645016396709	-0.104247540271	-1.45263671875	0.0693359375	0.09130859375	-138.0625	-153.375	47.0
18	12	03	11	18	34	-0.111085214062	-0.621344768763	-0.116700510597	-1.50341796875	0.0830078125	0.0634765625	-151.5625	-169.625	40.9375
18	12	03	11	18	34	-0.136172296466	-0.594861139112	-0.129763470321	-1.533203125	0.03369140625	0.0712890625	-154.0625	-183.25	35.25
18	12	03	11	18	34	-0.158932344997	-0.566638975022	-0.140866302709	-1.5537109375	-0.01708984375	0.072265625	-138.5625	-191.875	30.8125
18	12	03	11	18	34	-0.178401723001	-0.537524452436	-0.147945869502	-1.513671875	-0.0732421875	0.05078125	-109.625	-199.0625	29.125
18	12	03	11	18	34	-0.194512483136	-0.507978474157	-0.14904282517	-1.447265625	-0.13525390625	0.04833984375	-71.375	-206.3125	32.0625
18	12	03	11	18	34	-0.207214754174	-0.478699651542	-0.142517364063	-1.3544921875	-0.1640625	0.03955078125	-24.25	-212.9375	38.5625
18	12	03	11	18	34	-0.217403881327	-0.449822180062	-0.128049787486	-1.25244140625	-0.1494140625	0.02587890625	22.0	-219.0625	48.4375
18	12	03	11	18	34	-0.22613349327	-0.421566541975	-0.106749657147	-1.1611328125	-0.1044921875	0.01220703125	58.75	-222.625	59.9375
18	12	03	11	18	34	-0.234684260829	-0.393744646713	-0.0806898810966	-1.0703125	-0.029296875	0.01025390625	82.125	-223.0625	72.25
18	12	03	11	18	34	-0.244018619684	-0.366027929526	-0.0528564593913	-0.982421875	0.0361328125	0.00634765625	88.0	-220.6875	82.625
18	12	03	11	18	34	-0.254696117208	-0.338068965543	-0.026061644392	-0.892578125	0.0986328125	0.03662109375	77.9375	-215.0	90.75
18	12	03	11	18	34	-0.266841733364	-0.30962674139	-0.00238033568189	-0.828125	0.13330078125	0.06640625	57.3125	-208.5625	95.0625
18	12	03	11	18	34	-0.279733471388	-0.280832140924	0.0164800430449	-0.78857421875	0.169921875	0.09716796875	29.8125	-200.0625	93.5625
18	12	03	11	18	34	-0.292964488201	-0.252010494121	0.0307612712611	-0.72607421875	0.1455078125	0.140625	5.75	-189.3125	90.3125
18	12	03	11	18	34	-0.305726060044	-0.224365940651	0.0413819662028	-0.654296875	0.0966796875	0.1728515625	-10.0625	-174.4375	85.25
18	12	03	11	18	34	-0.31794608134	-0.198739190026	0.0499289488456	-0.568359375	0.08984375	0.224609375	-16.4375	-157.0625	81.0625
18	12	03	11	18	34	-0.328985844979	-0.17651708046	0.0562755007553	-0.4736328125	0.11865234375	0.28076171875	-20.3125	-132.9375	72.625
18	12	03	11	18	34	-0.337230681322	-0.162297987626	0.0590229988847	-0.40625	0.1435546875	0.333984375	-24.25	-97.875	55.75
18	12	03	11	18	34	-0.341803025806	-0.155093122959	0.0590220582061	-0.4287109375	0.12744140625	0.39208984375	-20.875	-57.875	31.625
18	12	03	11	18	34	-0.34265351041	-0.155579586398	0.056763050353	-0.48095703125	0.09716796875	0.404296875	-12.125	-17.1875	8.3125
18	12	03	11	18	34	-0.340585856619	-0.162663316826	0.0528579483571	-0.5068359375	0.03662109375	0.3994140625	-1.5	18.9375	-9.625
18	12	03	11	18	34	-0.336010755467	-0.175482456306	0.0482805645003	-0.5224609375	0.041015625	0.42138671875	8.4375	50.5	-24.875
18	12	03	11	18	34	-0.329031629217	-0.195124117716	0.0427844874941	-0.6025390625	0.10546875	0.458984375	15.75	85.625	-39.625
18	12	03	11	18	34	-0.319404865795	-0.217900892583	0.0357674854493	-0.748046875	0.20556640625	0.47998046875	15.375	124.625	-60.3125
18	12	03	11	18	34	-0.305555041153	-0.246836713229	0.0247813317435	-0.86767578125	0.2177734375	0.46875	10.6875	163.125	-87.4375
18	12	03	11	18	34	-0.28826504927	-0.280391623194	0.0108030729877	-0.861328125	0.103515625	0.45263671875	10.25	195.625	-107.375
18	12	03	11	18	34	-0.269222304227	-0.317866642578	-0.00256344066595	-0.8125	-0.015625	0.47900390625	24.0	221.6875	-110.9375
18	12	03	11	18	34	-0.247735592089	-0.359305107324	-0.0134884370169	-0.8740234375	0.00732421875	0.482421875	47.375	244.5625	-114.5625
18	12	03	11	18	34	-0.222230164586	-0.403749667326	-0.0237427997868	-1.0888671875	0.12451171875	0.39990234375	61.0625	264.1875	-130.8125
18	12	03	11	18	34	-0.193357817327	-0.448116507202	-0.0361935560843	-1.33154296875	0.13671875	0.26171875	56.6875	270.25	-149.75
18	12	03	11	18	34	-0.163638110514	-0.488472882673	-0.0515756073795	-1.44140625	0.00341796875	0.16162109375	40.875	257.3125	-160.0
18	12	03	11	18	34	-0.133916793711	-0.524619344553	-0.0672025478014	-1.4326171875	-0.18798828125	0.138671875	36.6875	240.875	-159.0
18	12	03	11	18	34	-0.103273903171	-0.558545796642	-0.0775775005499	-1.427734375	-0.36279296875	0.111328125	63.5625	231.875	-146.0
18	12	03	11	18	34	-0.0690315035077	-0.590704589697	-0.0781868753256	-1.34521484375	-0.46435546875	0.11181640625	119.625	223.0	-130.8125
18	12	03	11	18	34	-0.0317998474241	-0.619700289628	-0.0704967826771	-1.29296875	-0.38232421875	0.134765625	165.75	208.75	-119.5625
18	12	03	11	18	34	0.00592055904581	-0.643998128787	-0.0583510767814	-1.26611328125	-0.2138671875	0.14306640625	185.8125	185.5	-111.1875
18	12	03	11	18	34	0.0407699022746	-0.662999174266	-0.0464459515434	-1.2705078125	-0.07373046875	0.1318359375	174.4375	156.6875	-104.0625
18	12	03	11	18	34	0.070370976203	-0.677709730926	-0.0375352561707	-1.25927734375	0.05517578125	0.13134765625	142.75	130.875	-96.5625
18	12	03	11	18	34	0.0938730472167	-0.690070657888	-0.0330813989541	-1.22314453125	0.18408203125	0.17138671875	101.1875	115.4375	-91.0625
18	12	03	11	18	34	0.110289036553	-0.701772740613	-0.0339350881702	-1.1630859375	0.22802734375	0.2099609375	51.4375	108.875	-84.3125
18	12	03	11	18	34	0.120546848503	-0.713271124862	-0.0389412097948	-1.11376953125	0.16455078125	0.2587890625	10.1875	105.0	-74.75
18	12	03	11	18	34	0.12713303721	-0.724224973375	-0.0449207467052	-1.0703125	0.0966796875	0.31689453125	-8.6875	100.4375	-63.3125
18	12	03	11	18	34	0.130307039973	-0.731794571087	-0.0480945889922	-1.037109375	0.0517578125	0.3486328125	-12.875	94.4375	-52.0
18	12	03	11	18	35	0.13311981441	-0.737926894185	-0.0498665237841	-1.01171875	0.0166015625	0.37158203125	-8.5	86.0625	-41.875
18	12	03	11	18	35	0.136295166023	-0.742512626366	-0.0495008417577	-0.96630859375	0.0068359375	0.37939453125	2.5	75.9375	-32.375
18	12	03	11	18	35	0.139342110901	-0.745538276242	-0.0472408207787	-0.93994140625	0.03076171875	0.390625	10.8125	64.6875	-23.625
18	12	03	11	18	35	0.141109851524	-0.747235256146	-0.043700109728	-0.94482421875	0.078125	0.39990234375	11.8125	53.25	-15.5
18	12	03	11	18	35	0.140682010793	-0.747781343271	-0.0401599839922	-0.998046875	0.107421875	0.39453125	4.1875	41.0625	-8.875
18	12	03	11	18	35	0.137144631477	-0.747184948172	-0.0375972821495	-1.0654296875	0.10498046875	0.36376953125	-10.4375	25.5625	-1.125
18	12	03	11	18	35	0.129948234598	-0.745203380089	-0.0364392184383	-1.12646484375	0.07763671875	0.32861328125	-29.25	6.8125	9.4375
18	12	03	11	18	35	0.118835502785	-0.741638517895	-0.0364990398898	-1.212890625	0.0439453125	0.29052734375	-48.125	-13.25	22.625
18	12	03	11	18	35	0.104673629499	-0.736133320928	-0.0372918878275	-1.2802734375	-0.0146484375	0.24853515625	-61.4375	-35.8125	37.25
18	12	03	11	18	35	0.0883791732625	-0.727846437262	-0.0380250172255	-1.30908203125	-0.0712890625	0.21435546875	-67.3125	-62.625	52.125
18	12	03	11	18	35	0.0704944059981	-0.716479508235	-0.0382683918275	-1.291015625	-0.095703125	0.17333984375	-69.0	-92.1875	65.625
18	12	03	11	18	35	0.0510877853276	-0.702533344231	-0.0386973188742	-1.24755859375	-0.099609375	0.14453125	-72.625	-122.3125	77.5625
18	12	03	11	18	35	0.0293585570819	-0.684951616576	-0.0391243972754	-1.2451171875	-0.0888671875	0.12548828125	-80.3125	-148.6875	87.25
18	12	03	11	18	35	0.00506592648005	-0.664307756733	-0.0405884470992	-1.31884765625	-0.0185546875	0.1123046875	-93.8125	-168.75	92.875
18	12	03	11	18	35	-0.0217903018677	-0.640830194144	-0.0445571998976	-1.4287109375	0.06396484375	0.0908203125	-114.1875	-184.6875	92.8125
18	12	03	11	18	35	-0.0505978894082	-0.614804028961	-0.0520016909238	-1.5615234375	0.10400390625	0.10205078125	-137.25	-196.5	88.0625
18	12	03	11	18	35	-0.0797729804224	-0.586364975454	-0.0621338133665	-1.66748046875	0.095703125	0.1171875	-151.5	-205.625	80.0625
18	12	03	11	18	35	-0.107359071907	-0.555776980549	-0.072752708194	-1.71142578125	0.0205078125	0.1259765625	-149.6875	-213.625	72.375
18	12	03	11	18	35	-0.131838933969	-0.523571470178	-0.0806292739689	-1.66748046875	-0.0732421875	0.13330078125	-127.3125	-220.75	68.125
18	12	03	11	18	35	-0.152710812856	-0.490725393829	-0.0827641335861	-1.57373046875	-0.1396484375	0.12255859375	-89.1875	-225.6875	69.0
18	12	03	11	18	35	-0.170289984646	-0.458073955115	-0.0778817277451	-1.44482421875	-0.1552734375	0.095703125	-45.1875	-228.1875	73.8125
18	12	03	11	18	35	-0.185675485751	-0.426040397942	-0.0662254773305	-1.31103515625	-0.12890625	0.068359375	-6.0625	-228.0	82.125
18	12	03	11	18	35	-0.200190361786	-0.394704594411	-0.0495593212713	-1.17724609375	-0.0537109375	0.05517578125	21.125	-225.5625	91.0625
18	12	03	11	18	35	-0.214840770339	-0.363581383213	-0.0306392234972	-1.05419921875	0.00146484375	0.06103515625	31.625	-222.1875	98.9375
18	12	03	11	18	35	-0.230037022505	-0.332696155393	-0.0117185217089	-0.93212890625	0.06201171875	0.07568359375	29.375	-216.0	103.6875
18	12	03	11	18	35	-0.245726787517	-0.302184134376	0.00543211229236	-0.8388671875	0.126953125	0.10546875	18.6875	-207.0	105.4375
18	12	03	11	18	35	-0.261716337937	-0.272214288059	0.018676585683	-0.77685546875	0.181640625	0.11962890625	-1.9375	-195.125	102.1875
18	12	03	11	18	35	-0.277036523044	-0.242612949791	0.0276487210705	-0.7314453125	0.18408203125	0.13671875	-23.5	-184.625	94.0625
18	12	03	11	18	35	-0.290594891061	-0.213383688122	0.0334480151862	-0.6767578125	0.158203125	0.16455078125	-36.625	-176.25	81.5625
18	12	03	11	18	35	-0.301703364223	-0.18524574356	0.0377815865778	-0.60205078125	0.09423828125	0.21533203125	-38.625	-166.875	67.6875
18	12	03	11	18	35	-0.31030323491	-0.159485120539	0.0433960660939	-0.5224609375	0.0380859375	0.279296875	-23.75	-154.75	56.1875
18	12	03	11	18	35	-0.316723938157	-0.13831112813	0.051088444062	-0.4658203125	0.06103515625	0.3359375	-2.5625	-132.75	46.5
18	12	03	11	18	35	-0.320751545875	-0.123051401805	0.0598166536552	-0.41943359375	0.0830078125	0.35107421875	15.6875	-102.5625	33.375
18	12	03	11	18	35	-0.32123666883	-0.117312726105	0.0674456619906	-0.4228515625	0.09423828125	0.37841796875	29.0625	-68.625	14.5
18	12	03	11	18	35	-0.318919605187	-0.117984994608	0.0742823271794	-0.4599609375	0.07275390625	0.384765625	40.3125	-36.0	-2.6875
18	12	03	11	18	35	-0.314702825588	-0.12384252	0.0796522861507	-0.49267578125	0.0673828125	0.42431640625	44.3125	-7.75	-15.0
18	12	03	11	18	35	-0.309089826085	-0.134036583349	0.0828267958129	-0.5126953125	0.07177734375	0.47119140625	42.1875	18.9375	-25.8125
18	12	03	11	18	35	-0.301875729787	-0.149289938346	0.0830677048604	-0.55126953125	0.12255859375	0.53173828125	34.8125	50.25	-38.5
18	12	03	11	18	35	-0.292370039102	-0.170233828613	0.0795930127325	-0.60986328125	0.17041015625	0.58203125	24.6875	85.75	-56.3125
18	12	03	11	18	35	-0.280765164593	-0.193544855853	0.0731820505103	-0.6796875	0.177734375	0.60595703125	15.625	123.875	-76.625
18	12	03	11	18	35	-0.266303121875	-0.222967064912	0.0638443881461	-0.70458984375	0.1806640625	0.60009765625	13.5625	161.75	-96.3125
18	12	03	11	18	35	-0.249150468401	-0.257512451295	0.0531626795633	-0.7041015625	0.11767578125	0.5927734375	19.125	194.125	-111.25
18	12	03	11	18	35	-0.229371340799	-0.296266228908	0.0430910501873	-0.73583984375	0.06640625	0.59619140625	33.6875	219.0625	-121.8125
18	12	03	11	18	35	-0.206176689454	-0.338806040012	0.0339965707597	-0.88720703125	0.09375	0.53125	49.8125	241.0	-135.375
18	12	03	11	18	35	-0.179690426302	-0.383551168097	0.0247196408465	-1.10888671875	0.099609375	0.4248046875	57.625	255.625	-150.1875
18	12	03	11	18	35	-0.151128298037	-0.426955753138	0.0136723500648	-1.27978515625	0.0615234375	0.29833984375	52.1875	253.625	-162.0
18	12	03	11	18	35	-0.121947876029	-0.466917543355	0.000488279783901	-1.3291015625	-0.06396484375	0.18310546875	40.6875	241.4375	-167.5625
18	12	03	11	18	35	-0.093385432847	-0.502999576531	-0.0117799925095	-1.3232421875	-0.24560546875	0.1259765625	42.1875	224.75	-159.875
18	12	03	11	18	35	-0.0649418436559	-0.535892281296	-0.0195313815506	-1.24951171875	-0.38232421875	0.09716796875	63.375	211.125	-144.375
18	12	03	11	18	35	-0.03650065926	-0.565699180639	-0.0214853378922	-1.18994140625	-0.353515625	0.08544921875	89.25	197.125	-127.5
18	12	03	11	18	36	-0.00964346573833	-0.591791416448	-0.0202634849691	-1.17236328125	-0.21728515625	0.087890625	97.125	179.0625	-112.875
18	12	03	11	18	36	0.0137937675445	-0.61394472447	-0.0193478951841	-1.1923828125	-0.11328125	0.12109375	83.4375	158.875	-101.0
18	12	03	11	18	36	0.0331408990368	-0.632728729862	-0.0198357130515	-1.23681640625	-0.029296875	0.14794921875	62.4375	140.125	-89.5625
18	12	03	11	18	36	0.0483391462254	-0.649099520337	-0.0222775105711	-1.2578125	0.06689453125	0.1845703125	39.0	126.3125	-80.25
18	12	03	11	18	36	0.0599983458056	-0.663888105114	-0.0266727132421	-1.2578125	0.115234375	0.244140625	17.4375	117.875	-73.6875
18	12	03	11	18	36	0.0697044900462	-0.677696105939	-0.0316172730682	-1.24951171875	0.12451171875	0.3115234375	7.875	114.1875	-68.0
18	12	03	11	18	36	0.0789195208706	-0.690927282487	-0.0355839757677	-1.25537109375	0.11328125	0.37060546875	10.25	114.0	-62.5625
18	12	03	11	18	36	0.088803743678	-0.703411096831	-0.0377187035003	-1.22705078125	0.083984375	0.4111328125	20.625	112.6875	-57.8125
18	12	03	11	18	36	0.0997926434841	-0.714600776705	-0.0377808234353	-1.15234375	0.04248046875	0.42578125	34.125	106.875	-53.3125
18	12	03	11	18	36	0.111083804571	-0.721129203847	-0.0341796321756	-1.05322265625	0.00146484375	0.43505859375	48.5	98.1875	-48.4375
18	12	03	11	18	36	0.122988133447	-0.72590465066	-0.0287480947163	-0.9619140625	0.01171875	0.423828125	59.625	85.875	-42.875
18	12	03	11	18	36	0.132692306871	-0.729319399633	-0.0230716154541	-0.92919921875	0.08642578125	0.41650390625	53.0625	73.75	-37.3125
18	12	03	11	18	36	0.137758469201	-0.73200590214	-0.0194705146988	-0.9482421875	0.15234375	0.39208984375	26.6875	61.1875	-32.5
18	12	03	11	18	36	0.136845710051	-0.734035017426	-0.0200202466087	-0.99560546875	0.1640625	0.357421875	-12.75	45.8125	-27.0
18	12	03	11	18	36	0.130558239292	-0.734947059051	-0.0241706698268	-1.07373046875	0.09521484375	0.3232421875	-47.625	27.0	-17.3125
18	12	03	11	18	36	0.12115398517	-0.734003942394	-0.0295408205653	-1.15771484375	-0.0029296875	0.29736328125	-63.4375	6.625	-2.6875
18	12	03	11	18	36	0.109680540654	-0.730837392207	-0.0333863415348	-1.228515625	-0.0380859375	0.26806640625	-64.0625	-14.375	15.1875
18	12	03	11	18	36	0.0966186199498	-0.725158448278	-0.0354614138919	-1.27099609375	-0.0458984375	0.2333984375	-60.875	-37.9375	31.5
18	12	03	11	18	36	0.0822144928322	-0.716676002106	-0.0363159786453	-1.298828125	-0.052734375	0.20849609375	-59.125	-64.3125	44.8125
18	12	03	11	18	36	0.0668343558182	-0.705148230838	-0.0363774210663	-1.2958984375	-0.07080078125	0.18017578125	-56.9375	-91.5	56.0
18	12	03	11	18	36	0.0510264837404	-0.691360025512	-0.0360725501084	-1.240234375	-0.0869140625	0.169921875	-54.625	-116.875	66.6875
18	12	03	11	18	36	0.0336306648233	-0.674688509904	-0.0347293072314	-1.20458984375	-0.0546875	0.1630859375	-55.3125	-137.125	77.25
18	12	03	11	18	36	0.0137328396852	-0.655758353677	-0.0338743378901	-1.23828125	0.02978515625	0.14208984375	-66.375	-152.4375	85.25
18	12	03	11	18	36	-0.00952122252636	-0.634748168424	-0.0358266514293	-1.3359375	0.14501953125	0.13623046875	-91.25	-164.4375	86.9375
18	12	03	11	18	36	-0.0357662744604	-0.611566672514	-0.0425411148445	-1.4521484375	0.20068359375	0.11865234375	-123.8125	-175.1875	81.875
18	12	03	11	18	36	-0.0636610602079	-0.586133423946	-0.0536510756689	-1.5146484375	0.15625	0.13134765625	-149.8125	-184.1875	74.875
18	12	03	11	18	36	-0.0908211018389	-0.558720676232	-0.065979577344	-1.5390625	0.0546875	0.1474609375	-153.9375	-191.3125	69.125
18	12	03	11	18	36	-0.115480019172	-0.529975161982	-0.0758676870141	-1.53662109375	-0.02783203125	0.15087890625	-134.625	-196.5625	66.3125
18	12	03	11	18	36	-0.136838943117	-0.500664518459	-0.08068736967	-1.48779296875	-0.0888671875	0.11279296875	-100.4375	-200.75	67.1875
18	12	03	11	18	36	-0.155336588592	-0.471136788739	-0.0794078199441	-1.392578125	-0.13427734375	0.08447265625	-62.3125	-204.9375	71.8125
18	12	03	11	18	36	-0.171808835017	-0.441759270997	-0.0717752007036	-1.28857421875	-0.13037109375	0.05126953125	-25.375	-207.625	79.625
18	12	03	11	18	36	-0.18701359666	-0.412723870958	-0.0584112310717	-1.1748046875	-0.10595703125	0.0322265625	6.25	-208.5625	89.0
18	12	03	11	18	36	-0.202027320747	-0.383973980308	-0.0411989249258	-1.05712890625	-0.056640625	0.02099609375	25.75	-207.5	98.5625
18	12	03	11	18	36	-0.217351707545	-0.355538808327	-0.0218511404946	-0.94384765625	-0.01513671875	0.03125	35.75	-204.0	106.8125
18	12	03	11	18	36	-0.23339741761	-0.327452182395	-0.0024413955817	-0.85302734375	0.068359375	0.0654296875	33.75	-197.125	112.75
18	12	03	11	18	36	-0.250613602408	-0.299686504584	0.0142824118274	-0.7509765625	0.13525390625	0.12158203125	16.875	-187.1875	115.8125
18	12	03	11	18	36	-0.268810119099	-0.272228231422	0.025818955581	-0.6875	0.19189453125	0.17822265625	-12.1875	-173.8125	114.3125
18	12	03	11	18	36	-0.28638678347	-0.245491825046	0.0322276687281	-0.6767578125	0.20947265625	0.21875	-37.25	-160.625	104.5625
18	12	03	11	18	36	-0.302316705285	-0.219611448741	0.0348521782188	-0.64306640625	0.2265625	0.27099609375	-54.0625	-148.875	91.4375
18	12	03	11	18	36	-0.316174304388	-0.194831733515	0.0330212931803	-0.5712890625	0.18505859375	0.31396484375	-72.0625	-134.125	75.25
18	12	03	11	18	36	-0.32733427569	-0.172425755887	0.028808834258	-0.4501953125	0.05615234375	0.3984375	-75.4375	-115.5625	58.625
18	12	03	11	18	36	-0.335456823728	-0.157291163527	0.0252691275515	-0.32763671875	0.015625	0.47265625	-51.25	-84.8125	45.9375
18	12	03	11	18	36	-0.340514843692	-0.150817741309	0.0247802521131	-0.32177734375	0.0146484375	0.484375	-15.3125	-44.75	31.6875
18	12	03	11	18	36	-0.341790617575	-0.153073369443	0.0259394665124	-0.4150390625	0.06982421875	0.4775390625	9.8125	-8.125	12.375
18	12	03	11	18	36	-0.340513985545	-0.16174261726	0.0266722731104	-0.4775390625	0.115234375	0.4619140625	19.6875	22.875	-2.3125
18	12	03	11	18	36	-0.337113206113	-0.17475196616	0.0241710718126	-0.52685546875	0.1298828125	0.4638671875	12.25	50.0	-17.25
18	12	03	11	18	36	-0.331431311874	-0.191778486539	0.0177007514629	-0.58837890625	0.125	0.47314453125	1.25	76.1875	-33.3125
18	12	03	11	18	36	-0.323304972059	-0.209351718739	0.00970464235556	-0.673828125	0.13525390625	0.48046875	-0.875	100.875	-50.9375
18	12	03	11	18	36	-0.312196990941	-0.231446918797	-0.000305177899258	-0.771484375	0.142578125	0.48486328125	0.5	128.3125	-68.8125
18	12	03	11	18	36	-0.298098975802	-0.258547760339	-0.0121461294399	-0.8740234375	0.1328125	0.4912109375	3.375	158.625	-84.6875
18	12	03	11	18	37	-0.281495610316	-0.290528860604	-0.0247193673413	-0.9189453125	0.06982421875	0.4912109375	12.8125	189.4375	-94.8125
18	12	03	11	18	37	-0.262767045603	-0.326734493638	-0.0359511706992	-0.90185546875	-0.0322265625	0.46875	30.875	215.0	-98.25
18	12	03	11	18	37	-0.242072118348	-0.365244467019	-0.0443737846796	-0.9072265625	-0.0869140625	0.4375	52.875	228.3125	-99.1875
18	12	03	11	18	37	-0.219241988056	-0.404120602149	-0.0514535066624	-1.0166015625	-0.01123046875	0.33935546875	63.0625	232.0625	-105.1875
18	12	03	11	18	37	-0.195246540019	-0.441150981949	-0.0599960452762	-1.1669921875	0.06982421875	0.2158203125	54.25	226.125	-114.625
18	12	03	11	18	37	-0.172363983073	-0.474061988856	-0.0723879900583	-1.28173828125	0.0302734375	0.123046875	27.625	210.5	-119.5
18	12	03	11	18	37	-0.152163301109	-0.50312157683	-0.087464905932	-1.34033203125	-0.1552734375	0.0927734375	4.375	195.6875	-112.0625
18	12	03	11	18	37	-0.133850932371	-0.530459850999	-0.0996710317203	-1.37255859375	-0.33251953125	0.10107421875	12.1875	187.5	-92.8125
18	12	03	11	18	37	-0.115356836374	-0.557130794934	-0.104736683184	-1.35888671875	-0.3798828125	0.09716796875	46.0625	181.5625	-71.5
18	12	03	11	18	37	-0.0964970202376	-0.582033893097	-0.103760236815	-1.2958984375	-0.28759765625	0.1015625	73.75	169.5625	-56.75
18	12	03	11	18	37	-0.0787375234814	-0.60395953089	-0.100649749008	-1.21533203125	-0.17236328125	0.1630859375	77.9375	154.0	-48.75
18	12	03	11	18	37	-0.0631101859321	-0.623167309833	-0.0973508187251	-1.154296875	-0.0947265625	0.21826171875	70.125	139.4375	-42.0
18	12	03	11	18	37	-0.0501095097248	-0.64007116746	-0.0947869288705	-1.1083984375	-0.0107421875	0.23193359375	56.3125	127.375	-35.75
18	12	03	11	18	37	-0.0401609256765	-0.65502591848	-0.09405469068	-1.07568359375	0.07080078125	0.2568359375	36.875	117.125	-31.9375
18	12	03	11	18	37	-0.0332038204761	-0.668654142124	-0.0956440931728	-1.037109375	0.11865234375	0.29541015625	15.3125	110.9375	-29.6875
18	12	03	11	18	37	-0.0289308495992	-0.681339818724	-0.099365871619	-1.0048828125	0.12744140625	0.333984375	-4.4375	107.5625	-27.1875
18	12	03	11	18	37	-0.026488926204	-0.693228626325	-0.104307776227	-0.9912109375	0.09912109375	0.36669921875	-16.75	104.5	-24.0625
18	12	03	11	18	37	-0.02471929008	-0.704408214353	-0.109070052773	-0.986328125	0.0546875	0.3876953125	-18.5	100.625	-20.8125
18	12	03	11	18	37	-0.0233757561419	-0.712014546087	-0.1115688831	-0.9873046875	0.00146484375	0.38525390625	-11.9375	93.9375	-18.1875
18	12	03	11	18	37	-0.0208121235937	-0.718109812914	-0.11266621746	-0.984375	-0.02978515625	0.3896484375	-0.5625	83.3125	-16.3125
18	12	03	11	18	37	-0.0169069581575	-0.72266564832	-0.111756824499	-0.98193359375	-0.0390625	0.396484375	13.375	71.25	-14.3125
18	12	03	11	18	37	-0.0120234462154	-0.725740096181	-0.109004441324	-0.998046875	-0.044921875	0.40673828125	25.625	60.0	-11.375
18	12	03	11	18	37	-0.00701915493705	-0.727489632128	-0.104676962757	-1.0517578125	-0.025390625	0.3984375	33.25	48.0625	-8.0625
18	12	03	11	18	37	-0.0033568593445	-0.727828139693	-0.099790273241	-1.126953125	0.02001953125	0.36962890625	31.1875	33.75	-5.4375
18	12	03	11	18	37	-0.00244139228938	-0.726375240897	-0.0961298213942	-1.2080078125	0.0361328125	0.3291015625	16.25	15.5625	-2.3125
18	12	03	11	18	37	-0.00512678400828	-0.722998611454	-0.0942962058666	-1.2978515625	0.01416015625	0.29931640625	-4.625	-3.9375	3.625
18	12	03	11	18	37	-0.010436603882	-0.717684357011	-0.0935632383108	-1.38525390625	-0.03955078125	0.2724609375	-18.5625	-23.125	12.4375
18	12	03	11	18	37	-0.0172123120973	-0.710343575138	-0.0925924732328	-1.41552734375	-0.08349609375	0.2265625	-22.25	-45.1875	21.375
18	12	03	11	18	37	-0.0249631466524	-0.7003719018	-0.0910025712927	-1.35791015625	-0.1171875	0.20166015625	-22.375	-70.875	30.625
18	12	03	11	18	37	-0.0338127768486	-0.687546807218	-0.0883160435016	-1.2373046875	-0.130859375	0.18115234375	-20.9375	-97.5625	40.1875
18	12	03	11	18	37	-0.0444341419062	-0.672737791333	-0.0843516265308	-1.1220703125	-0.12109375	0.16845703125	-21.5	-120.1875	49.875
18	12	03	11	18	37	-0.0570064121639	-0.655573739884	-0.080016495018	-1.0751953125	-0.0537109375	0.173828125	-27.125	-136.4375	57.6875
18	12	03	11	18	37	-0.0720219682606	-0.636723027877	-0.0769048135664	-1.12060546875	0.0751953125	0.171875	-42.625	-146.25	60.6875
18	12	03	11	18	37	-0.0897830253977	-0.616396175045	-0.0775759519242	-1.22802734375	0.19580078125	0.1806640625	-70.5625	-151.8125	56.75
18	12	03	11	18	37	-0.109741204805	-0.594421353503	-0.0835571242371	-1.3095703125	0.23876953125	0.177734375	-103.4375	-155.9375	47.25
18	12	03	11	18	37	-0.130616313379	-0.570988603579	-0.0937507744625	-1.3681640625	0.18896484375	0.20166015625	-126.8125	-158.5	37.4375
18	12	03	11	18	37	-0.149963948181	-0.546632934436	-0.104797761102	-1.4091796875	0.10693359375	0.205078125	-127.0	-160.125	29.125
18	12	03	11	18	37	-0.166315764027	-0.522017882466	-0.113460919385	-1.400390625	0.01904296875	0.18603515625	-106.25	-161.9375	24.0625
18	12	03	11	18	37	-0.179264006039	-0.497630044683	-0.117189952875	-1.33154296875	-0.0654296875	0.14990234375	-71.6875	-164.5625	24.1875
18	12	03	11	18	37	-0.189456044123	-0.473884254695	-0.114503717389	-1.2509765625	-0.11669921875	0.10546875	-31.5625	-167.375	30.1875
18	12	03	11	18	37	-0.197811608042	-0.450981169953	-0.105344904499	-1.15771484375	-0.1083984375	0.06494140625	6.0	-169.4375	39.625
18	12	03	11	18	37	-0.205691605613	-0.428595387126	-0.0913710188731	-1.072265625	-0.0732421875	0.02978515625	31.1875	-171.1875	50.0625
18	12	03	11	18	37	-0.213990632948	-0.406252610639	-0.0747685468799	-0.9912109375	-0.0498046875	0.0166015625	42.375	-172.0	60.125
18	12	03	11	18	37	-0.22338227762	-0.383900143778	-0.0568831373611	-0.90673828125	-0.0185546875	0.021484375	45.625	-171.0	69.9375
18	12	03	11	18	37	-0.23418913682	-0.361568007954	-0.0392451433347	-0.84423828125	0.03271484375	0.041015625	40.0	-167.25	78.25
18	12	03	11	18	37	-0.246465844098	-0.339485642613	-0.023926352374	-0.802734375	0.1025390625	0.06982421875	24.4375	-159.5625	83.125
18	12	03	11	18	37	-0.259774309597	-0.317881720954	-0.0117191417863	-0.77490234375	0.13330078125	0.09619140625	6.1875	-149.5	84.375
18	12	03	11	18	37	-0.273198764671	-0.296880873851	-0.00250249091856	-0.73681640625	0.13330078125	0.1455078125	-8.6875	-139.3125	81.1875
18	12	03	11	18	37	-0.28607072124	-0.276976516533	0.00439451502652	-0.68994140625	0.14990234375	0.2001953125	-18.5625	-127.75	76.125
18	12	03	11	18	37	-0.297858261282	-0.258916955811	0.00897236975582	-0.63623046875	0.1611328125	0.26904296875	-25.75	-111.875	67.875
18	12	03	11	18	38	-0.307010532981	-0.247500539013	0.0109254245335	-0.576171875	0.17236328125	0.337890625	-29.125	-88.0	52.875
18	12	03	11	18	38	-0.312816154557	-0.240975254281	0.0108646391241	-0.56201171875	0.1640625	0.384765625	-25.625	-56.3125	33.0625
18	12	03	11	18	38	-0.315004559551	-0.241090488321	0.00903326386622	-0.6376953125	0.13720703125	0.3994140625	-16.0625	-22.25	13.625
18	12	03	11	18	38	-0.314280454919	-0.247078516511	0.00573749519566	-0.712890625	0.09912109375	0.39697265625	-7.25	7.9375	-1.0625
18	12	03	11	18	38	-0.311350039709	-0.257210168071	0.00146488942423	-0.703125	0.02099609375	0.3916015625	3.125	33.75	-11.3125
18	12	03	11	18	38	-0.306463616659	-0.271794958172	-0.00286870941704	-0.70751953125	0.01513671875	0.40673828125	14.4375	59.75	-20.1875
18	12	03	11	18	38	-0.299140805153	-0.290839815661	-0.00738543918048	-0.7607421875	0.0537109375	0.40478515625	22.5	83.9375	-32.5625
18	12	03	11	18	38	-0.290158860175	-0.310056165269	-0.0128783171007	-0.8515625	0.13623046875	0.4150390625	18.1875	107.875	-48.4375
18	12	03	11	18	38	-0.278936021805	-0.33277006365	-0.0224613689331	-0.9404296875	0.17333984375	0.419921875	6.3125	134.75	-65.0625
18	12	03	11	18	38	-0.266120513437	-0.35865232499	-0.0360727576701	-0.97119140625	0.11474609375	0.42626953125	-5.9375	161.875	-77.4375
18	12	03	11	18	38	-0.252444553886	-0.387272895167	-0.0509649909321	-0.93896484375	-0.013671875	0.43408203125	-5.5	184.3125	-79.875
18	12	03	11	18	38	-0.237246811997	-0.418218460459	-0.0642098395217	-0.95556640625	-0.05126953125	0.44091796875	9.5	199.75	-79.875
18	12	03	11	18	38	-0.219915696911	-0.450573875824	-0.0758077423156	-1.0810546875	0.01318359375	0.37255859375	22.8125	209.0	-84.75
18	12	03	11	18	38	-0.201542973744	-0.481945281855	-0.0878927565693	-1.212890625	0.0419921875	0.2626953125	21.0625	206.625	-90.625
18	12	03	11	18	38	-0.183773185319	-0.510243716131	-0.101865641414	-1.29248046875	-0.02001953125	0.1806640625	6.6875	194.3125	-93.875
18	12	03	11	18	38	-0.166868633353	-0.535822872059	-0.115538523386	-1.34619140625	-0.17626953125	0.1474609375	3.875	181.5	-88.1875
18	12	03	11	18	38	-0.149475139698	-0.559692540231	-0.12451175377	-1.2978515625	-0.31396484375	0.1220703125	26.625	169.625	-75.8125
18	12	03	11	18	38	-0.130068859428	-0.582349595402	-0.12646770377	-1.189453125	-0.3525390625	0.12109375	64.875	158.3125	-63.75
18	12	03	11	18	38	-0.108764606704	-0.603454358295	-0.122070265661	-1.0830078125	-0.3037109375	0.14990234375	99.1875	146.0	-54.0
18	12	03	11	18	38	-0.0863650668641	-0.6226219414	-0.113525812274	-1.01025390625	-0.20947265625	0.18115234375	120.4375	133.8125	-48.0625
18	12	03	11	18	38	-0.0642694509057	-0.639398639779	-0.103148501454	-0.97900390625	-0.1015625	0.19970703125	126.375	120.3125	-44.125
18	12	03	11	18	38	-0.044251410046	-0.653700140128	-0.0935078071592	-0.98291015625	-0.0068359375	0.20263671875	114.6875	106.625	-41.0625
18	12	03	11	18	38	-0.0285029277321	-0.665149692559	-0.0848984421315	-0.984375	0.08203125	0.22998046875	92.3125	95.875	-38.875
18	12	03	11	18	38	-0.016662722114	-0.674931799037	-0.078858010884	-0.98681640625	0.134765625	0.267578125	65.875	89.875	-37.0625
18	12	03	11	18	38	-0.00836175287615	-0.683710625684	-0.0757440534256	-0.990234375	0.13916015625	0.3017578125	39.8125	87.75	-34.5625
18	12	03	11	18	38	-0.00262454567517	-0.691659339325	-0.0748300697152	-0.9970703125	0.1015625	0.34130859375	20.375	86.375	-30.625
18	12	03	11	18	38	0.00164792016321	-0.698901251441	-0.0748277822257	-0.986328125	0.056640625	0.361328125	11.0625	83.8125	-25.9375
18	12	03	11	18	38	0.00524917292548	-0.705159241954	-0.0751364171077	-0.95068359375	0.0146484375	0.38671875	7.375	79.625	-21.8125
18	12	03	11	18	38	0.00878907047264	-0.710571933628	-0.0747681342291	-0.91552734375	-0.00830078125	0.39794921875	10.1875	74.75	-17.6875
18	12	03	11	18	38	0.0120849759067	-0.715271882072	-0.0733033134541	-0.90625	0.02099609375	0.4091796875	13.6875	69.75	-14.375
18	12	03	11	18	38	0.0135499477415	-0.71936794631	-0.0715339583468	-0.96337890625	0.09912109375	0.40087890625	7.75	64.9375	-12.0625
18	12	03	11	18	38	0.011535663762	-0.722779525236	-0.071655392892	-1.0654296875	0.18017578125	0.3759765625	-13.125	57.625	-12.6875
18	12	03	11	18	38	0.00555415056449	-0.724908200599	-0.075377757661	-1.1953125	0.1845703125	0.345703125	-42.625	45.8125	-14.0
18	12	03	11	18	38	-0.00317390749867	-0.725237863446	-0.0823384849174	-1.337890625	0.09326171875	0.30126953125	-66.1875	29.1875	-11.6875
18	12	03	11	18	38	-0.0123291261578	-0.723023903294	-0.0895997881172	-1.44482421875	-0.05029296875	0.2646484375	-67.9375	6.625	-3.0625
18	12	03	11	18	38	-0.0207518890378	-0.718320535545	-0.0944210951218	-1.45166015625	-0.13330078125	0.2080078125	-54.0625	-19.5	9.1875
18	12	03	11	18	38	-0.0291131736854	-0.710739848149	-0.0963725393068	-1.38232421875	-0.181640625	0.14501953125	-40.5	-51.125	23.8125
18	12	03	11	18	38	-0.0387561378118	-0.69999077884	-0.0961884617188	-1.27783203125	-0.20361328125	0.0947265625	-35.25	-83.9375	38.375
18	12	03	11	18	38	-0.0511479391022	-0.686529855634	-0.0939950193524	-1.24365234375	-0.1376953125	0.08447265625	-37.0625	-111.75	49.8125
18	12	03	11	18	38	-0.0661010647383	-0.670287989802	-0.0920410024241	-1.27099609375	-0.04150390625	0.07080078125	-47.75	-132.4375	56.0
18	12	03	11	18	38	-0.0835575180022	-0.651553327007	-0.0919804087869	-1.353515625	0.0576171875	0.0732421875	-66.375	-147.25	56.3125
18	12	03	11	18	38	-0.102723410329	-0.6303176818	-0.0945446004752	-1.41748046875	0.11669921875	0.0830078125	-85.0	-160.5	51.75
18	12	03	11	18	38	-0.122866164533	-0.606640243068	-0.0992450986245	-1.443359375	0.12255859375	0.10888671875	-99.3125	-171.9375	47.25
18	12	03	11	18	38	-0.14270065063	-0.580995506136	-0.104187344151	-1.4453125	0.07470703125	0.1474609375	-100.875	-181.1875	44.75
18	12	03	11	18	38	-0.160821134759	-0.554054748138	-0.107295466758	-1.427734375	0.02197265625	0.16455078125	-87.3125	-188.0	43.4375
18	12	03	11	18	38	-0.176148280538	-0.526430672085	-0.106262701461	-1.36328125	-0.05078125	0.15234375	-59.6875	-194.6875	44.4375
18	12	03	11	18	38	-0.188541325177	-0.498789158092	-0.0994282352584	-1.27587890625	-0.10595703125	0.1201171875	-23.0	-199.6875	49.25
18	12	03	11	18	38	-0.198726039512	-0.471486073473	-0.0863628212251	-1.18505859375	-0.10986328125	0.078125	14.0	-203.375	57.375
18	12	03	11	18	38	-0.207757467155	-0.444627834379	-0.0680521668267	-1.09765625	-0.06494140625	0.03466796875	42.0625	-205.1875	66.8125
18	12	03	11	18	38	-0.21685671292	-0.417783338006	-0.0469357760302	-1.0146484375	-0.00439453125	0.00244140625	54.875	-205.4375	75.3125
18	12	03	11	18	38	-0.226745641791	-0.390564027407	-0.0256347697314	-0.9453125	0.03662109375	0.00634765625	52.8125	-203.875	81.9375
18	12	03	11	18	39	-0.237675329511	-0.362982841449	-0.00555430276978	-0.8759765625	0.08544921875	0.021484375	42.625	-199.8125	86.3125
18	12	03	11	18	39	-0.249459534956	-0.335278009668	0.0115970911773	-0.82666015625	0.1484375	0.0478515625	24.8125	-193.125	86.6875
18	12	03	11	18	39	-0.261726929964	-0.307504727882	0.0244148255564	-0.7939453125	0.185546875	0.0830078125	0.75	-184.25	82.5625
18	12	03	11	18	39	-0.273625324005	-0.279912053511	0.0324712630763	-0.744140625	0.15625	0.13525390625	-22.5625	-173.5625	74.0
18	12	03	11	18	39	-0.284113994332	-0.253841053153	0.0375970398515	-0.67822265625	0.10986328125	0.19921875	-32.1875	-158.9375	63.375
18	12	03	11	18	39	-0.292429247473	-0.231392042824	0.0421767084124	-0.6279296875	0.0947265625	0.26123046875	-25.75	-137.0	52.25
18	12	03	11	18	39	-0.298340872358	-0.213989995599	0.0473024091812	-0.609375	0.083984375	0.30615234375	-10.375	-110.0	40.5625
18	12	03	11	18	39	-0.300965533275	-0.205811352302	0.0512086964951	-0.61376953125	0.08154296875	0.34912109375	3.5625	-80.875	26.9375
18	12	03	11	18	39	-0.301154454867	-0.20312971743	0.0548108432247	-0.61962890625	0.09619140625	0.37255859375	14.0	-51.0625	12.625
18	12	03	11	18	39	-0.299139139076	-0.205814563755	0.0568858758659	-0.61865234375	0.09765625	0.3779296875	17.8125	-20.0625	-1.5
18	12	03	11	18	39	-0.295292003236	-0.212710341314	0.0567024123618	-0.5908203125	0.0712890625	0.39501953125	17.1875	9.125	-15.0
18	12	03	11	18	39	-0.289859376811	-0.224245809729	0.0542608940797	-0.5908203125	0.099609375	0.427734375	13.8125	39.4375	-27.5
18	12	03	11	18	39	-0.282174157669	-0.241401426256	0.0487685814357	-0.666015625	0.162109375	0.44873046875	6.8125	72.375	-44.8125
18	12	03	11	18	39	-0.272534186616	-0.260326608268	0.0399798190892	-0.791015625	0.2099609375	0.474609375	-3.8125	106.5	-64.3125
18	12	03	11	18	39	-0.260141212164	-0.284800304072	0.0271616235131	-0.90576171875	0.22216796875	0.4853515625	-12.375	143.125	-84.5
18	12	03	11	18	39	-0.245368929196	-0.314584940566	0.0112918537068	-0.912109375	0.134765625	0.47900390625	-14.875	179.625	-99.125
18	12	03	11	18	39	-0.229005295972	-0.348695963723	-0.00396730923193	-0.85107421875	-0.00537109375	0.45654296875	-1.0	208.1875	-102.25
18	12	03	11	18	39	-0.210815939773	-0.385987262052	-0.0159302143257	-0.861328125	-0.02734375	0.45068359375	24.125	227.25	-101.5625
18	12	03	11	18	39	-0.189820719103	-0.425296067752	-0.026489450833	-1.00634765625	0.09033203125	0.35400390625	38.0	240.375	-111.0
18	12	03	11	18	39	-0.167171497898	-0.463917690954	-0.0396109171726	-1.17578125	0.17919921875	0.24951171875	26.6875	243.3125	-125.0625
18	12	03	11	18	39	-0.144896686352	-0.499570083316	-0.0578610188129	-1.30126953125	0.146484375	0.162109375	-2.75	236.6875	-136.375
18	12	03	11	18	39	-0.123902241177	-0.532047210019	-0.0789800493019	-1.38720703125	-0.01953125	0.1220703125	-22.4375	227.4375	-137.0
18	12	03	11	18	39	-0.103087728551	-0.562313347032	-0.0972283905157	-1.3935546875	-0.2138671875	0.111328125	-9.75	218.8125	-125.5625
18	12	03	11	18	39	-0.0800753039911	-0.591043630983	-0.107357057714	-1.3203125	-0.35595703125	0.1044921875	34.6875	210.375	-108.5625
18	12	03	11	18	39	-0.0537106287656	-0.617611195999	-0.107726431558	-1.228515625	-0.396484375	0.11328125	90.0625	196.5625	-92.4375
18	12	03	11	18	39	-0.0248410583202	-0.641106822101	-0.100096647777	-1.15869140625	-0.32080078125	0.13818359375	133.6875	178.5625	-78.9375
18	12	03	11	18	39	0.00439443419012	-0.660874075148	-0.0881938528434	-1.1201171875	-0.2060546875	0.14013671875	153.5	157.25	-69.5
18	12	03	11	18	39	0.0308834368972	-0.676628026565	-0.0759879030375	-1.1005859375	-0.0849609375	0.1484375	145.0	133.4375	-61.0
18	12	03	11	18	39	0.0525512083536	-0.689086111861	-0.0662841025227	-1.0927734375	0.03515625	0.171875	116.6875	112.5	-53.3125
18	12	03	11	18	39	0.0668347976443	-0.698377858124	-0.0582286730161	-1.068359375	0.103515625	0.216796875	80.25	97.4375	-46.9375
18	12	03	11	18	39	0.0765366673296	-0.705858498937	-0.0531606357608	-1.0478515625	0.10009765625	0.25927734375	50.375	86.0625	-40.125
18	12	03	11	18	39	0.0830085871275	-0.711981741796	-0.0496830808248	-1.02587890625	0.0751953125	0.29345703125	31.3125	76.9375	-31.625
18	12	03	11	18	39	0.0872789473665	-0.716785984526	-0.0466301509007	-0.990234375	0.0576171875	0.33984375	21.25	69.25	-22.75
18	12	03	11	18	39	0.0903310309816	-0.720389972078	-0.0437006879614	-0.95166015625	0.04150390625	0.3857421875	16.375	62.125	-16.5625
18	12	03	11	18	39	0.092774467429	-0.72290841594	-0.040649865334	-0.9306640625	0.0439453125	0.419921875	14.3125	55.6875	-13.0625
18	12	03	11	18	39	0.0942999030699	-0.724430776399	-0.037658925692	-0.931640625	0.06494140625	0.4384765625	11.1875	48.4375	-11.0625
18	12	03	11	18	39	0.0939941287197	-0.725219634706	-0.0354003861412	-0.9580078125	0.1083984375	0.43359375	1.625	40.625	-9.3125
18	12	03	11	18	39	0.0907565837839	-0.725442336823	-0.0349721065959	-1.01611328125	0.138671875	0.39892578125	-16.125	30.8125	-8.0625
18	12	03	11	18	39	0.0845347498472	-0.724740519628	-0.0371098396441	-1.08251953125	0.1162109375	0.3544921875	-37.75	17.5625	-5.5
18	12	03	11	18	39	0.0757446441435	-0.722839500879	-0.0413208090936	-1.16162109375	0.0439453125	0.31884765625	-54.9375	2.625	0.875
18	12	03	11	18	39	0.0652464261072	-0.71929759745	-0.045654187772	-1.267578125	-0.0185546875	0.28662109375	-61.3125	-13.625	11.3125
18	12	03	11	18	39	0.0537731234096	-0.713760391773	-0.0488902064144	-1.3583984375	-0.052734375	0.2421875	-59.0625	-33.3125	22.5
18	12	03	11	18	39	0.0416248974804	-0.70585328352	-0.0508409671571	-1.392578125	-0.09033203125	0.20361328125	-54.6875	-56.75	34.125
18	12	03	11	18	39	0.0286252673827	-0.695368169063	-0.0513912049812	-1.40234375	-0.09912109375	0.16064453125	-50.0	-82.25	45.1875
18	12	03	11	18	39	0.0148924584856	-0.682001357041	-0.0509029113811	-1.33056640625	-0.10986328125	0.109375	-46.6875	-110.9375	56.25
18	12	03	11	18	39	-0.000732420121955	-0.665159540756	-0.0495604282523	-1.27197265625	-0.099609375	0.111328125	-49.5	-136.625	67.0625
18	12	03	11	18	39	-0.0186159504718	-0.64575985571	-0.0482183635171	-1.30126953125	-0.00927734375	0.1044921875	-57.875	-153.5625	75.0625
18	12	03	11	18	39	-0.0393667629526	-0.624131035586	-0.0489490602914	-1.37939453125	0.0810546875	0.0693359375	-77.9375	-167.0	78.125
18	12	03	11	18	39	-0.0627450874109	-0.600045675424	-0.0531624232829	-1.43603515625	0.08544921875	0.06494140625	-103.3125	-179.75	77.0625
18	12	03	11	18	39	-0.0874041179935	-0.573681078925	-0.0596935945515	-1.466796875	0.056640625	0.08154296875	-119.5625	-189.1875	75.5625
18	12	03	11	18	40	-0.112119107953	-0.545703290262	-0.0669540889629	-1.490234375	0.0361328125	0.10302734375	-123.9375	-194.9375	73.5625
18	12	03	11	18	40	-0.135683513117	-0.516549514851	-0.0734876067447	-1.47119140625	-0.0048828125	0.10546875	-117.6875	-198.6875	71.4375
18	12	03	11	18	40	-0.157224221451	-0.486565020733	-0.0774524600238	-1.4013671875	-0.07177734375	0.10546875	-99.9375	-202.125	71.0
18	12	03	11	18	40	-0.176272027249	-0.456366325396	-0.0766002057472	-1.30322265625	-0.1298828125	0.11376953125	-68.8125	-204.8125	73.5625
18	12	03	11	18	40	-0.192812330533	-0.426762841116	-0.069031575129	-1.201171875	-0.12548828125	0.1044921875	-28.8125	-205.375	79.5
18	12	03	11	18	40	-0.207825704605	-0.398134235282	-0.0558474360391	-1.1142578125	-0.06201171875	0.078125	3.5	-203.625	86.75
18	12	03	11	18	40	-0.222471035324	-0.370479885985	-0.0396724754349	-1.0126953125	-0.00390625	0.06201171875	19.625	-198.5	93.625
18	12	03	11	18	40	-0.23675624382	-0.34375126713	-0.0223389495329	-0.943359375	0.03857421875	0.052734375	26.125	-191.3125	96.5625
18	12	03	11	18	40	-0.250738645689	-0.317451727417	-0.00463878701859	-0.86279296875	0.07373046875	0.0498046875	29.1875	-186.125	97.4375
18	12	03	11	18	40	-0.264219404427	-0.291196761035	0.0125731571522	-0.7822265625	0.11767578125	0.08203125	26.8125	-182.0	95.375
18	12	03	11	18	40	-0.27740839494	-0.265506384596	0.0275882496178	-0.71728515625	0.15673828125	0.11572265625	16.125	-172.8125	92.0625
18	12	03	11	18	40	-0.289673267023	-0.24066196626	0.0393677322439	-0.6650390625	0.16796875	0.15380859375	1.8125	-161.4375	84.0625
18	12	03	11	18	40	-0.301031295567	-0.217045273122	0.047181101272	-0.59619140625	0.154296875	0.193359375	-15.5	-146.3125	74.25
18	12	03	11	18	40	-0.309763906493	-0.196539857913	0.0523699372948	-0.5546875	0.12744140625	0.26904296875	-20.125	-124.5	57.1875
18	12	03	11	18	40	-0.315311989186	-0.184694943724	0.0550544743023	-0.53662109375	0.10009765625	0.310546875	-14.8125	-94.3125	41.5625
18	12	03	11	18	40	-0.317807930492	-0.179503192544	0.0571285237067	-0.5849609375	0.068359375	0.34716796875	0.0	-61.5625	24.5
18	12	03	11	18	40	-0.316969147102	-0.180915954556	0.0595118271566	-0.6513671875	0.048828125	0.37646484375	18.75	-31.25	6.875
18	12	03	11	18	40	-0.314089356602	-0.187989743166	0.0618901297307	-0.67431640625	0.044921875	0.388671875	32.125	-1.8125	-4.5
18	12	03	11	18	40	-0.309814952873	-0.199158036096	0.0623169950518	-0.6396484375	0.0341796875	0.4111328125	31.625	26.9375	-14.8125
18	12	03	11	18	40	-0.304078117532	-0.214661328655	0.058960148843	-0.6396484375	0.05908203125	0.45654296875	20.625	58.6875	-28.6875
18	12	03	11	18	40	-0.295972154277	-0.235239571578	0.0512717281074	-0.720703125	0.11669921875	0.48779296875	6.3125	91.6875	-47.5
18	12	03	11	18	40	-0.286323609069	-0.256842836701	0.0398570276534	-0.81005859375	0.16015625	0.53076171875	-10.5625	125.875	-67.5625
18	12	03	11	18	40	-0.274356378179	-0.283877978845	0.0236208939611	-0.892578125	0.1865234375	0.55859375	-24.0625	164.3125	-85.5
18	12	03	11	18	40	-0.260445706147	-0.316294738518	0.00390638040624	-0.8935546875	0.115234375	0.52392578125	-29.4375	202.875	-98.375
18	12	03	11	18	40	-0.245118517945	-0.352602011496	-0.0159302622469	-0.8564453125	-0.02197265625	0.5146484375	-19.9375	230.375	-100.9375
18	12	03	11	18	40	-0.227480489567	-0.391483729564	-0.0333255560246	-0.87744140625	-0.03466796875	0.4921875	0.625	247.1875	-104.125
18	12	03	11	18	40	-0.206850499817	-0.431767611598	-0.049744218752	-1.044921875	0.080078125	0.36328125	11.5625	257.5	-115.3125
18	12	03	11	18	40	-0.185001341217	-0.470102385369	-0.0681776635234	-1.2158203125	0.08642578125	0.2021484375	1.625	252.375	-125.25
18	12	03	11	18	40	-0.164068425715	-0.503863413051	-0.0897859576739	-1.2978515625	-0.01220703125	0.09521484375	-21.0625	234.375	-129.8125
18	12	03	11	18	40	-0.14367444243	-0.533682805698	-0.110471852506	-1.35009765625	-0.2236328125	0.0615234375	-20.6875	215.5	-123.8125
18	12	03	11	18	40	-0.121825682868	-0.561216009002	-0.124450184052	-1.310546875	-0.39306640625	0.06689453125	14.9375	200.8125	-110.3125
18	12	03	11	18	40	-0.0963727924035	-0.587513932663	-0.128720848118	-1.24560546875	-0.43603515625	0.08837890625	71.125	190.3125	-96.875
18	12	03	11	18	40	-0.0674421262971	-0.612166992543	-0.124203372864	-1.18603515625	-0.37646484375	0.12744140625	121.625	179.0625	-85.625
18	12	03	11	18	40	-0.0366211427264	-0.634095086307	-0.114074859593	-1.1591796875	-0.24853515625	0.154296875	152.1875	164.375	-79.5
18	12	03	11	18	40	-0.00573732125174	-0.652223562725	-0.101623828555	-1.16064453125	-0.1416015625	0.16943359375	162.0625	143.8125	-76.0
18	12	03	11	18	40	0.023315225186	-0.666559094911	-0.0891105465224	-1.15087890625	-0.037109375	0.173828125	155.875	122.0625	-72.1875
18	12	03	11	18	40	0.0493164994871	-0.677857726861	-0.0780641124307	-1.12646484375	0.05859375	0.208984375	138.75	104.6875	-68.0625
18	12	03	11	18	40	0.0718387157069	-0.687503223214	-0.0691531562412	-1.0751953125	0.1171875	0.24951171875	116.4375	95.375	-63.9375
18	12	03	11	18	40	0.0888677671849	-0.694767715567	-0.0601200210694	-1.044921875	0.1201171875	0.28369140625	93.625	90.375	-58.4375
18	12	03	11	18	40	0.102844299964	-0.701111260351	-0.0528564770143	-1.04150390625	0.10107421875	0.3212890625	74.0625	85.875	-52.3125
18	12	03	11	18	40	0.114261699462	-0.706322855863	-0.0466934829533	-1.033203125	0.08056640625	0.3583984375	59.8125	79.625	-45.3125
18	12	03	11	18	40	0.123598652948	-0.71064647717	-0.0415657692135	-1.00390625	0.0703125	0.38232421875	47.5	73.5	-40.0
18	12	03	11	18	40	0.130796459541	-0.714345199472	-0.0372309100887	-0.978515625	0.0654296875	0.39990234375	36.1875	68.4375	-34.375
18	12	03	11	18	40	0.135620036604	-0.717589905651	-0.0335082808712	-0.98046875	0.0771484375	0.408203125	24.0	63.8125	-27.8125
18	12	03	11	18	40	0.137268874112	-0.720463223662	-0.0306398287257	-1.00732421875	0.09716796875	0.39697265625	8.6875	56.8125	-20.0625
18	12	03	11	18	40	0.134770402426	-0.722803942721	-0.0293589508908	-1.046875	0.11962890625	0.3701171875	-13.375	46.375	-11.8125
18	12	03	11	18	40	0.127809257216	-0.724435565376	-0.0304569337874	-1.12109375	0.0908203125	0.3251953125	-39.375	32.1875	-1.75
18	12	03	11	18	40	0.116701275552	-0.724805254802	-0.0334478551268	-1.2001953125	0.0390625	0.287109375	-62.125	15.5	10.5
18	12	03	11	18	40	0.102539153795	-0.723572421573	-0.0371094080402	-1.26220703125	-0.01708984375	0.25	-75.375	-2.9375	24.75
18	12	03	11	18	40	0.0867312962861	-0.719912483951	-0.0403443960909	-1.2841796875	-0.06884765625	0.21630859375	-77.875	-25.0625	39.125
18	12	03	11	18	41	0.0698856549679	-0.713444035738	-0.0424196770329	-1.27734375	-0.09130859375	0.1904296875	-74.6875	-50.5625	52.4375
18	12	03	11	18	41	0.0518808212489	-0.703931189957	-0.0433357448079	-1.2275390625	-0.07470703125	0.15576171875	-72.625	-77.75	63.4375
18	12	03	11	18	41	0.0325934165445	-0.691969219786	-0.044739652298	-1.18359375	-0.0595703125	0.13720703125	-77.0	-103.625	72.125
18	12	03	11	18	41	0.0109250878064	-0.677050273946	-0.0468741197503	-1.19921875	-0.0068359375	0.13427734375	-88.1875	-124.4375	78.1875
18	12	03	11	18	41	-0.0133057335071	-0.659610376196	-0.0509646214605	-1.28515625	0.068359375	0.10693359375	-106.25	-140.875	79.8125
18	12	03	11	18	41	-0.0399181999287	-0.639362605892	-0.0583513748194	-1.37255859375	0.0986328125	0.09130859375	-129.6875	-157.1875	76.875
18	12	03	11	18	41	-0.0679942066457	-0.616220386261	-0.0686045675671	-1.451171875	0.08251953125	0.09228515625	-148.1875	-171.625	72.3125
18	12	03	11	18	41	-0.0957624923969	-0.590565886827	-0.0799546622306	-1.51904296875	0.04248046875	0.099609375	-152.9375	-182.9375	67.125
18	12	03	11	18	41	-0.121823952442	-0.56297802471	-0.0904524536666	-1.55859375	-0.00244140625	0.1005859375	-144.5625	-191.5	62.8125
18	12	03	11	18	41	-0.14508048966	-0.533996299552	-0.0975951632168	-1.53173828125	-0.09033203125	0.07666015625	-120.125	-199.5	61.125
18	12	03	11	18	41	-0.164919516051	-0.504158106064	-0.0988784663225	-1.4482421875	-0.17041015625	0.07177734375	-82.1875	-207.25	64.1875
18	12	03	11	18	41	-0.181400704947	-0.474498344637	-0.0922873034591	-1.33935546875	-0.19677734375	0.060546875	-33.875	-212.25	71.375
18	12	03	11	18	41	-0.195317611561	-0.44550726462	-0.0775777138418	-1.22509765625	-0.1611328125	0.0419921875	13.375	-214.625	81.6875
18	12	03	11	18	41	-0.208074583371	-0.417247829839	-0.0566421863796	-1.11376953125	-0.08203125	0.0185546875	46.8125	-214.4375	92.625
18	12	03	11	18	41	-0.220950398382	-0.389409818144	-0.0328373796491	-1.009765625	0.01171875	0.02978515625	59.8125	-210.75	102.1875
18	12	03	11	18	41	-0.234861908491	-0.362058430657	-0.00946039392309	-0.90771484375	0.10009765625	0.04443359375	54.6875	-202.6875	108.75
18	12	03	11	18	41	-0.250068663502	-0.335032192815	0.0106814781823	-0.83837890625	0.1787109375	0.0751953125	34.625	-191.3125	110.875
18	12	03	11	18	41	-0.266119969144	-0.308235285362	0.02502504297	-0.79638671875	0.240234375	0.1064453125	2.4375	-178.3125	106.6875
18	12	03	11	18	41	-0.282481853275	-0.281261101964	0.0324109472967	-0.76220703125	0.23828125	0.13818359375	-34.8125	-166.25	98.0625
18	12	03	11	18	41	-0.298471628834	-0.254463848795	0.0329600571718	-0.68017578125	0.21435546875	0.21728515625	-69.1875	-151.5625	86.4375
18	12	03	11	18	41	-0.312194888185	-0.230468797221	0.0283203183026	-0.5439453125	0.16845703125	0.27783203125	-87.6875	-125.0	67.4375
18	12	03	11	18	41	-0.320985718038	-0.216065685844	0.0205079295039	-0.53857421875	0.11474609375	0.3115234375	-81.9375	-87.3125	40.8125
18	12	03	11	18	41	-0.32501554274	-0.210085163964	0.0115357629254	-0.720703125	0.06005859375	0.32177734375	-63.4375	-51.9375	17.3125
18	12	03	11	18	41	-0.32654351691	-0.210391682764	0.00323491708341	-0.8017578125	-0.00146484375	0.279296875	-42.375	-25.4375	7.5
18	12	03	11	18	41	-0.326418533979	-0.214845407555	-0.00347903074734	-0.759765625	-0.07958984375	0.26318359375	-19.625	-3.3125	2.625
18	12	03	11	18	41	-0.324346179699	-0.224185833277	-0.00720226744533	-0.68701171875	-0.10009765625	0.2646484375	9.0625	22.5625	-3.75
18	12	03	11	18	41	-0.319523610252	-0.239993664854	-0.00897229621912	-0.74560546875	-0.01904296875	0.2734375	29.6875	52.0625	-15.25
18	12	03	11	18	41	-0.311825538434	-0.261655134716	-0.0120848417714	-0.8681640625	0.1025390625	0.27490234375	30.3125	81.5625	-32.375
18	12	03	11	18	41	-0.302497514179	-0.281989208133	-0.0181889142908	-0.9443359375	0.14794921875	0.29248046875	16.625	111.4375	-50.4375
18	12	03	11	18	41	-0.291330029139	-0.305673745219	-0.0281380983518	-0.8955078125	0.05712890625	0.3173828125	6.25	139.25	-63.125
18	12	03	11	18	41	-0.278570782996	-0.332527087152	-0.0375985105884	-0.8154296875	-0.05419921875	0.361328125	18.625	160.5	-66.75
18	12	03	11	18	41	-0.263679901366	-0.362987123478	-0.0443739093271	-0.8427734375	0.0078125	0.40283203125	41.0	179.9375	-69.5625
18	12	03	11	18	41	-0.245609993769	-0.396735824924	-0.0506601130288	-0.994140625	0.15283203125	0.36767578125	52.9375	199.5	-82.5625
18	12	03	11	18	41	-0.225159265554	-0.431519655047	-0.0595094290907	-1.14501953125	0.203125	0.29833984375	45.25	212.375	-98.5625
18	12	03	11	18	41	-0.203673891889	-0.465025886216	-0.0722044393482	-1.22900390625	0.12890625	0.248046875	27.375	215.25	-111.125
18	12	03	11	18	41	-0.181089968143	-0.49718870256	-0.0859368638846	-1.2744140625	-0.00146484375	0.216796875	24.3125	214.375	-116.75
18	12	03	11	18	41	-0.156558862112	-0.528760008763	-0.0968040371579	-1.287109375	-0.115234375	0.20166015625	43.0625	214.25	-116.3125
18	12	03	11	18	41	-0.129211746362	-0.559632736131	-0.102234140366	-1.24853515625	-0.20556640625	0.1748046875	77.125	211.625	-111.875
18	12	03	11	18	41	-0.0986955275525	-0.589243427948	-0.10174733731	-1.1962890625	-0.23974609375	0.1640625	113.375	206.0625	-108.0625
18	12	03	11	18	41	-0.065856456788	-0.616755788548	-0.0964958833938	-1.154296875	-0.205078125	0.18359375	141.125	197.875	-104.4375
18	12	03	11	18	41	-0.0321661677725	-0.641492264306	-0.0886858477676	-1.13818359375	-0.1259765625	0.189453125	153.8125	186.5	-102.4375
18	12	03	11	18	41	-0.0003051747774	-0.662717546602	-0.0812985606994	-1.1474609375	-0.0517578125	0.16455078125	144.625	170.125	-99.3125
18	12	03	11	18	41	0.0274661766936	-0.680367714674	-0.0759897555189	-1.15478515625	-0.00537109375	0.1728515625	120.0625	151.25	-92.875
18	12	03	11	18	41	0.0502330550926	-0.695450096872	-0.0729996766595	-1.1484375	0.03076171875	0.19970703125	91.5625	136.0	-83.4375
18	12	03	11	18	41	0.067931777146	-0.708919668958	-0.0720821462798	-1.162109375	0.05224609375	0.22607421875	63.3125	125.8125	-72.125
18	12	03	11	18	41	0.0805035912114	-0.721053393913	-0.0729353991642	-1.17822265625	0.04638671875	0.22998046875	36.5	115.25	-59.4375
18	12	03	11	18	41	0.0885612656159	-0.731744323549	-0.0750115750806	-1.15869140625	0.03759765625	0.25537109375	13.5625	102.6875	-46.875
18	12	03	11	18	41	0.0913066717874	-0.738876048568	-0.0757430345509	-1.111328125	0.01953125	0.27978515625	-3.125	90.0625	-34.4375
18	12	03	11	18	41	0.0919787054867	-0.744496515943	-0.0762318534525	-1.05712890625	-0.01318359375	0.31640625	-10.0625	79.125	-22.4375
18	12	03	11	18	41	0.0914317209805	-0.748726916734	-0.0751351458792	-1.0439453125	0.01123046875	0.34375	-8.375	69.0	-11.9375
18	12	03	11	18	42	0.089598942314	-0.751459249162	-0.0728754340074	-1.03857421875	0.04833984375	0.3642578125	-7.5	56.9375	-3.8125
18	12	03	11	18	42	0.085752750797	-0.752732153437	-0.0703721862412	-1.06494140625	0.10595703125	0.38330078125	-13.5	43.8125	1.625
18	12	03	11	18	42	0.0792206520098	-0.752657226953	-0.0687840329854	-1.11669921875	0.126953125	0.3603515625	-25.875	28.875	6.0625
18	12	03	11	18	42	0.0707412973911	-0.750809921663	-0.0683608740967	-1.1884765625	0.0751953125	0.33203125	-36.75	10.5	12.5
18	12	03	11	18	42	0.0612805066975	-0.746840916285	-0.067689324629	-1.25537109375	0.0087890625	0.28125	-38.25	-11.8125	22.0625
18	12	03	11	18	42	0.0511480393289	-0.740486889186	-0.0658576783244	-1.28466796875	-0.0419921875	0.2265625	-34.0	-37.0	34.4375
18	12	03	11	18	42	0.0406496941368	-0.731389316578	-0.0626225017783	-1.27099609375	-0.0927734375	0.18310546875	-28.0625	-64.875	46.75
18	12	03	11	18	42	0.0295417473671	-0.71931713372	-0.0582289813805	-1.21728515625	-0.130859375	0.13427734375	-23.3125	-94.375	59.0
18	12	03	11	18	42	0.0168449774401	-0.705169816462	-0.0526710707639	-1.20263671875	-0.1240234375	0.12890625	-23.25	-120.1875	71.1875
18	12	03	11	18	42	0.00170896128749	-0.688467261532	-0.0469354010743	-1.2568359375	-0.046875	0.11669921875	-31.25	-139.0625	80.25
18	12	03	11	18	42	-0.0166013039294	-0.669484201477	-0.043212217581	-1.33837890625	0.04248046875	0.103515625	-52.25	-153.8125	83.875
18	12	03	11	18	42	-0.0382075944757	-0.648064278184	-0.043334492137	-1.3857421875	0.0712890625	0.0947265625	-81.1875	-167.75	82.875
18	12	03	11	18	42	-0.0623166472945	-0.624143031571	-0.0469968838558	-1.39697265625	0.07666015625	0.1376953125	-106.3125	-179.0625	80.4375
18	12	03	11	18	42	-0.0874628018733	-0.598201619791	-0.0529781661033	-1.42041015625	0.087890625	0.158203125	-121.875	-186.75	76.375
18	12	03	11	18	42	-0.112366488065	-0.570621562694	-0.060669358575	-1.435546875	0.10107421875	0.1640625	-129.5625	-191.8125	69.5625
18	12	03	11	18	42	-0.135804726994	-0.54150990467	-0.0688484188985	-1.39697265625	0.041015625	0.15673828125	-128.1875	-196.375	62.625
18	12	03	11	18	42	-0.156738420801	-0.511536099975	-0.0751953794498	-1.33349609375	-0.02978515625	0.15087890625	-112.3125	-199.625	57.75
18	12	03	11	18	42	-0.174681758212	-0.481565014779	-0.0772701278466	-1.24951171875	-0.0712890625	0.12646484375	-82.875	-200.375	57.0625
18	12	03	11	18	42	-0.189883834774	-0.452339794122	-0.0740980313134	-1.16943359375	-0.06640625	0.0966796875	-49.4375	-199.4375	59.1875
18	12	03	11	18	42	-0.203185228655	-0.423887477624	-0.0664670213294	-1.09375	-0.02685546875	0.0576171875	-22.0	-197.5625	62.375
18	12	03	11	18	42	-0.215455388188	-0.396120529559	-0.0558475014709	-1.01171875	-0.0029296875	0.048828125	-4.4375	-194.5	66.0
18	12	03	11	18	42	-0.227170669449	-0.369137079211	-0.0433955792525	-0.93798828125	0.0283203125	0.05078125	6.625	-189.25	68.9375
18	12	03	11	18	42	-0.23858038259	-0.343069923392	-0.0303947379202	-0.87646484375	0.08984375	0.06201171875	10.125	-181.875	70.125
18	12	03	11	18	42	-0.249701600432	-0.317940756943	-0.0183720805989	-0.83447265625	0.15283203125	0.08251953125	5.3125	-172.625	68.5
18	12	03	11	18	42	-0.260436649349	-0.293761798293	-0.00848387491433	-0.7841796875	0.1689453125	0.1044921875	-3.6875	-161.8125	64.375
18	12	03	11	18	42	-0.270382969229	-0.270810210941	-0.0010986215454	-0.75146484375	0.169921875	0.1328125	-13.875	-149.3125	58.0
18	12	03	11	18	42	-0.279246264618	-0.249765183567	0.0039674332678	-0.72705078125	0.15185546875	0.18701171875	-21.3125	-134.0625	50.3125
18	12	03	11	18	42	-0.291076734434	-0.223754939911	0.00970459232019	-0.73779296875	0.1220703125	0.25927734375	-13.875	-86.375	30.4375
18	12	03	11	18	42	-0.293582333403	-0.220339339623	0.0112916282078	-0.75048828125	0.09716796875	0.2763671875	-3.625	-60.4375	20.5
18	12	03	11	18	42	-0.294734903044	-0.220639195383	0.0123899741806	-0.69970703125	0.021484375	0.27880859375	6.625	-35.5	14.9375
18	12	03	11	18	42	-0.294674313265	-0.224972974046	0.0135496473788	-0.6796875	0.0107421875	0.3369140625	16.75	-10.5625	9.75
18	12	03	11	18	42	-0.293029249718	-0.234618711917	0.0145263406442	-0.7041015625	0.0771484375	0.37939453125	23.3125	19.5	0.5625
18	12	03	11	18	42	-0.288944968918	-0.25000392748	0.0136110536689	-0.7607421875	0.12939453125	0.40185546875	23.375	52.625	-14.9375
18	12	03	11	18	42	-0.282111175232	-0.270209037809	0.00964378314295	-0.80810546875	0.130859375	0.42919921875	19.375	84.625	-32.5625
18	12	03	11	18	42	-0.273259722648	-0.290716117706	0.00421150789875	-0.798828125	0.09033203125	0.43896484375	18.375	114.4375	-48.9375
18	12	03	11	18	42	-0.262206901824	-0.315124356173	-0.00122070252246	-0.73193359375	0.02099609375	0.45068359375	29.3125	138.875	-58.5625
18	12	03	11	18	42	-0.248842724659	-0.342959840535	-0.00598150282477	-0.7607421875	0.0537109375	0.48193359375	41.5625	159.375	-67.4375
18	12	03	11	18	42	-0.232609459646	-0.374396857902	-0.0119631209894	-0.86376953125	0.1650390625	0.45556640625	44.375	183.125	-82.625
18	12	03	11	18	42	-0.213812302308	-0.408520051199	-0.0207525500385	-1.00634765625	0.15283203125	0.408203125	38.875	204.5625	-99.25
18	12	03	11	18	42	-0.193174607909	-0.443599699932	-0.0322262853005	-1.12890625	0.07763671875	0.36865234375	31.5	217.625	-111.0625
18	12	03	11	18	42	-0.170901220667	-0.47888963477	-0.044312245073	-1.22998046875	0.0126953125	0.3203125	32.5	224.75	-118.125
18	12	03	11	18	42	-0.146912808998	-0.51337085022	-0.0551762273926	-1.25732421875	-0.06005859375	0.251953125	42.75	224.75	-121.5625
18	12	03	11	18	42	-0.121456648514	-0.546005616886	-0.0640241328095	-1.1953125	-0.13671875	0.21875	55.125	219.5625	-121.75
18	12	03	11	18	42	-0.0949098247757	-0.576416967962	-0.0700684751399	-1.1083984375	-0.19140625	0.193359375	69.9375	210.75	-118.3125
18	12	03	11	18	42	-0.0678705761934	-0.604304473823	-0.0733636983673	-1.04443359375	-0.19921875	0.18701171875	83.0625	200.5625	-112.3125
18	12	03	11	18	42	-0.0411373757903	-0.62981688543	-0.0742792082148	-1.0341796875	-0.158203125	0.1875	90.9375	190.625	-105.0
18	12	03	11	18	42	-0.0161133438281	-0.652651460433	-0.0741580028455	-1.06396484375	-0.1123046875	0.1708984375	88.4375	177.8125	-96.125
18	12	03	11	18	42	0.00579820550411	-0.672408737251	-0.0741559967105	-1.119140625	-0.08203125	0.173828125	76.25	161.25	-85.5
18	12	03	11	18	43	0.0242315308812	-0.689286343177	-0.0745867272967	-1.16796875	-0.041015625	0.19140625	61.4375	143.875	-75.1875
18	12	03	11	18	43	0.0390020096267	-0.703745181527	-0.0756846509188	-1.17236328125	0.01220703125	0.21728515625	44.6875	128.625	-64.75
18	12	03	11	18	43	0.0501097568775	-0.716246037707	-0.0775755188689	-1.15625	0.01025390625	0.248046875	27.5	114.75	-53.875
18	12	03	11	18	43	0.0584116012182	-0.727001653198	-0.0794690750116	-1.13427734375	-0.0146484375	0.265625	17.375	101.5625	-42.875
18	12	03	11	18	43	0.0643929321962	-0.733652175354	-0.0786143096386	-1.1083984375	-0.044921875	0.30517578125	17.6875	88.75	-31.8125
18	12	03	11	18	43	0.0702510139268	-0.738276511258	-0.0755610384373	-1.10693359375	-0.04833984375	0.33544921875	26.9375	75.0625	-21.875
18	12	03	11	18	43	0.0757432336105	-0.741075215551	-0.0701281026741	-1.08984375	0.00390625	0.3623046875	36.1875	61.625	-14.0
18	12	03	11	18	43	0.0801395073624	-0.742312786399	-0.0638430500389	-1.07470703125	0.04296875	0.37158203125	36.3125	48.375	-8.25
18	12	03	11	18	43	0.0823362133736	-0.742185585339	-0.057861178857	-1.08447265625	0.07421875	0.37548828125	27.4375	35.5625	-2.75
18	12	03	11	18	43	0.0817880351631	-0.740914148392	-0.0529180794675	-1.11572265625	0.07666015625	0.34814453125	13.5625	21.125	3.3125
18	12	03	11	18	43	0.0784303338485	-0.738099632085	-0.0488282234076	-1.19677734375	0.0595703125	0.3212890625	-0.25	4.1875	11.4375
18	12	03	11	18	43	0.0725697644271	-0.733693135558	-0.0454705420506	-1.26171875	0.04443359375	0.2783203125	-11.3125	-14.8125	19.9375
