19	01	14	15	55	26	-0.666904088958	0.359360416929	-0.438885998325	-0.69140625	0.10791015625	0.40576171875	119.0	11.5625	-89.8125
19	01	14	15	55	26	-0.677954116475	0.353930133367	-0.444808210377	-0.69580078125	0.1875	0.4765625	96.25	29.4375	-84.9375
19	01	14	15	55	26	-0.685440407556	0.352515697092	-0.449616194681	-0.7333984375	0.19140625	0.541015625	63.6875	43.625	-80.25
19	01	14	15	55	26	-0.690112698672	0.353814744335	-0.453971721298	-0.82861328125	0.0966796875	0.548828125	42.25	50.4375	-68.125
19	01	14	15	55	26	-0.695041738693	0.354905840402	-0.456830647534	-0.8837890625	-0.0322265625	0.5029296875	40.8125	37.9375	-59.9375
19	01	14	15	55	27	-0.700468469777	0.354475984357	-0.457620683662	-0.953125	-0.083984375	0.5283203125	37.25	19.6875	-50.8125
19	01	14	15	55	27	-0.706177856138	0.349915095008	-0.458740947859	-0.986328125	0.037109375	0.59521484375	45.125	9.375	-38.125
19	01	14	15	55	27	-0.710550858423	0.342885648739	-0.461961814757	-1.0087890625	0.1064453125	0.58740234375	51.5625	10.1875	-21.8125
19	01	14	15	55	27	-0.712628952623	0.336783706798	-0.465686785587	-1.0234375	0.173828125	0.5791015625	36.25	14.6875	-11.75
19	01	14	15	55	27	-0.71255419616	0.332077720026	-0.468912538681	-1.044921875	0.2158203125	0.576171875	16.375	15.25	-1.125
19	01	14	15	55	27	-0.710905677055	0.328720636729	-0.470987217533	-1.07861328125	0.20654296875	0.60986328125	-1.75	13.3125	9.625
19	01	14	15	55	27	-0.708356652205	0.325736640774	-0.472339490903	-1.12451171875	0.18505859375	0.6279296875	-11.625	9.9375	19.9375
19	01	14	15	55	27	-0.704976271357	0.321758713756	-0.473971580241	-1.2109375	0.2158203125	0.65283203125	-13.5	7.3125	30.75
19	01	14	15	55	27	-0.700589352334	0.317917060398	-0.475502364669	-1.26220703125	0.22607421875	0.6171875	-19.4375	3.375	39.25
19	01	14	15	55	27	-0.695111870355	0.315543802769	-0.47563498162	-1.26123046875	0.146484375	0.552734375	-33.125	-4.25	50.125
19	01	14	15	55	27	-0.689427168799	0.314990582345	-0.47202812708	-1.1533203125	0.0146484375	0.45947265625	-53.5	-22.625	59.8125
19	01	14	15	55	27	-0.683435555507	0.315962303167	-0.463781638355	-0.9912109375	-0.09619140625	0.37939453125	-78.75	-44.9375	70.25
19	01	14	15	55	27	-0.675552812732	0.317605640749	-0.451080570865	-0.90185546875	-0.1162109375	0.33056640625	-112.9375	-65.3125	82.9375
19	01	14	15	55	27	-0.665264479807	0.321157953463	-0.434008781276	-0.92041015625	-0.0625	0.3212890625	-148.3125	-79.5	92.4375
19	01	14	15	55	27	-0.652936772308	0.326285285545	-0.41362427612	-0.99072265625	-0.001953125	0.3046875	-173.5625	-87.3125	95.5625
19	01	14	15	55	27	-0.638471240295	0.333059703498	-0.390675309161	-1.1240234375	0.0244140625	0.3173828125	-193.3125	-89.6875	95.5
19	01	14	15	55	27	-0.623081806931	0.339768480672	-0.3660124984	-1.306640625	0.0341796875	0.3203125	-198.9375	-94.8125	93.1875
19	01	14	15	55	27	-0.609370002439	0.34307579965	-0.34124475998	-1.40087890625	0.04833984375	0.28955078125	-179.1875	-108.0625	85.4375
19	01	14	15	55	27	-0.59836793497	0.341113666723	-0.318226276309	-1.33447265625	-0.03271484375	0.30615234375	-142.9375	-120.375	80.3125
19	01	14	15	55	27	-0.590426214646	0.332931052397	-0.298630914644	-1.21337890625	-0.13427734375	0.33935546875	-96.6875	-131.1875	78.5
19	01	14	15	55	27	-0.585730688489	0.318224425318	-0.284046121103	-1.025390625	-0.1435546875	0.37890625	-43.25	-137.375	76.5
19	01	14	15	55	27	-0.582863627548	0.298877820325	-0.273793322846	-0.8515625	-0.07275390625	0.3671875	-4.1875	-138.875	76.25
19	01	14	15	55	27	-0.580179914746	0.278127484904	-0.265066418025	-0.70458984375	0.05419921875	0.3447265625	7.25	-136.9375	74.9375
19	01	14	15	55	27	-0.576271273638	0.258900947127	-0.254811752535	-0.58935546875	0.17626953125	0.3359375	-7.25	-133.0	73.8125
19	01	14	15	55	27	-0.570593412275	0.243519918171	-0.241139648294	-0.51025390625	0.2470703125	0.32275390625	-38.6875	-125.6875	70.8125
19	01	14	15	55	27	-0.563497699717	0.232893666427	-0.223922133679	-0.47802734375	0.24267578125	0.33642578125	-71.0625	-114.5625	64.8125
19	01	14	15	55	27	-0.555937801975	0.226000404074	-0.204944465806	-0.46044921875	0.19189453125	0.3564453125	-89.125	-101.875	56.75
19	01	14	15	55	27	-0.548269517508	0.221920067423	-0.188473368592	-0.46533203125	0.12255859375	0.3896484375	-88.25	-87.5	48.5625
19	01	14	15	55	27	-0.54196176659	0.219348039316	-0.174916939532	-0.509765625	0.087890625	0.4091796875	-73.4375	-72.5	37.875
19	01	14	15	55	27	-0.537942402862	0.217581650352	-0.165947968389	-0.5888671875	0.07080078125	0.412109375	-48.875	-58.0625	23.5
19	01	14	15	55	27	-0.53593258129	0.216728914265	-0.16143282969	-0.66357421875	0.0517578125	0.416015625	-25.1875	-43.5625	11.625
19	01	14	15	55	27	-0.535255875508	0.21739811044	-0.159478175907	-0.716796875	-0.0361328125	0.439453125	-9.8125	-30.0	4.3125
19	01	14	15	55	27	-0.535034054119	0.221679635473	-0.158752404148	-0.791015625	-0.0595703125	0.47900390625	-11.8125	-10.9375	-3.375
19	01	14	15	55	27	-0.53521175134	0.230344298045	-0.159361145256	-0.8662109375	-0.10498046875	0.46923828125	-14.625	11.0625	-11.6875
19	01	14	15	55	27	-0.535502304832	0.24254458165	-0.161981207776	-0.9091796875	-0.17333984375	0.5224609375	-11.375	36.6875	-15.625
19	01	14	15	55	27	-0.536467834779	0.257126164724	-0.168935491088	-0.94189453125	-0.23046875	0.595703125	7.1875	66.8125	-20.3125
19	01	14	15	55	27	-0.538862285575	0.272757453193	-0.18346585462	-1.00341796875	-0.228515625	0.59765625	42.9375	98.1875	-27.4375
19	01	14	15	55	27	-0.543680349474	0.284657066676	-0.2040327131	-1.068359375	-0.12255859375	0.62451171875	77.375	124.75	-40.375
19	01	14	15	55	27	-0.551054460944	0.298383570667	-0.228807528417	-1.13671875	0.05322265625	0.59814453125	97.6875	150.875	-63.625
19	01	14	15	55	27	-0.558770012315	0.31432720518	-0.255795207167	-1.11767578125	0.11279296875	0.56884765625	105.0	173.875	-76.4375
19	01	14	15	55	27	-0.565833230833	0.33195630919	-0.282092675322	-1.03271484375	0.02197265625	0.5234375	99.8125	185.5625	-83.125
19	01	14	15	55	27	-0.573335337125	0.350018965128	-0.307052382486	-0.9638671875	-0.0830078125	0.44921875	98.5625	187.6875	-94.4375
19	01	14	15	55	27	-0.581504002086	0.367284958496	-0.330971473899	-0.95751953125	-0.06201171875	0.404296875	101.9375	184.6875	-105.75
19	01	14	15	55	27	-0.589767670696	0.38359617203	-0.352102834756	-1.0283203125	-0.0078125	0.3291015625	95.8125	172.8125	-113.3125
19	01	14	15	55	27	-0.597137772881	0.399760058501	-0.368816799011	-1.0947265625	-0.0185546875	0.24853515625	76.5	155.9375	-116.375
19	01	14	15	55	27	-0.604484293588	0.41497260825	-0.381647848123	-1.21435546875	-0.12548828125	0.1806640625	64.9375	136.375	-118.6875
19	01	14	15	55	27	-0.614222112589	0.425695472506	-0.393898004238	-1.27880859375	-0.28125	0.17236328125	87.5	117.0	-119.4375
19	01	14	15	55	27	-0.628207906441	0.428936672153	-0.408551804694	-1.2353515625	-0.39501953125	0.154296875	138.625	101.1875	-118.875
19	01	14	15	55	27	-0.645117177808	0.425032736637	-0.425704097938	-1.11962890625	-0.40771484375	0.154296875	185.125	89.5625	-114.0625
19	01	14	15	55	28	-0.662584988946	0.416740079635	-0.442496423163	-1.01611328125	-0.2890625	0.14111328125	200.9375	76.4375	-108.3125
19	01	14	15	55	28	-0.678566765219	0.406664000419	-0.456833264766	-0.9423828125	-0.14599609375	0.11767578125	190.875	60.3125	-97.9375
19	01	14	15	55	28	-0.692104708882	0.396953176946	-0.468055644834	-0.88330078125	-0.07861328125	0.16259765625	165.625	46.9375	-86.0625
19	01	14	15	55	28	-0.703878235699	0.38779522324	-0.477084554622	-0.8525390625	-0.04150390625	0.26416015625	146.6875	40.1875	-79.0
19	01	14	15	55	28	-0.714278838252	0.37889797726	-0.485340965717	-0.82568359375	0.07666015625	0.35107421875	137.5	40.0625	-75.6875
19	01	14	15	55	28	-0.723007048057	0.370475500735	-0.493031481867	-0.8017578125	0.18994140625	0.40966796875	125.125	41.0625	-70.1875
19	01	14	15	55	28	-0.729712969351	0.363696853828	-0.499739862249	-0.78076171875	0.251953125	0.48779296875	104.5625	41.8125	-64.3125
19	01	14	15	55	28	-0.735816548623	0.354603031478	-0.504805795758	-0.75390625	0.23388671875	0.5380859375	84.0	39.5	-56.25
19	01	14	15	55	28	-0.740773007713	0.34704089329	-0.508720690392	-0.728515625	0.18701171875	0.57421875	66.875	38.0625	-48.5625
19	01	14	15	55	28	-0.744526275542	0.340557145465	-0.512239448367	-0.73828125	0.146484375	0.57958984375	53.8125	37.5625	-39.4375
19	01	14	15	55	28	-0.747135047745	0.334752143186	-0.515585434026	-0.78759765625	0.0947265625	0.55810546875	43.5625	34.5	-28.125
19	01	14	15	55	28	-0.748936874212	0.329639642867	-0.518475979662	-0.83251953125	0.04638671875	0.54736328125	33.25	30.1875	-18.3125
19	01	14	15	55	28	-0.749915772287	0.324880089191	-0.52116308127	-0.91845703125	-0.033203125	0.509765625	25.0	24.25	-4.5625
19	01	14	15	55	28	-0.750966997669	0.319148767133	-0.523613936362	-0.99658203125	-0.095703125	0.490234375	26.625	16.375	6.875
19	01	14	15	55	28	-0.752587188241	0.311630052969	-0.525730763077	-1.0380859375	-0.09716796875	0.48828125	32.125	7.4375	15.875
19	01	14	15	55	28	-0.753763235204	0.302786996749	-0.528061498865	-1.10595703125	-0.0478515625	0.48828125	30.0625	2.3125	27.8125
19	01	14	15	55	28	-0.753581195928	0.293937558888	-0.530564617818	-1.1875	0.009765625	0.49755859375	17.625	-0.0625	41.0
19	01	14	15	55	28	-0.751510051573	0.28704229453	-0.532398455281	-1.24072265625	0.05712890625	0.52587890625	-8.25	-1.0	53.0625
19	01	14	15	55	28	-0.746605249738	0.283249813131	-0.533054054706	-1.3525390625	0.12939453125	0.55322265625	-47.9375	-3.5625	68.875
19	01	14	15	55	28	-0.740132298567	0.283614644301	-0.530488161882	-1.35205078125	0.0205078125	0.47509765625	-84.0625	-18.9375	83.1875
19	01	14	15	55	28	-0.733480864069	0.287154889786	-0.523531274088	-1.220703125	-0.11279296875	0.404296875	-111.25	-41.875	92.125
19	01	14	15	55	28	-0.726676914724	0.29150083527	-0.512445773225	-1.111328125	-0.12744140625	0.39501953125	-133.8125	-63.5625	99.625
19	01	14	15	55	28	-0.718978974314	0.296014263618	-0.498341538648	-1.0986328125	-0.06689453125	0.3359375	-150.8125	-79.4375	107.5
19	01	14	15	55	28	-0.709691373166	0.301747002832	-0.481428066008	-1.146484375	0.0048828125	0.26318359375	-171.0625	-89.375	110.875
19	01	14	15	55	28	-0.698578588489	0.309740200645	-0.461406091995	-1.26953125	0.0947265625	0.23095703125	-194.6875	-95.75	107.25
19	01	14	15	55	28	-0.686502668992	0.319814543521	-0.437913998046	-1.40185546875	0.1572265625	0.19482421875	-212.75	-103.125	95.0
19	01	14	15	55	28	-0.674474045624	0.330187728425	-0.412032782736	-1.439453125	0.0830078125	0.1826171875	-214.75	-108.9375	83.0
19	01	14	15	55	28	-0.664289115245	0.337881710951	-0.385609943965	-1.34619140625	-0.09521484375	0.16748046875	-192.375	-116.75	70.875
19	01	14	15	55	28	-0.657439205337	0.339156114376	-0.361738040293	-1.21484375	-0.2939453125	0.21923828125	-141.75	-124.6875	65.125
19	01	14	15	55	28	-0.655481140519	0.331585571363	-0.342632320565	-1.05810546875	-0.3828125	0.2412109375	-72.1875	-134.5	59.25
19	01	14	15	55	28	-0.657256014383	0.31535349859	-0.329146781091	-0.9091796875	-0.33447265625	0.22705078125	-6.0625	-142.3125	59.375
19	01	14	15	55	28	-0.660247720958	0.293870657831	-0.319504235461	-0.77392578125	-0.19140625	0.224609375	31.25	-144.0625	63.3125
19	01	14	15	55	28	-0.66220024608	0.27128848791	-0.311325664079	-0.6787109375	-0.03271484375	0.22216796875	37.625	-139.6875	68.0
19	01	14	15	55	28	-0.661730747273	0.251093921258	-0.301569048356	-0.61474609375	0.0830078125	0.197265625	15.875	-134.5625	73.625
19	01	14	15	55	28	-0.658359199923	0.235769128516	-0.288074109913	-0.5712890625	0.13427734375	0.19921875	-23.875	-128.375	76.625
19	01	14	15	55	28	-0.652930421796	0.226004987092	-0.270681101203	-0.564453125	0.12890625	0.21435546875	-63.8125	-120.1875	73.125
19	01	14	15	55	28	-0.646504711586	0.220078919096	-0.251021795408	-0.580078125	0.08251953125	0.24072265625	-86.6875	-111.875	66.625
19	01	14	15	55	28	-0.640193587487	0.215879942696	-0.231565875768	-0.59814453125	0.05322265625	0.29296875	-89.5625	-102.25	58.0625
19	01	14	15	55	28	-0.634124646978	0.214284084268	-0.216237114942	-0.63330078125	0.04541015625	0.3447265625	-79.0	-90.3125	47.0625
19	01	14	15	55	28	-0.629227521144	0.212997482909	-0.204514202071	-0.68359375	0.07080078125	0.39697265625	-62.6875	-75.4375	35.5625
19	01	14	15	55	28	-0.625820962232	0.212696123794	-0.197010929012	-0.74169921875	0.09521484375	0.45361328125	-44.5625	-56.5	21.0
19	01	14	15	55	28	-0.623930161358	0.213917168694	-0.194020735886	-0.80029296875	0.11328125	0.48974609375	-27.75	-33.75	7.0
19	01	14	15	55	28	-0.623508243136	0.216970615148	-0.195609232503	-0.8564453125	0.033203125	0.5205078125	-5.3125	-9.3125	-3.6875
19	01	14	15	55	28	-0.624565341125	0.22100567773	-0.203061554766	-0.88720703125	-0.08544921875	0.54736328125	28.1875	18.375	-10.5
19	01	14	15	55	28	-0.627779670804	0.225209701076	-0.218007873237	-0.9638671875	-0.16015625	0.5087890625	70.625	44.5	-21.6875
19	01	14	15	55	28	-0.634855257525	0.222889002161	-0.238147011619	-0.943359375	-0.1748046875	0.4697265625	117.5	61.5625	-41.0625
19	01	14	15	55	28	-0.644673362739	0.219468466573	-0.264082328938	-0.931640625	-0.17626953125	0.55029296875	155.75	83.3125	-62.0
19	01	14	15	55	28	-0.655683929925	0.218988545152	-0.294792272321	-1.05126953125	-0.107421875	0.65625	173.75	118.4375	-86.875
19	01	14	15	55	28	-0.6653629676	0.221665593315	-0.327554856642	-1.12451171875	-0.16748046875	0.57470703125	174.3125	144.0625	-95.75
19	01	14	15	55	28	-0.673440070646	0.227348582849	-0.358081647134	-1.1064453125	-0.28955078125	0.43603515625	155.625	150.3125	-100.9375
19	01	14	15	55	28	-0.680455342413	0.23497650626	-0.384690108819	-1.08251953125	-0.2529296875	0.42333984375	132.25	145.375	-106.6875
19	01	14	15	55	29	-0.686541361122	0.244003232444	-0.405614177795	-1.126953125	-0.08544921875	0.3798828125	100.9375	127.4375	-109.375
19	01	14	15	55	29	-0.691549288651	0.256821057863	-0.420141673557	-1.1640625	-0.00048828125	0.28759765625	57.1875	112.6875	-116.0
19	01	14	15	55	29	-0.694849924127	0.274522174679	-0.431008358734	-1.271484375	0.04638671875	0.216796875	21.375	114.6875	-125.125
19	01	14	15	55	29	-0.696974774806	0.293193241521	-0.441559763198	-1.2958984375	-0.02294921875	0.208984375	16.625	120.4375	-126.75
19	01	14	15	55	29	-0.69961842348	0.30845952301	-0.454266764892	-1.19775390625	-0.18798828125	0.2314453125	45.0	125.3125	-125.1875
19	01	14	15	55	29	-0.704683036704	0.317980133486	-0.469035955055	-1.09326171875	-0.275390625	0.2568359375	89.8125	121.625	-129.5625
19	01	14	15	55	29	-0.712491674785	0.321335332169	-0.484169646742	-1.01416015625	-0.19287109375	0.24072265625	128.8125	107.75	-135.0625
19	01	14	15	55	29	-0.721509767277	0.320291258558	-0.497830753822	-0.94091796875	-0.0859375	0.2109375	146.4375	90.0	-132.0
19	01	14	15	55	29	-0.730098982893	0.317930580328	-0.508969688877	-0.89990234375	0.00390625	0.23291015625	140.3125	75.5625	-126.3125
19	01	14	15	55	29	-0.737533745728	0.315728406707	-0.517872710402	-0.88720703125	0.03662109375	0.26318359375	125.5625	66.5	-119.625
19	01	14	15	55	29	-0.743751405224	0.313649964832	-0.525618504989	-0.8955078125	0.046875	0.3095703125	116.0	62.9375	-113.4375
19	01	14	15	55	29	-0.749655801644	0.309981422824	-0.532931243178	-0.90966796875	0.0810546875	0.3544921875	120.125	60.375	-109.125
19	01	14	15	55	29	-0.755414710993	0.304619441106	-0.539782475885	-0.93310546875	0.12548828125	0.38916015625	126.5625	57.125	-105.75
19	01	14	15	55	29	-0.760579964986	0.298385126691	-0.546052715995	-0.93896484375	0.16748046875	0.42138671875	125.5625	54.625	-101.125
19	01	14	15	55	29	-0.764981117274	0.292223519189	-0.551428466138	-0.8984375	0.16650390625	0.45703125	119.0	51.75	-96.5625
19	01	14	15	55	29	-0.76827639476	0.286791450507	-0.556066589821	-0.85595703125	0.185546875	0.48486328125	106.125	49.8125	-90.3125
19	01	14	15	55	29	-0.771685476032	0.278670980984	-0.559539105051	-0.86181640625	0.19580078125	0.51953125	87.3125	49.0	-80.5625
19	01	14	15	55	29	-0.773399592356	0.272020358517	-0.563143784617	-0.9267578125	0.20458984375	0.529296875	63.9375	48.9375	-67.6875
19	01	14	15	55	29	-0.77354358727	0.267023291329	-0.566882818255	-1.00244140625	0.1962890625	0.52294921875	38.8125	46.125	-51.3125
19	01	14	15	55	29	-0.772618291897	0.263296888478	-0.570476591703	-1.0576171875	0.1474609375	0.5068359375	15.6875	40.3125	-30.4375
19	01	14	15	55	29	-0.770747538578	0.259703102364	-0.57427649592	-1.169921875	0.11474609375	0.48095703125	-4.25	32.25	-3.25
19	01	14	15	55	29	-0.767988721796	0.256647268152	-0.577990399381	-1.236328125	0.025390625	0.42578125	-23.375	22.6875	26.0
19	01	14	15	55	29	-0.764669019133	0.2531604351	-0.581817364466	-1.29541015625	-0.09326171875	0.36083984375	-30.5625	15.5	51.625
19	01	14	15	55	29	-0.762545685016	0.24809894426	-0.583841205607	-1.24462890625	-0.140625	0.31396484375	-30.3125	-4.25	72.9375
19	01	14	15	55	29	-0.7617118873	0.242124283407	-0.583002559895	-1.14453125	-0.15771484375	0.27294921875	-40.875	-30.3125	96.9375
19	01	14	15	55	29	-0.762179992678	0.236136642511	-0.578226557546	-1.08447265625	-0.18408203125	0.2568359375	-58.8125	-61.25	119.125
19	01	14	15	55	29	-0.764023516331	0.228572301379	-0.56956921668	-1.10107421875	-0.1513671875	0.26953125	-68.25	-90.375	137.8125
19	01	14	15	55	29	-0.766215415441	0.220453248413	-0.557297511422	-1.15625	-0.06298828125	0.2705078125	-82.5625	-114.3125	151.0625
19	01	14	15	55	29	-0.767679729213	0.213007016613	-0.541489470311	-1.29248046875	-0.00634765625	0.30126953125	-103.9375	-132.8125	162.25
19	01	14	15	55	29	-0.768025809474	0.206471019823	-0.522494354331	-1.43505859375	0.02197265625	0.3408203125	-121.125	-146.0625	167.5
19	01	14	15	55	29	-0.76711767559	0.200674907896	-0.501504172195	-1.509765625	0.03369140625	0.3525390625	-128.0	-151.125	164.8125
19	01	14	15	55	29	-0.765102987013	0.195609051801	-0.478860724003	-1.44677734375	0.00537109375	0.33203125	-132.125	-153.25	159.0625
19	01	14	15	55	29	-0.761993913341	0.190666318404	-0.454632972405	-1.2861328125	-0.1142578125	0.29638671875	-133.5625	-156.9375	157.0625
19	01	14	15	55	29	-0.757899721931	0.18559937626	-0.428508129141	-1.11474609375	-0.18896484375	0.3193359375	-135.75	-160.625	155.4375
19	01	14	15	55	29	-0.752750874623	0.179979108907	-0.40152002628	-0.974609375	-0.18505859375	0.3544921875	-132.8125	-161.0	151.3125
19	01	14	15	55	29	-0.746962645714	0.173206960416	-0.374854528146	-0.8603515625	-0.1220703125	0.36181640625	-121.6875	-158.25	143.5625
19	01	14	15	55	29	-0.740264887165	0.165886714759	-0.349228764479	-0.78759765625	0.0029296875	0.37060546875	-113.3125	-151.125	136.3125
19	01	14	15	55	29	-0.732525727596	0.159908132503	-0.324088619691	-0.73291015625	0.09423828125	0.3896484375	-115.3125	-140.375	127.25
19	01	14	15	55	29	-0.724152084155	0.156182484901	-0.299059857763	-0.68505859375	0.14990234375	0.390625	-121.375	-129.5625	115.0625
19	01	14	15	55	29	-0.715558297499	0.153865785397	-0.274956510597	-0.65087890625	0.12255859375	0.3818359375	-119.9375	-118.0625	103.375
19	01	14	15	55	29	-0.707313187248	0.151545313999	-0.252555178948	-0.63330078125	0.09716796875	0.35400390625	-108.625	-109.875	92.125
19	01	14	15	55	29	-0.699921026965	0.148858334912	-0.232106702611	-0.61572265625	0.0869140625	0.3154296875	-94.9375	-102.375	79.4375
19	01	14	15	55	29	-0.692896783575	0.148185800275	-0.216358592246	-0.6005859375	0.08544921875	0.29248046875	-83.125	-93.3125	66.3125
19	01	14	15	55	29	-0.686850013796	0.148184808379	-0.20256399465	-0.60693359375	0.07568359375	0.3017578125	-74.0	-82.8125	53.6875
19	01	14	15	55	29	-0.681873788335	0.149960964728	-0.19097592944	-0.634765625	0.0966796875	0.3349609375	-69.9375	-68.0	38.5
19	01	14	15	55	29	-0.67801840751	0.154475163328	-0.182123226934	-0.6884765625	0.13671875	0.37939453125	-69.125	-47.4375	20.6875
19	01	14	15	55	29	-0.675878232994	0.162225423812	-0.176262988702	-0.7587890625	0.11328125	0.40478515625	-63.5625	-25.125	0.625
19	01	14	15	55	29	-0.675490078301	0.172107157644	-0.173754992133	-0.783203125	-0.05615234375	0.42822265625	-43.4375	-2.5625	-13.5
19	01	14	15	55	29	-0.677010100244	0.181382314786	-0.175950610205	-0.765625	-0.2431640625	0.5517578125	-6.625	20.25	-22.0625
19	01	14	15	55	29	-0.681433313742	0.18767643885	-0.186394746097	-0.798828125	-0.25390625	0.60888671875	45.25	43.5625	-38.5625
19	01	14	15	55	30	-0.688606621727	0.187119374476	-0.205733663196	-0.83154296875	-0.18408203125	0.69873046875	102.125	73.625	-54.625
19	01	14	15	55	30	-0.698271670029	0.18511126433	-0.234059247842	-0.908203125	-0.07763671875	0.7021484375	151.0625	106.875	-77.9375
19	01	14	15	55	30	-0.708893264032	0.182182212065	-0.267200577696	-0.84375	-0.11865234375	0.65234375	181.1875	128.1875	-94.0625
19	01	14	15	55	30	-0.719098493238	0.181636149709	-0.300895906609	-0.76611328125	-0.20654296875	0.693359375	179.5625	145.5625	-108.375
19	01	14	15	55	30	-0.729130485241	0.184739095909	-0.332615815231	-0.88330078125	-0.1796875	0.66748046875	163.125	153.0625	-129.5625
19	01	14	15	55	30	-0.738182372464	0.191457470229	-0.360882378535	-1.06494140625	-0.0302734375	0.59033203125	136.1875	151.9375	-144.25
19	01	14	15	55	30	-0.744228726423	0.204153279472	-0.383039157539	-1.125	0.04052734375	0.525390625	81.75	147.25	-142.6875
19	01	14	15	55	30	-0.747124809815	0.223142578603	-0.39910539428	-1.173828125	-0.029296875	0.48681640625	25.25	141.9375	-137.75
19	01	14	15	55	30	-0.748559317252	0.244311695635	-0.411967011125	-1.21826171875	-0.1044921875	0.42578125	2.1875	135.75	-136.625
19	01	14	15	55	30	-0.750233820754	0.261593081333	-0.424737809846	-1.169921875	-0.2392578125	0.32373046875	21.625	125.25	-129.875
19	01	14	15	55	30	-0.753765464632	0.271355567268	-0.438892911431	-1.0634765625	-0.365234375	0.25390625	67.0625	112.375	-122.9375
19	01	14	15	55	30	-0.759604737194	0.27293527115	-0.454444550309	-0.9755859375	-0.3466796875	0.2333984375	116.6875	98.875	-119.5
19	01	14	15	55	30	-0.767130124542	0.267937087019	-0.470080055631	-0.90283203125	-0.22705078125	0.2001953125	152.4375	84.6875	-117.25
19	01	14	15	55	30	-0.774586785791	0.26031145232	-0.484551610779	-0.86962890625	-0.06005859375	0.19873046875	161.0	75.6875	-115.0625
19	01	14	15	55	30	-0.780473381168	0.254074967611	-0.497103197499	-0.86279296875	0.0654296875	0.2431640625	143.4375	72.5	-113.75
19	01	14	15	55	30	-0.784146712519	0.250843943684	-0.507974244108	-0.873046875	0.1123046875	0.3125	115.9375	73.75	-110.8125
19	01	14	15	55	30	-0.78591533292	0.249744936112	-0.517982715733	-0.90771484375	0.111328125	0.37548828125	96.0	76.3125	-106.1875
19	01	14	15	55	30	-0.78666567253	0.249201329889	-0.527393752528	-0.89453125	0.13134765625	0.45361328125	87.875	77.6875	-103.5
19	01	14	15	55	30	-0.787929334546	0.244801282793	-0.535743121506	-0.8759765625	0.1259765625	0.52685546875	90.4375	77.3125	-98.5625
19	01	14	15	55	30	-0.789446730454	0.23839033082	-0.543488452624	-0.85888671875	0.125	0.5869140625	97.875	76.8125	-94.0625
19	01	14	15	55	30	-0.789149895986	0.234303669814	-0.552221829767	-0.81787109375	0.12646484375	0.60009765625	100.4375	76.75	-92.625
19	01	14	15	55	30	-0.789860975415	0.227540508179	-0.558719370138	-0.806640625	0.14404296875	0.58984375	91.8125	74.625	-90.125
19	01	14	15	55	30	-0.78947703653	0.222713699752	-0.564444038178	-0.84033203125	0.16748046875	0.5732421875	69.6875	70.125	-83.625
19	01	14	15	55	30	-0.787757562378	0.220452492082	-0.569746404648	-0.92138671875	0.16015625	0.56103515625	41.0625	65.9375	-72.875
19	01	14	15	55	30	-0.785007477621	0.220268386467	-0.574748516308	-1.0068359375	0.1259765625	0.52685546875	16.25	60.5	-58.5625
19	01	14	15	55	30	-0.781864537084	0.220460164555	-0.579409840011	-1.1025390625	0.07373046875	0.49560546875	-0.625	51.1875	-37.0625
19	01	14	15	55	30	-0.778843291735	0.21990223181	-0.583415329966	-1.265625	0.03369140625	0.48046875	-17.0625	37.0625	-7.6875
19	01	14	15	55	30	-0.776314904822	0.21812495832	-0.586325258697	-1.41845703125	0.03759765625	0.4755859375	-33.0	19.0625	23.0
19	01	14	15	55	30	-0.77414077053	0.216056317224	-0.587685389422	-1.50390625	0.0244140625	0.44140625	-53.0	-0.6875	53.3125
19	01	14	15	55	30	-0.772719967723	0.214952983676	-0.586390762964	-1.3779296875	-0.09375	0.369140625	-70.0	-23.3125	79.9375
19	01	14	15	55	30	-0.772095012802	0.214643756227	-0.582229580438	-1.19091796875	-0.18115234375	0.361328125	-82.375	-44.8125	100.875
19	01	14	15	55	30	-0.772548510387	0.212942151425	-0.575108596411	-1.09765625	-0.17578125	0.34765625	-89.1875	-66.8125	118.1875
19	01	14	15	55	30	-0.773415727092	0.210931561934	-0.564864469242	-1.10107421875	-0.091796875	0.31787109375	-102.5	-88.1875	130.4375
19	01	14	15	55	30	-0.773715092534	0.211357211126	-0.550700582152	-1.12109375	-0.02783203125	0.2802734375	-132.5625	-107.75	137.5625
19	01	14	15	55	30	-0.772808136187	0.215570868505	-0.531847267314	-1.1962890625	-0.0185546875	0.3076171875	-170.875	-125.625	141.3125
19	01	14	15	55	30	-0.770867849293	0.221677912006	-0.508662918132	-1.2978515625	-0.07373046875	0.31396484375	-192.875	-142.6875	142.0625
19	01	14	15	55	30	-0.768824730227	0.226857309062	-0.482521895465	-1.32421875	-0.134765625	0.30029296875	-188.375	-156.75	135.0
19	01	14	15	55	30	-0.767416021861	0.229052992687	-0.455115418723	-1.26953125	-0.19287109375	0.2958984375	-165.6875	-165.375	123.75
19	01	14	15	55	30	-0.766801095005	0.227464794738	-0.427709493298	-1.16455078125	-0.228515625	0.32763671875	-136.25	-170.4375	113.9375
19	01	14	15	55	30	-0.766885576298	0.221734603955	-0.401234045252	-1.06005859375	-0.2236328125	0.35009765625	-104.875	-172.5625	105.8125
19	01	14	15	55	30	-0.767305797847	0.212821771961	-0.375962751729	-0.95849609375	-0.16064453125	0.33935546875	-80.5	-172.375	99.1875
19	01	14	15	55	30	-0.767691658635	0.202024120693	-0.351497556216	-0.85693359375	-0.08544921875	0.32568359375	-65.375	-170.75	92.375
19	01	14	15	55	30	-0.76773571649	0.190789557973	-0.327503764583	-0.775390625	-0.02587890625	0.3251953125	-59.25	-166.8125	85.1875
19	01	14	15	55	30	-0.767109234708	0.179982905017	-0.304182705528	-0.72607421875	0.0205078125	0.326171875	-57.4375	-159.6875	79.625
19	01	14	15	55	30	-0.765835526366	0.169609254684	-0.282214175479	-0.70947265625	0.0400390625	0.32421875	-53.0	-150.0	74.25
19	01	14	15	55	30	-0.764012927632	0.159723744337	-0.261771165251	-0.69677734375	0.04833984375	0.30810546875	-48.0625	-139.8125	69.375
19	01	14	15	55	30	-0.761826417474	0.150387781818	-0.2429763634	-0.6806640625	0.03271484375	0.30517578125	-42.9375	-128.8125	64.125
19	01	14	15	55	30	-0.759377077396	0.142940131431	-0.225457235485	-0.6650390625	0.0361328125	0.3291015625	-44.9375	-115.375	55.9375
19	01	14	15	55	30	-0.756862971246	0.137811191765	-0.209158084224	-0.6357421875	0.048828125	0.3359375	-48.9375	-100.375	46.6875
19	01	14	15	55	30	-0.754020727612	0.137682781181	-0.196515317111	-0.60986328125	0.01513671875	0.35009765625	-54.75	-84.375	35.0
19	01	14	15	55	31	-0.751792674215	0.140617821188	-0.185415338875	-0.61328125	-0.03466796875	0.40771484375	-57.0	-64.6875	21.625
19	01	14	15	55	31	-0.74995906893	0.147269794379	-0.177541579713	-0.6923828125	-0.05859375	0.45263671875	-57.625	-39.8125	8.125
19	01	14	15	55	31	-0.748564287493	0.156731601328	-0.173332456297	-0.7490234375	-0.1298828125	0.46875	-49.9375	-15.25	-2.3125
19	01	14	15	55	31	-0.747821055305	0.166372333042	-0.173696133469	-0.7119140625	-0.26806640625	0.54248046875	-23.8125	11.5625	-7.0
19	01	14	15	55	31	-0.748179182966	0.174487664907	-0.180956952239	-0.73583984375	-0.25537109375	0.63037109375	10.25	40.3125	-16.4375
19	01	14	15	55	31	-0.750396779148	0.179680204783	-0.196403158625	-0.82861328125	-0.19482421875	0.64501953125	53.75	64.4375	-31.375
19	01	14	15	55	31	-0.752723814366	0.183527163691	-0.220086116485	-0.958984375	-0.05810546875	0.6650390625	84.25	94.375	-40.5
19	01	14	15	55	31	-0.756372572077	0.184561499069	-0.245654773066	-1.009765625	-0.052734375	0.509765625	106.25	116.1875	-51.8125
19	01	14	15	55	31	-0.759358805851	0.186208303862	-0.273361846279	-0.93310546875	-0.12890625	0.45703125	113.875	131.75	-55.9375
19	01	14	15	55	31	-0.761741678517	0.189687776366	-0.301498589205	-0.919921875	-0.16162109375	0.4814453125	109.875	143.9375	-64.25
19	01	14	15	55	31	-0.763456570762	0.194510839477	-0.330003171965	-0.966796875	-0.099609375	0.47314453125	107.5625	153.5625	-73.5
19	01	14	15	55	31	-0.763761739363	0.20171268568	-0.35795609728	-1.005859375	-0.0576171875	0.4697265625	94.9375	162.125	-78.6875
19	01	14	15	55	31	-0.761447046522	0.214164610953	-0.383714137663	-1.056640625	-0.00732421875	0.4794921875	60.3125	173.0	-81.9375
19	01	14	15	55	31	-0.756787399982	0.231735625623	-0.406407040039	-1.11865234375	-0.0341796875	0.43994140625	24.0	177.5	-84.8125
19	01	14	15	55	31	-0.750888306137	0.251272629145	-0.426376144572	-1.109375	-0.14990234375	0.40087890625	5.625	173.1875	-84.5625
19	01	14	15	55	31	-0.745704823973	0.267997207568	-0.445115835753	-1.05029296875	-0.27197265625	0.3515625	19.0	161.1875	-84.3125
19	01	14	15	55	31	-0.743437363174	0.277881152166	-0.463908332443	-0.9716796875	-0.326171875	0.28955078125	61.5	143.6875	-87.625
19	01	14	15	55	31	-0.744418115318	0.280629211628	-0.483197361562	-0.92578125	-0.2705078125	0.251953125	109.3125	128.125	-95.125
19	01	14	15	55	31	-0.747448222347	0.278607098474	-0.501919995148	-0.921875	-0.1494140625	0.25048828125	139.5	116.0625	-102.5
19	01	14	15	55	31	-0.750433530361	0.275797749163	-0.519188194761	-0.9296875	-0.03173828125	0.3125	142.5	111.75	-109.5
19	01	14	15	55	31	-0.752049738972	0.274893038819	-0.534649871238	-0.9267578125	0.0732421875	0.40478515625	126.9375	112.8125	-116.1875
19	01	14	15	55	31	-0.751866622897	0.27635782681	-0.548443337394	-0.9501953125	0.09033203125	0.44677734375	105.875	113.75	-116.9375
19	01	14	15	55	31	-0.750404186588	0.27886105966	-0.561017916479	-0.96923828125	0.0615234375	0.47802734375	94.125	112.6875	-115.6875
19	01	14	15	55	31	-0.748861232482	0.279953257816	-0.572479084	-0.9755859375	0.0205078125	0.50927734375	97.1875	107.125	-111.0
19	01	14	15	55	31	-0.748083199769	0.278555251998	-0.582439257191	-0.96630859375	0.025390625	0.51806640625	106.5625	95.4375	-105.25
19	01	14	15	55	31	-0.747886544231	0.275925825564	-0.590240800494	-0.9345703125	0.0439453125	0.49072265625	103.4375	79.5625	-96.5
19	01	14	15	55	31	-0.748750612126	0.272084302972	-0.594703779308	-0.9189453125	0.0595703125	0.4873046875	75.5625	66.9375	-83.75
19	01	14	15	55	31	-0.748955635042	0.270749506727	-0.597345676812	-0.9111328125	0.03125	0.48095703125	43.375	54.4375	-69.75
19	01	14	15	55	31	-0.748804578284	0.270311800246	-0.599031456178	-0.98095703125	-0.0048828125	0.49072265625	21.6875	44.125	-53.4375
19	01	14	15	55	31	-0.749493429449	0.268303999663	-0.599899911894	-1.06298828125	-0.05615234375	0.45361328125	21.4375	29.875	-36.875
19	01	14	15	55	31	-0.751907043175	0.262679213785	-0.599938817728	-1.11962890625	-0.11279296875	0.44384765625	34.375	14.3125	-17.0
19	01	14	15	55	31	-0.756494702781	0.252124212762	-0.599031505268	-1.185546875	-0.11474609375	0.4560546875	52.9375	-2.4375	4.1875
19	01	14	15	55	31	-0.762220639828	0.23698476615	-0.597863190628	-1.30029296875	0.005859375	0.46337890625	62.0625	-16.8125	25.5625
19	01	14	15	55	31	-0.767296943213	0.221241760989	-0.596528819835	-1.390625	0.125	0.435546875	42.6875	-28.5	47.0625
19	01	14	15	55	31	-0.771026651553	0.208915081791	-0.594092727477	-1.404296875	0.1630859375	0.388671875	1.375	-41.125	67.375
19	01	14	15	55	31	-0.773895921289	0.202079605314	-0.589149631561	-1.2607421875	0.0361328125	0.35107421875	-42.9375	-55.875	86.4375
19	01	14	15	55	31	-0.776703211713	0.199516171546	-0.580971072788	-1.11376953125	-0.0712890625	0.33251953125	-74.25	-75.0625	104.625
19	01	14	15	55	31	-0.779479070132	0.197753675298	-0.570006658521	-1.0693359375	-0.06884765625	0.31396484375	-95.5	-93.0625	120.375
19	01	14	15	55	31	-0.781553137024	0.197249706299	-0.556290554738	-1.099609375	-0.00830078125	0.27392578125	-118.1875	-107.875	132.3125
19	01	14	15	55	31	-0.782215458859	0.199215922106	-0.539665190951	-1.1806640625	0.02734375	0.26904296875	-146.3125	-119.0	139.375
19	01	14	15	55	31	-0.781148013443	0.204457054851	-0.519687111061	-1.3154296875	0.0654296875	0.28662109375	-176.5625	-128.8125	140.0625
19	01	14	15	55	31	-0.778845337104	0.212273652727	-0.496200344069	-1.37646484375	0.0048828125	0.25830078125	-195.5625	-139.1875	133.6875
19	01	14	15	55	31	-0.775679188475	0.220210127628	-0.470143739777	-1.40380859375	-0.0849609375	0.2548828125	-198.125	-148.0	128.5
19	01	14	15	55	31	-0.77280696596	0.225824180544	-0.442371259618	-1.2919921875	-0.2275390625	0.2333984375	-181.25	-157.75	120.25
19	01	14	15	55	31	-0.770684903195	0.226926939897	-0.414303407214	-1.1611328125	-0.31396484375	0.24365234375	-151.25	-166.25	115.0625
19	01	14	15	55	31	-0.769303925267	0.223314800678	-0.386513427903	-1.00830078125	-0.32470703125	0.2509765625	-120.4375	-173.625	110.5625
19	01	14	15	55	31	-0.768174692004	0.215694371646	-0.359917857838	-0.90478515625	-0.224609375	0.27490234375	-93.4375	-175.0625	106.0
19	01	14	15	55	31	-0.766975235006	0.205185862982	-0.335120634632	-0.80712890625	-0.10302734375	0.29736328125	-71.6875	-171.1875	100.625
19	01	14	15	55	31	-0.765019721751	0.194077599934	-0.311805804422	-0.7255859375	0.001953125	0.31201171875	-62.9375	-162.0625	95.3125
19	01	14	15	55	31	-0.762237486422	0.184135679121	-0.289539165312	-0.6923828125	0.0908203125	0.3115234375	-63.125	-150.6875	88.0625
19	01	14	15	55	32	-0.759001053726	0.175834837229	-0.267688856677	-0.67919921875	0.13134765625	0.30419921875	-67.375	-141.25	78.8125
19	01	14	15	55	32	-0.755655271068	0.168635450607	-0.246453112396	-0.650390625	0.083984375	0.283203125	-66.75	-133.4375	69.625
19	01	14	15	55	32	-0.752521103574	0.162405406051	-0.22612252139	-0.64892578125	0.0556640625	0.28759765625	-64.375	-124.8125	59.9375
19	01	14	15	55	32	-0.750155794847	0.155817081136	-0.207756108182	-0.638671875	0.01513671875	0.28564453125	-51.375	-116.125	48.0
19	01	14	15	55	32	-0.748423110482	0.14891563154	-0.191881453099	-0.6064453125	-0.025390625	0.3359375	-37.25	-104.75	39.375
19	01	14	15	55	32	-0.746752358311	0.145322220281	-0.181637516823	-0.61572265625	0.00439453125	0.4052734375	-29.0	-85.5	27.0625
19	01	14	15	55	32	-0.745809560432	0.143974202378	-0.175649747539	-0.68896484375	0.0107421875	0.44970703125	-20.0	-61.375	13.1875
19	01	14	15	55	32	-0.745738817445	0.14555913574	-0.173572403373	-0.75634765625	-0.0419921875	0.4775390625	-12.1875	-36.0625	-0.4375
19	01	14	15	55	32	-0.746479716853	0.149283737014	-0.174672958027	-0.73486328125	-0.19677734375	0.52978515625	2.875	-10.5	-8.375
19	01	14	15	55	32	-0.747645706476	0.153740370172	-0.179862195672	-0.72119140625	-0.265625	0.6455078125	20.625	16.375	-13.125
19	01	14	15	55	32	-0.750012668127	0.158803235614	-0.190844626351	-0.78271484375	-0.22412109375	0.68603515625	40.6875	43.625	-28.9375
19	01	14	15	55	32	-0.753026679358	0.163080506342	-0.208855349065	-0.86181640625	-0.1337890625	0.74853515625	67.625	73.8125	-40.3125
19	01	14	15	55	32	-0.756972532267	0.168263587153	-0.233078940638	-0.990234375	-0.11572265625	0.62841796875	90.8125	98.0625	-58.9375
19	01	14	15	55	32	-0.761577328097	0.168818952518	-0.25835525163	-0.89501953125	-0.181640625	0.60009765625	112.5	115.0	-63.125
19	01	14	15	55	32	-0.765468794023	0.170219459937	-0.285448696352	-0.88232421875	-0.24365234375	0.57373046875	117.8125	129.5	-67.625
19	01	14	15	55	32	-0.769323056399	0.172540760051	-0.313527373322	-0.96484375	-0.15625	0.55712890625	120.5	139.5	-81.75
19	01	14	15	55	32	-0.772310141522	0.176568139673	-0.341662096747	-1.0234375	-0.05126953125	0.5576171875	114.3125	148.625	-90.9375
19	01	14	15	55	32	-0.773414295222	0.184930974946	-0.367786816841	-1.0869140625	-0.0146484375	0.5322265625	86.75	156.0	-95.8125
19	01	14	15	55	32	-0.772874091574	0.198116504876	-0.39098408202	-1.119140625	-0.0224609375	0.49462890625	54.75	159.75	-103.375
19	01	14	15	55	32	-0.771486747501	0.213379562442	-0.411988571648	-1.1181640625	-0.09912109375	0.447265625	39.5625	158.375	-108.9375
19	01	14	15	55	32	-0.770666934358	0.22637234969	-0.431810292277	-1.0537109375	-0.205078125	0.37939453125	51.875	148.4375	-112.25
19	01	14	15	55	32	-0.771624169793	0.233934623334	-0.451451711141	-0.9814453125	-0.2509765625	0.31298828125	85.875	135.1875	-116.4375
19	01	14	15	55	32	-0.774283535082	0.236081405778	-0.470820052784	-0.92138671875	-0.208984375	0.2861328125	118.875	122.8125	-121.4375
19	01	14	15	55	32	-0.777723190129	0.234787813892	-0.489105677289	-0.89208984375	-0.13720703125	0.26416015625	137.875	112.3125	-125.375
19	01	14	15	55	32	-0.781156066157	0.231862793603	-0.505838071436	-0.880859375	-0.0693359375	0.2587890625	144.4375	104.25	-128.9375
19	01	14	15	55	32	-0.783853818824	0.228875793863	-0.520982340378	-0.87255859375	-0.02197265625	0.2880859375	141.6875	100.5	-131.875
19	01	14	15	55	32	-0.785420045618	0.226306436332	-0.534700832983	-0.88330078125	0.00244140625	0.35693359375	133.9375	98.8125	-131.6875
19	01	14	15	55	32	-0.785837451556	0.223435143689	-0.547571731544	-0.8896484375	0.01904296875	0.439453125	131.1875	99.4375	-128.875
19	01	14	15	55	32	-0.78520128647	0.219722085604	-0.559742013075	-0.8916015625	0.04638671875	0.51123046875	130.125	99.3125	-124.0625
19	01	14	15	55	32	-0.784075012286	0.21470972937	-0.570707981621	-0.9033203125	0.0908203125	0.5625	131.0625	94.5	-118.0625
19	01	14	15	55	32	-0.782734831197	0.209217543964	-0.57986461062	-0.92919921875	0.1435546875	0.58203125	125.3125	85.1875	-112.0625
19	01	14	15	55	32	-0.781170715897	0.204768165625	-0.586900351908	-0.939453125	0.17431640625	0.5751953125	109.0	73.125	-105.4375
19	01	14	15	55	32	-0.781150729661	0.198903838422	-0.590608298377	-0.93994140625	0.1484375	0.57373046875	83.5	62.625	-94.4375
19	01	14	15	55	32	-0.780322347957	0.194943260021	-0.593801808625	-1.02099609375	0.10205078125	0.548828125	57.5625	54.625	-78.6875
19	01	14	15	55	32	-0.779463160814	0.191646255184	-0.596300609283	-1.0888671875	0.0302734375	0.53759765625	38.8125	44.875	-57.25
19	01	14	15	55	32	-0.779566045007	0.188101663721	-0.597384518009	-1.087890625	-0.033203125	0.55078125	27.4375	30.9375	-35.25
19	01	14	15	55	32	-0.781400439544	0.182182325395	-0.59683784256	-1.12744140625	-0.07861328125	0.56201171875	26.5	13.4375	-8.5625
19	01	14	15	55	32	-0.784970562429	0.173095133741	-0.594846676108	-1.18212890625	-0.037109375	0.5673828125	29.6875	-4.4375	15.1875
19	01	14	15	55	32	-0.789337750755	0.162103229414	-0.592079604119	-1.279296875	0.06396484375	0.5498046875	21.3125	-19.625	37.125
19	01	14	15	55	32	-0.793959386221	0.151785455725	-0.588283075085	-1.3427734375	0.107421875	0.48681640625	0.0	-37.5	58.5
19	01	14	15	55	32	-0.799092742196	0.143913593989	-0.582428934452	-1.27490234375	0.0029296875	0.41650390625	-20.9375	-56.5	77.6875
19	01	14	15	55	32	-0.805265465859	0.137445644165	-0.573829461119	-1.1474609375	-0.06689453125	0.37353515625	-33.8125	-77.5	92.8125
19	01	14	15	55	32	-0.812032904279	0.132256693241	-0.562716525926	-1.1162109375	-0.005859375	0.3681640625	-48.3125	-93.3125	106.4375
19	01	14	15	55	32	-0.818331575994	0.129451168905	-0.549602911831	-1.15185546875	0.09765625	0.3359375	-76.25	-104.75	118.0
19	01	14	15	55	32	-0.823194194491	0.130973809414	-0.534697830511	-1.2001953125	0.140625	0.31201171875	-113.5625	-111.125	125.8125
19	01	14	15	55	32	-0.826227856919	0.137440178297	-0.517719819046	-1.2744140625	0.123046875	0.30322265625	-151.5	-116.0	129.8125
19	01	14	15	55	32	-0.827794775087	0.146724075743	-0.498398004376	-1.30078125	0.0302734375	0.291015625	-173.25	-122.0625	131.3125
19	01	14	15	55	32	-0.828464917858	0.1558178087	-0.476852541861	-1.25732421875	-0.1279296875	0.29736328125	-174.0625	-130.875	133.25
19	01	14	15	55	32	-0.829128220656	0.161797490832	-0.45341137661	-1.1728515625	-0.25634765625	0.306640625	-155.25	-142.625	133.1875
19	01	14	15	55	32	-0.830366219449	0.162655345449	-0.428641084836	-1.08251953125	-0.30517578125	0.3134765625	-124.75	-155.875	131.9375
19	01	14	15	55	33	-0.831918986092	0.158315446403	-0.403539603554	-1.01318359375	-0.2685546875	0.3193359375	-93.75	-165.5625	129.625
19	01	14	15	55	33	-0.833232307937	0.150326045594	-0.378409046968	-0.921875	-0.2060546875	0.3232421875	-71.875	-170.3125	128.375
19	01	14	15	55	33	-0.833712428425	0.140437210674	-0.353686934313	-0.841796875	-0.1279296875	0.3291015625	-60.0625	-169.25	126.125
19	01	14	15	55	33	-0.833102573581	0.130061654528	-0.32927387432	-0.7578125	-0.06298828125	0.32763671875	-56.125	-165.3125	122.9375
19	01	14	15	55	33	-0.831226338874	0.120908978435	-0.3049274388	-0.70166015625	0.0048828125	0.33642578125	-61.6875	-158.5625	118.8125
19	01	14	15	55	33	-0.8282851813	0.113949482978	-0.280570848017	-0.66455078125	0.0478515625	0.33642578125	-71.0	-150.9375	110.75
19	01	14	15	55	33	-0.824733727213	0.109126315715	-0.256275950608	-0.63916015625	0.04248046875	0.3544921875	-78.5625	-142.25	100.3125
19	01	14	15	55	33	-0.820840775471	0.10625948324	-0.232293850208	-0.61328125	-0.00146484375	0.3623046875	-83.5	-133.375	89.5
19	01	14	15	55	33	-0.816717776679	0.104851377995	-0.209580693851	-0.57421875	-0.04345703125	0.373046875	-83.5	-121.5625	78.375
19	01	14	15	55	33	-0.812891063792	0.104487536693	-0.189078498057	-0.5185546875	-0.103515625	0.38818359375	-77.0625	-105.8125	64.375
19	01	14	15	55	33	-0.809343024367	0.107904265672	-0.173574508808	-0.4912109375	-0.10302734375	0.45458984375	-69.4375	-82.125	47.1875
19	01	14	15	55	33	-0.807011038041	0.114615951708	-0.164356101145	-0.59326171875	-0.142578125	0.4365234375	-57.25	-48.6875	21.625
19	01	14	15	55	33	-0.804979322317	0.123288970436	-0.162350822455	-0.658203125	-0.185546875	0.5078125	-38.125	-8.75	9.25
19	01	14	15	55	33	-0.803747943108	0.134029196071	-0.166193761795	-0.6689453125	-0.25927734375	0.47119140625	-21.0	25.625	-5.9375
19	01	14	15	55	33	-0.804397710238	0.142936224384	-0.176259528617	-0.69921875	-0.24609375	0.568359375	11.3125	52.625	-26.0
19	01	14	15	55	33	-0.80624939819	0.15001975933	-0.194268874674	-0.8408203125	-0.1474609375	0.67626953125	43.75	82.6875	-45.5625
19	01	14	15	55	33	-0.809557361095	0.151364765947	-0.217586851048	-0.99853515625	-0.13671875	0.69287109375	86.375	111.875	-57.75
19	01	14	15	55	33	-0.812593857783	0.149530941232	-0.248648593706	-1.1064453125	-0.12646484375	0.65869140625	129.125	141.125	-63.8125
19	01	14	15	55	33	-0.813702658123	0.142880132213	-0.284966824991	-1.0068359375	-0.23291015625	0.60009765625	168.625	157.125	-50.125
19	01	14	15	55	33	-0.814972874236	0.135371065308	-0.319812615966	-0.96240234375	-0.1396484375	0.54052734375	171.75	151.1875	-63.625
19	01	14	15	55	33	-0.815805868965	0.132865218578	-0.350197806248	-1.07373046875	0.109375	0.5546875	135.25	145.1875	-82.5
19	01	14	15	55	33	-0.815082822736	0.138603750688	-0.373699148155	-1.1416015625	0.20703125	0.5498046875	70.8125	134.4375	-87.0625
19	01	14	15	55	33	-0.812039920304	0.154595799935	-0.391280565882	-1.1748046875	0.1455078125	0.59326171875	-1.625	134.4375	-88.375
19	01	14	15	55	33	-0.807176629672	0.175412146214	-0.407219846743	-1.18115234375	-0.0302734375	0.552734375	-30.5625	141.5	-88.75
19	01	14	15	55	33	-0.801239105777	0.1959764449	-0.423995130091	-1.150390625	-0.126953125	0.4541015625	-25.875	148.6875	-89.125
19	01	14	15	55	33	-0.795448607111	0.212335279992	-0.441881985382	-1.0751953125	-0.17041015625	0.36865234375	1.25	147.0	-86.375
19	01	14	15	55	33	-0.790874083256	0.222467667346	-0.460315815397	-0.98681640625	-0.17724609375	0.32958984375	37.375	137.3125	-82.625
19	01	14	15	55	33	-0.787957211266	0.227231967277	-0.478572617625	-0.9052734375	-0.13330078125	0.3251953125	70.125	126.5625	-85.125
19	01	14	15	55	33	-0.786446634071	0.228256279018	-0.496121735865	-0.85888671875	-0.05224609375	0.32080078125	94.125	117.25	-91.5
19	01	14	15	55	33	-0.785481826574	0.228259676098	-0.512119503246	-0.82373046875	0.015625	0.3291015625	99.875	109.4375	-98.6875
19	01	14	15	55	33	-0.784518289514	0.228446550307	-0.526348664133	-0.81201171875	0.0537109375	0.35986328125	97.0625	103.5625	-103.75
19	01	14	15	55	33	-0.783288575553	0.228382877491	-0.539525557729	-0.81689453125	0.0283203125	0.412109375	97.625	100.8125	-105.9375
19	01	14	15	55	33	-0.78231947657	0.226187859273	-0.551981381346	-0.82421875	-0.0087890625	0.45654296875	110.9375	97.1875	-106.1875
19	01	14	15	55	33	-0.782014067469	0.220206567972	-0.56382158396	-0.8291015625	-0.01318359375	0.515625	134.0625	92.3125	-105.5625
19	01	14	15	55	33	-0.782428157355	0.210681903213	-0.574370623156	-0.80224609375	0.02734375	0.5498046875	154.75	84.25	-103.625
19	01	14	15	55	33	-0.783008824414	0.199276935982	-0.58318257988	-0.7958984375	0.10546875	0.56640625	161.0625	74.9375	-100.875
19	01	14	15	55	33	-0.783046025791	0.189261553077	-0.589939429875	-0.78271484375	0.19482421875	0.5888671875	143.5	65.875	-97.375
19	01	14	15	55	33	-0.781363435455	0.183713790089	-0.595635507468	-0.82177734375	0.2646484375	0.6259765625	102.25	62.5625	-90.125
19	01	14	15	55	33	-0.78030601786	0.179497848926	-0.598855115153	-0.900390625	0.26806640625	0.640625	50.5	61.25	-78.5
19	01	14	15	55	33	-0.777724857294	0.179859935215	-0.602259192637	-0.97998046875	0.19189453125	0.6083984375	8.25	57.9375	-63.5
19	01	14	15	55	33	-0.774753980752	0.182488924094	-0.605326136844	-1.07958984375	0.046875	0.55419921875	-15.875	48.8125	-43.4375
19	01	14	15	55	33	-0.772619989944	0.184198367142	-0.607525031985	-1.2099609375	-0.06396484375	0.5205078125	-21.5	34.25	-20.0625
19	01	14	15	55	33	-0.772358407625	0.182912536361	-0.608182657604	-1.31884765625	-0.080078125	0.4970703125	-18.3125	14.4375	5.0
19	01	14	15	55	33	-0.77354290002	0.179134323147	-0.607530852675	-1.431640625	-0.02001953125	0.4267578125	-25.25	-9.625	33.0625
19	01	14	15	55	33	-0.775925149176	0.176449272891	-0.604480663686	-1.38720703125	-0.06494140625	0.31298828125	-47.0625	-38.125	60.375
19	01	14	15	55	33	-0.779490076907	0.176441106509	-0.598105445795	-1.2607421875	-0.1904296875	0.255859375	-74.1875	-65.6875	84.9375
19	01	14	15	55	33	-0.784743235421	0.177357586105	-0.587672469581	-1.16015625	-0.24658203125	0.25244140625	-92.5625	-91.75	102.875
19	01	14	15	55	33	-0.790316600474	0.178521589033	-0.574564868087	-1.15478515625	-0.17333984375	0.26513671875	-106.875	-108.75	114.625
19	01	14	15	55	33	-0.794693517166	0.182301630887	-0.559233292204	-1.15478515625	-0.0537109375	0.248046875	-135.5625	-118.625	122.3125
19	01	14	15	55	34	-0.796895867116	0.190542153415	-0.541415580699	-1.2265625	0.0078125	0.22705078125	-174.5625	-125.1875	126.0
19	01	14	15	55	34	-0.797459391931	0.202874255226	-0.520246736325	-1.34521484375	0.04541015625	0.240234375	-203.6875	-134.25	118.8125
19	01	14	15	55	34	-0.797736400821	0.21562257701	-0.49587699921	-1.40380859375	0.0029296875	0.27734375	-204.5	-145.875	106.6875
19	01	14	15	55	34	-0.798751791034	0.225764718808	-0.469168259928	-1.35693359375	-0.1201171875	0.30126953125	-183.75	-158.4375	95.1875
19	01	14	15	55	34	-0.801126334449	0.23052370602	-0.441150475804	-1.234375	-0.24609375	0.35107421875	-148.5	-171.9375	90.0
19	01	14	15	55	34	-0.80544357303	0.227711598922	-0.413432959287	-1.0888671875	-0.31640625	0.35546875	-97.75	-183.3125	85.8125
19	01	14	15	55	34	-0.811345161283	0.217025981159	-0.387302271213	-0.94287109375	-0.28271484375	0.33642578125	-45.75	-190.5	82.9375
19	01	14	15	55	34	-0.81782767868	0.200062621695	-0.363261965933	-0.830078125	-0.17041015625	0.31982421875	-5.375	-191.625	82.125
19	01	14	15	55	34	-0.823401494815	0.180414707485	-0.341176662665	-0.74267578125	-0.0400390625	0.31201171875	13.0625	-185.25	83.0625
19	01	14	15	55	34	-0.827115250082	0.161980805322	-0.320238615494	-0.69775390625	0.0859375	0.29736328125	7.4375	-172.4375	82.5625
19	01	14	15	55	34	-0.828638049009	0.147942743669	-0.299486403954	-0.68505859375	0.1650390625	0.283203125	-16.0625	-157.75	80.125
19	01	14	15	55	34	-0.828179338873	0.13988113815	-0.277748280856	-0.6796875	0.18701171875	0.26611328125	-49.75	-144.5	76.0
19	01	14	15	55	34	-0.82626105841	0.137750864886	-0.254750602586	-0.68212890625	0.140625	0.25732421875	-81.25	-132.875	69.0625
19	01	14	15	55	34	-0.823575506446	0.139703893157	-0.23131400396	-0.6875	0.05419921875	0.26025390625	-99.8125	-121.75	59.6875
19	01	14	15	55	34	-0.820928464888	0.142568500036	-0.208848205103	-0.6865234375	-0.072265625	0.27197265625	-96.375	-112.8125	48.9375
19	01	14	15	55	34	-0.818510045379	0.144586555626	-0.188896323201	-0.6142578125	-0.12744140625	0.3359375	-81.375	-100.875	40.3125
19	01	14	15	55	34	-0.816478113868	0.148184247307	-0.175221158986	-0.60546875	-0.1357421875	0.42724609375	-60.5	-81.375	25.375
19	01	14	15	55	34	-0.815562817493	0.151418944114	-0.168446709293	-0.70751953125	-0.11572265625	0.48291015625	-34.0	-52.875	6.625
19	01	14	15	55	34	-0.815591842527	0.154842213911	-0.168025469017	-0.78759765625	-0.1708984375	0.47265625	-8.25	-25.625	-6.75
19	01	14	15	55	34	-0.816057800223	0.158560927753	-0.172110013958	-0.75537109375	-0.21875	0.56005859375	8.875	3.1875	-13.375
19	01	14	15	55	34	-0.817207700922	0.16264813465	-0.182300179436	-0.81787109375	-0.2109375	0.63818359375	28.5625	34.875	-26.0
19	01	14	15	55	34	-0.818985534028	0.165396139594	-0.199573939658	-0.91357421875	-0.18505859375	0.74365234375	58.9375	66.75	-37.625
19	01	14	15	55	34	-0.82218838425	0.163204790994	-0.222102555882	-1.03369140625	-0.1513671875	0.69775390625	96.5	100.0	-50.375
19	01	14	15	55	34	-0.82514547676	0.156667783938	-0.250656248007	-0.916015625	-0.275390625	0.5849609375	140.1875	120.125	-49.5625
19	01	14	15	55	34	-0.827231439231	0.148796683551	-0.281602911363	-0.78564453125	-0.30712890625	0.5439453125	155.4375	133.1875	-51.375
19	01	14	15	55	34	-0.828762091275	0.143060486188	-0.312487068807	-0.8349609375	-0.12939453125	0.50439453125	146.8125	141.4375	-67.3125
19	01	14	15	55	34	-0.829086247883	0.141415844843	-0.341912629611	-0.9306640625	0.04150390625	0.458984375	122.625	147.125	-80.125
19	01	14	15	55	34	-0.827118364988	0.146967312787	-0.368150677214	-0.98291015625	0.08203125	0.4296875	75.0	152.4375	-84.0625
19	01	14	15	55	34	-0.822969162956	0.159845464089	-0.391282653791	-1.0087890625	0.015625	0.39697265625	27.875	157.875	-87.1875
19	01	14	15	55	34	-0.817245297707	0.176815506158	-0.412772961045	-1.05517578125	-0.08740234375	0.369140625	3.6875	162.1875	-91.25
19	01	14	15	55	34	-0.811246158413	0.192680117523	-0.433759136913	-1.1005859375	-0.1748046875	0.29931640625	11.0	159.125	-94.125
19	01	14	15	55	34	-0.806244268557	0.202690175313	-0.455183175995	-1.0888671875	-0.267578125	0.25634765625	48.4375	150.75	-93.1875
19	01	14	15	55	34	-0.802944602096	0.204947398437	-0.477518893797	-1.076171875	-0.302734375	0.267578125	98.8125	142.9375	-94.9375
19	01	14	15	55	34	-0.801180384362	0.200310354344	-0.500226588728	-1.05419921875	-0.26171875	0.27099609375	145.5625	135.1875	-100.75
19	01	14	15	55	34	-0.800133559707	0.191336286017	-0.521948299208	-1.0234375	-0.166015625	0.267578125	173.875	127.3125	-107.1875
19	01	14	15	55	34	-0.798778344892	0.181324149043	-0.541531193019	-0.99462890625	-0.048828125	0.28125	177.25	118.9375	-112.625
19	01	14	15	55	34	-0.796768926717	0.172292507095	-0.558257018206	-0.9794921875	0.01513671875	0.3134765625	165.125	109.25	-114.5
19	01	14	15	55	34	-0.794114982923	0.164547997384	-0.572439045795	-0.98388671875	0.00732421875	0.35302734375	151.5	100.3125	-113.75
19	01	14	15	55	34	-0.791043515967	0.1565486165	-0.58481436386	-0.990234375	0.00048828125	0.39892578125	149.3125	94.25	-112.5
19	01	14	15	55	34	-0.7878069908	0.147210292982	-0.595554742503	-0.9638671875	0.01708984375	0.44482421875	154.5625	87.75	-110.875
19	01	14	15	55	34	-0.784328480959	0.136895866687	-0.604648841402	-0.93896484375	0.04931640625	0.48681640625	156.3125	81.5625	-107.3125
19	01	14	15	55	34	-0.78053117842	0.127250567441	-0.611962321215	-0.90625	0.1162109375	0.517578125	146.8125	74.6875	-105.25
19	01	14	15	55	34	-0.776338251279	0.119929611931	-0.617713792547	-0.8876953125	0.16259765625	0.509765625	123.875	66.125	-100.5
19	01	14	15	55	34	-0.774029423434	0.11272924973	-0.620346558885	-0.9091796875	0.16162109375	0.52197265625	93.375	58.125	-93.3125
19	01	14	15	55	34	-0.771890822757	0.107907248726	-0.622053551477	-0.96923828125	0.1259765625	0.54248046875	68.125	50.5	-83.5
19	01	14	15	55	34	-0.770227563748	0.103449740139	-0.623017668046	-1.02880859375	0.08056640625	0.5439453125	56.9375	42.5625	-71.125
19	01	14	15	55	34	-0.769332701312	0.0981425611828	-0.623278504228	-1.06201171875	0.04638671875	0.513671875	52.3125	32.8125	-54.625
19	01	14	15	55	34	-0.769698724262	0.0914288073067	-0.622362849203	-1.05859375	-0.00439453125	0.50341796875	52.0625	21.625	-35.375
19	01	14	15	55	34	-0.771494567168	0.082086875472	-0.620442510073	-1.123046875	0.03662109375	0.51025390625	52.875	10.8125	-14.6875
19	01	14	15	55	34	-0.774368704047	0.071529013331	-0.618005792653	-1.1806640625	0.1201171875	0.50634765625	41.5	1.1875	5.375
19	01	14	15	55	34	-0.777806518696	0.0619486516381	-0.615946593431	-1.3212890625	0.236328125	0.4833984375	9.5	-7.0	27.875
19	01	14	15	55	35	-0.781657248875	0.0565781423993	-0.613814863117	-1.32861328125	0.18359375	0.40869140625	-30.0625	-20.0	48.8125
19	01	14	15	55	35	-0.786696330384	0.0553555912846	-0.610010071543	-1.2060546875	0.0234375	0.375	-59.625	-36.4375	69.5
19	01	14	15	55	35	-0.793402787955	0.0561485049937	-0.603657459666	-1.1181640625	-0.00732421875	0.36669921875	-81.4375	-56.125	88.3125
19	01	14	15	55	35	-0.800552339361	0.0599941259123	-0.595608010964	-1.0830078125	0.05029296875	0.3359375	-106.125	-70.875	104.375
19	01	14	15	55	35	-0.807608676281	0.067137964322	-0.585870290479	-1.07421875	0.0947265625	0.298828125	-138.5625	-81.875	115.8125
19	01	14	15	55	35	-0.813866609677	0.0783045264504	-0.574253538092	-1.2548828125	0.13330078125	0.2919921875	-176.1875	-91.625	127.3125
19	01	14	15	55	35	-0.819425165584	0.0927086866171	-0.559730984178	-1.36376953125	0.10693359375	0.2421875	-200.75	-105.3125	128.375
19	01	14	15	55	35	-0.823772523648	0.108823176236	-0.542712104933	-1.4306640625	-0.0087890625	0.24462890625	-213.1875	-114.0	129.0625
19	01	14	15	55	35	-0.827835033506	0.123894508848	-0.522554081162	-1.38623046875	-0.14501953125	0.23583984375	-205.0	-128.4375	126.1875
19	01	14	15	55	35	-0.832036379963	0.135855129597	-0.499600220522	-1.2587890625	-0.20654296875	0.23876953125	-184.75	-143.125	122.8125
19	01	14	15	55	35	-0.836331972399	0.143671127711	-0.474651809775	-1.12841796875	-0.263671875	0.244140625	-159.0	-155.3125	121.6875
19	01	14	15	55	35	-0.840724494706	0.147393804335	-0.448406741387	-1.01171875	-0.25537109375	0.25927734375	-133.125	-164.8125	118.0
19	01	14	15	55	35	-0.844888614902	0.147579330408	-0.421498286102	-0.93798828125	-0.18408203125	0.27783203125	-111.375	-170.8125	113.625
19	01	14	15	55	35	-0.848470830122	0.14556200042	-0.394329595268	-0.8740234375	-0.07470703125	0.27978515625	-97.625	-172.75	108.4375
19	01	14	15	55	35	-0.850894031639	0.142812511407	-0.367467577428	-0.8251953125	0.013671875	0.29443359375	-92.1875	-168.625	103.6875
19	01	14	15	55	35	-0.851961520336	0.140803440606	-0.341053153925	-0.818359375	0.09130859375	0.30419921875	-94.125	-161.6875	98.25
19	01	14	15	55	35	-0.851958762496	0.139765424895	-0.31492995304	-0.814453125	0.1103515625	0.29443359375	-96.3125	-155.75	91.125
19	01	14	15	55	35	-0.851186557574	0.139463737563	-0.289181264146	-0.81005859375	0.0751953125	0.28515625	-95.9375	-150.1875	83.4375
19	01	14	15	55	35	-0.850003925909	0.13939893493	-0.264211028596	-0.79638671875	0.029296875	0.27734375	-91.6875	-143.625	73.6875
19	01	14	15	55	35	-0.848794114647	0.138851413736	-0.240350271337	-0.7744140625	-0.025390625	0.2734375	-81.5	-137.25	63.1875
19	01	14	15	55	35	-0.847551813078	0.137810325767	-0.218494670614	-0.69287109375	-0.029296875	0.3095703125	-70.75	-126.125	53.5625
19	01	14	15	55	35	-0.846611873117	0.136961793906	-0.199400258775	-0.64892578125	-0.05517578125	0.34033203125	-59.75	-109.125	39.3125
19	01	14	15	55	35	-0.84577854944	0.138725259264	-0.187550691473	-0.68994140625	-0.07421875	0.4296875	-44.9375	-85.75	18.875
19	01	14	15	55	35	-0.845979704372	0.141169544493	-0.181085187423	-0.7587890625	-0.1474609375	0.4716796875	-24.0625	-59.0	-0.3125
19	01	14	15	55	35	-0.846475502035	0.143795247155	-0.179927159853	-0.7939453125	-0.18115234375	0.55810546875	-5.6875	-30.3125	-9.125
19	01	14	15	55	35	-0.847378129441	0.146112304947	-0.185417369436	-0.84912109375	-0.20703125	0.63330078125	18.5	2.9375	-19.375
19	01	14	15	55	35	-0.848551366365	0.146419817875	-0.19872568862	-0.9287109375	-0.24072265625	0.70556640625	55.625	36.4375	-26.125
19	01	14	15	55	35	-0.850158018143	0.143239114758	-0.219039276893	-0.9267578125	-0.2734375	0.6650390625	98.3125	64.75	-31.5625
19	01	14	15	55	35	-0.85251102496	0.131587469202	-0.242179535155	-0.7822265625	-0.353515625	0.60302734375	140.5625	83.8125	-31.75
19	01	14	15	55	35	-0.854773540426	0.118893170778	-0.267387567341	-0.7353515625	-0.28857421875	0.5615234375	153.6875	94.3125	-42.125
19	01	14	15	55	35	-0.856733865086	0.108762538119	-0.292840997698	-0.81005859375	-0.08544921875	0.5458984375	143.125	103.4375	-59.875
19	01	14	15	55	35	-0.857241530566	0.104485084745	-0.317178145689	-0.8515625	0.0322265625	0.52880859375	109.5625	114.5625	-68.875
19	01	14	15	55	35	-0.855370363472	0.10930919165	-0.339523748269	-0.85595703125	0.02783203125	0.50830078125	55.1875	128.4375	-70.3125
19	01	14	15	55	35	-0.85128828175	0.122310131677	-0.360521930047	-0.908203125	-0.04150390625	0.48046875	8.0	142.625	-73.6875
19	01	14	15	55	35	-0.845952103426	0.138357508006	-0.381078200259	-0.9619140625	-0.13427734375	0.41552734375	-7.375	148.875	-77.25
19	01	14	15	55	35	-0.840667287175	0.151971943159	-0.401596540556	-0.9287109375	-0.240234375	0.349609375	9.125	145.375	-79.3125
19	01	14	15	55	35	-0.836375004024	0.160207558783	-0.422398672128	-0.87890625	-0.30419921875	0.3046875	43.8125	138.0625	-83.0
19	01	14	15	55	35	-0.833302377874	0.162534551548	-0.443536832931	-0.84619140625	-0.26171875	0.30078125	82.6875	130.5625	-88.875
19	01	14	15	55	35	-0.831024678825	0.160211499847	-0.464521800128	-0.83447265625	-0.1728515625	0.2900390625	112.0625	123.5	-95.4375
19	01	14	15	55	35	-0.828893918088	0.156001241045	-0.484482727471	-0.8349609375	-0.08349609375	0.279296875	124.375	118.0	-102.6875
19	01	14	15	55	35	-0.826218839633	0.152035985043	-0.503226293328	-0.86669921875	-0.013671875	0.30859375	123.4375	115.875	-109.75
19	01	14	15	55	35	-0.822538765239	0.149286177916	-0.520975803226	-0.88671875	0.01953125	0.39013671875	116.75	117.625	-116.3125
19	01	14	15	55	35	-0.817611219994	0.14703086212	-0.538258685363	-0.91162109375	0.0048828125	0.474609375	113.5	121.5625	-118.5
19	01	14	15	55	35	-0.811670455815	0.144158629719	-0.555090066594	-0.92578125	0.00830078125	0.5302734375	117.25	124.5	-120.0625
19	01	14	15	55	35	-0.804889997745	0.139885340827	-0.571259507044	-0.93017578125	0.0205078125	0.57958984375	124.25	124.5625	-119.0
19	01	14	15	55	35	-0.797808317117	0.134819352242	-0.585722645301	-0.94384765625	0.07373046875	0.61181640625	125.4375	118.8125	-117.9375
19	01	14	15	55	35	-0.790622432647	0.130427677827	-0.59800205304	-0.958984375	0.1064453125	0.61279296875	117.125	108.5	-116.5
19	01	14	15	55	35	-0.783394638923	0.128348311441	-0.608052414116	-0.9853515625	0.12255859375	0.57421875	94.1875	95.6875	-112.125
19	01	14	15	55	35	-0.778304236892	0.126157062238	-0.614367193268	-1.02978515625	0.06494140625	0.52685546875	66.375	81.3125	-98.9375
19	01	14	15	55	36	-0.774159409881	0.124937268372	-0.618888080747	-1.072265625	-0.029296875	0.5048828125	48.0625	64.875	-79.5625
19	01	14	15	55	36	-0.771894649893	0.121884527227	-0.621263196114	-1.09375	-0.10791015625	0.50146484375	48.5625	46.6875	-57.1875
19	01	14	15	55	36	-0.772073073422	0.114376675067	-0.621381498855	-1.15234375	-0.1572265625	0.51416015625	64.0	28.125	-30.8125
19	01	14	15	55	36	-0.774510024402	0.101192877893	-0.61966905262	-1.267578125	-0.0693359375	0.48876953125	82.25	8.3125	-7.5625
19	01	14	15	55	36	-0.778363425251	0.0850200150063	-0.616807086614	-1.38134765625	0.08544921875	0.4501953125	79.1875	-8.625	12.8125
19	01	14	15	55	36	-0.783327580881	0.0708620322116	-0.612672764289	-1.35693359375	0.15625	0.3916015625	48.875	-27.375	32.875
19	01	14	15	55	36	-0.789565606034	0.0609095211272	-0.606714979484	-1.19091796875	0.078125	0.3701171875	14.125	-44.5625	52.75
19	01	14	15	55	36	-0.79701909951	0.0534641803485	-0.599030742147	-1.1220703125	0.04736328125	0.38525390625	-13.3125	-58.75	72.875
19	01	14	15	55	36	-0.804958726659	0.0479105770284	-0.590307135056	-1.11962890625	0.1484375	0.35986328125	-42.3125	-71.0	88.6875
19	01	14	15	55	36	-0.812833985633	0.0484599928362	-0.58036029204	-1.18603515625	0.2099609375	0.33544921875	-82.125	-80.5625	103.5625
19	01	14	15	55	36	-0.820416420739	0.0535876816998	-0.56895713987	-1.291015625	0.21533203125	0.318359375	-121.9375	-89.9375	114.375
19	01	14	15	55	36	-0.827474751519	0.0621918256231	-0.555637272299	-1.353515625	0.1123046875	0.31982421875	-150.0	-98.75	122.0625
19	01	14	15	55	36	-0.833645811876	0.0718355019092	-0.540627762032	-1.36572265625	-0.0224609375	0.33154296875	-160.5625	-105.0625	129.4375
19	01	14	15	55	36	-0.839406305153	0.0807485306273	-0.523370105918	-1.267578125	-0.13916015625	0.29638671875	-156.625	-115.25	132.9375
19	01	14	15	55	36	-0.844869749053	0.0880695693046	-0.503821409986	-1.119140625	-0.2216796875	0.2666015625	-148.375	-126.4375	134.8125
19	01	14	15	55	36	-0.849972643327	0.0945363412446	-0.481714229467	-0.98095703125	-0.25830078125	0.26904296875	-145.375	-138.25	136.5
19	01	14	15	55	36	-0.854520213693	0.100521019352	-0.456952563382	-0.9013671875	-0.23486328125	0.26416015625	-146.3125	-150.3125	136.5625
19	01	14	15	55	36	-0.858200283671	0.106199309693	-0.430290306513	-0.8310546875	-0.16552734375	0.2900390625	-145.875	-156.625	131.6875
19	01	14	15	55	36	-0.860681860535	0.111506577733	-0.402937288558	-0.798828125	-0.08349609375	0.31884765625	-142.25	-156.875	123.75
19	01	14	15	55	36	-0.862154959409	0.115779977205	-0.375659335634	-0.7666015625	-0.02294921875	0.33642578125	-132.125	-154.5	114.6875
19	01	14	15	55	36	-0.862985166672	0.11785179327	-0.34916111305	-0.728515625	-0.01318359375	0.35693359375	-113.8125	-151.125	105.625
19	01	14	15	55	36	-0.863458929022	0.117552972171	-0.324155677673	-0.72021484375	0.01025390625	0.3740234375	-92.625	-145.75	94.5625
19	01	14	15	55	36	-0.863954302604	0.114372023388	-0.301065737125	-0.73974609375	0.01904296875	0.34912109375	-67.875	-141.125	83.375
19	01	14	15	55	36	-0.86448358225	0.109372675755	-0.279718176889	-0.73046875	0.0283203125	0.330078125	-49.9375	-135.3125	72.8125
19	01	14	15	55	36	-0.864831441746	0.104304653066	-0.260242855865	-0.689453125	0.048828125	0.34375	-41.6875	-124.0625	61.4375
19	01	14	15	55	36	-0.865214061187	0.100339441069	-0.243036286093	-0.6748046875	0.02978515625	0.310546875	-36.9375	-109.25	46.6875
19	01	14	15	55	36	-0.864842870153	0.100033695426	-0.231682677142	-0.6748046875	0.00732421875	0.34912109375	-36.0625	-89.75	30.9375
19	01	14	15	55	36	-0.864062097152	0.10302584022	-0.224422994365	-0.74072265625	-0.02197265625	0.41357421875	-37.75	-61.6875	18.8125
19	01	14	15	55	36	-0.862439569622	0.10979610684	-0.221728324707	-0.7900390625	-0.1025390625	0.4462890625	-38.3125	-29.6875	12.0625
19	01	14	15	55	36	-0.859861056608	0.119384456752	-0.222960848935	-0.76611328125	-0.2109375	0.546875	-35.75	4.6875	11.75
19	01	14	15	55	36	-0.856711039091	0.130243026104	-0.229908846923	-0.8466796875	-0.205078125	0.59619140625	-25.8125	36.125	2.5625
19	01	14	15	55	36	-0.853778070877	0.138664935094	-0.243457053737	-0.95263671875	-0.19287109375	0.67578125	6.625	63.8125	-8.25
19	01	14	15	55	36	-0.850797298545	0.144830845728	-0.264027913451	-1.04296875	-0.1650390625	0.62109375	39.3125	91.5	-20.0
19	01	14	15	55	36	-0.848912785537	0.143855592459	-0.286124317967	-0.93310546875	-0.24560546875	0.53173828125	76.5	109.375	-22.75
19	01	14	15	55	36	-0.846510024393	0.140128840375	-0.311566955626	-0.826171875	-0.28955078125	0.513671875	101.375	123.5	-23.0625
19	01	14	15	55	36	-0.844008146516	0.136039782962	-0.338543147641	-0.8369140625	-0.17578125	0.490234375	110.5	133.1875	-36.4375
19	01	14	15	55	36	-0.841251980043	0.134329338949	-0.365637014831	-0.90087890625	-0.005859375	0.44677734375	103.0	141.3125	-56.75
19	01	14	15	55	36	-0.836859086434	0.13847967234	-0.391453776283	-0.9638671875	0.07861328125	0.4365234375	69.5	151.5	-67.5
19	01	14	15	55	36	-0.830161152266	0.150444584645	-0.415690898991	-1.04248046875	0.06591796875	0.439453125	24.625	164.25	-75.8125
19	01	14	15	55	36	-0.822052530149	0.166375766366	-0.438887797483	-1.12890625	-0.0380859375	0.38427734375	3.875	170.1875	-84.0625
19	01	14	15	55	36	-0.814164403547	0.179799725101	-0.461583611996	-1.11376953125	-0.23388671875	0.33740234375	22.125	165.4375	-86.3125
19	01	14	15	55	36	-0.808208610311	0.186091833019	-0.4843636559	-1.0498046875	-0.37451171875	0.29345703125	71.375	154.125	-91.625
19	01	14	15	55	36	-0.804820994418	0.184009653308	-0.50692675966	-0.990234375	-0.345703125	0.2822265625	129.75	140.5	-102.25
19	01	14	15	55	36	-0.803037097364	0.175584262739	-0.528461637489	-0.95263671875	-0.2373046875	0.26025390625	172.4375	128.0	-112.125
19	01	14	15	55	36	-0.801340975192	0.165455855578	-0.547633859131	-0.927734375	-0.1015625	0.248046875	181.5625	117.3125	-119.625
19	01	14	15	55	36	-0.798797591383	0.157037454357	-0.564004320138	-0.9130859375	-0.00732421875	0.2607421875	166.625	108.4375	-124.1875
19	01	14	15	55	36	-0.79530320891	0.151236386438	-0.57772543746	-0.92041015625	0.0	0.2861328125	144.625	100.5625	-124.9375
19	01	14	15	55	36	-0.791190832908	0.146299809186	-0.589532689583	-0.93798828125	-0.03173828125	0.31640625	134.5625	94.3125	-123.1875
19	01	14	15	55	36	-0.786897611006	0.139765417607	-0.599831669973	-0.923828125	-0.044921875	0.357421875	140.5625	88.0625	-119.0625
19	01	14	15	55	36	-0.782068216441	0.130792273126	-0.609285703506	-0.94677734375	0.00537109375	0.4296875	148.625	86.875	-110.1875
19	01	14	15	55	37	-0.776692764506	0.120965351191	-0.617643468239	-0.9150390625	0.107421875	0.4560546875	146.25	83.6875	-103.125
19	01	14	15	55	37	-0.770768427868	0.112420258463	-0.624902837354	-0.89013671875	0.1572265625	0.462890625	127.6875	78.3125	-94.1875
19	01	14	15	55	37	-0.766746940733	0.103876724757	-0.629241499559	-0.89208984375	0.18505859375	0.4873046875	96.5	70.9375	-86.3125
19	01	14	15	55	37	-0.762772294458	0.0982607932531	-0.633019222125	-0.9287109375	0.1845703125	0.52734375	63.1875	66.125	-74.9375
19	01	14	15	55	37	-0.758692532045	0.0953324539502	-0.636994124122	-0.9990234375	0.1689453125	0.5166015625	30.1875	61.5625	-59.5
19	01	14	15	55	37	-0.755079783816	0.0940493005869	-0.640768077133	-1.05126953125	0.09619140625	0.51123046875	6.5625	55.25	-41.3125
19	01	14	15	55	37	-0.752649226849	0.0927689608182	-0.643523633465	-1.0771484375	-0.02685546875	0.529296875	-0.9375	46.375	-21.8125
19	01	14	15	55	37	-0.752093209189	0.0883128194186	-0.64479954192	-1.18017578125	-0.0546875	0.5302734375	8.5625	33.25	-1.8125
19	01	14	15	55	37	-0.753455512421	0.0808690606689	-0.644755288231	-1.32666015625	0.033203125	0.50244140625	10.375	16.5625	17.875
19	01	14	15	55	37	-0.756690799129	0.073423054634	-0.643351969158	-1.45947265625	0.11376953125	0.44384765625	-11.6875	-4.8125	41.125
19	01	14	15	55	37	-0.761825795971	0.0695787059291	-0.639757890832	-1.4384765625	0.03173828125	0.35595703125	-44.0	-32.625	61.9375
19	01	14	15	55	37	-0.769193955827	0.0694551076515	-0.632908142659	-1.29248046875	-0.11279296875	0.30810546875	-68.75	-61.4375	78.875
19	01	14	15	55	37	-0.778530593414	0.0709197671329	-0.622836681231	-1.21337890625	-0.1181640625	0.3193359375	-86.875	-84.4375	93.1875
19	01	14	15	55	37	-0.788824704654	0.0740915428588	-0.610126156474	-1.21337890625	-0.03857421875	0.2861328125	-105.1875	-105.8125	104.3125
19	01	14	15	55	37	-0.79960542092	0.0800154726224	-0.594531440743	-1.27197265625	0.03759765625	0.2607421875	-131.25	-123.4375	110.6875
19	01	14	15	55	37	-0.810035958905	0.089597105762	-0.576094742021	-1.39404296875	0.07275390625	0.24609375	-161.9375	-138.75	115.125
19	01	14	15	55	37	-0.819729814622	0.101009071789	-0.554970084458	-1.48388671875	-0.00927734375	0.23291015625	-176.6875	-150.375	116.8125
19	01	14	15	55	37	-0.828820604638	0.111811439447	-0.531531564491	-1.44921875	-0.13427734375	0.21337890625	-169.4375	-160.375	112.8125
19	01	14	15	55	37	-0.837877051984	0.119382831707	-0.505851180568	-1.30859375	-0.2705078125	0.2021484375	-147.25	-171.6875	111.6875
19	01	14	15	55	37	-0.847262279877	0.12212734635	-0.478255815093	-1.138671875	-0.35400390625	0.24072265625	-115.25	-183.8125	110.625
19	01	14	15	55	37	-0.857082876085	0.118891792538	-0.449384121385	-1.00244140625	-0.34814453125	0.2578125	-77.6875	-194.875	108.1875
19	01	14	15	55	37	-0.866685258162	0.110838058368	-0.420037179343	-0.90283203125	-0.24951171875	0.25634765625	-48.0	-201.4375	106.125
19	01	14	15	55	37	-0.875198066333	0.100458578604	-0.390482372971	-0.80908203125	-0.0986328125	0.2646484375	-36.4375	-202.0	105.5625
19	01	14	15	55	37	-0.881880574428	0.090147249528	-0.361443474411	-0.71435546875	0.00244140625	0.28759765625	-37.4375	-194.625	105.625
19	01	14	15	55	37	-0.886407423584	0.0816588496802	-0.333165665474	-0.67041015625	0.08203125	0.29248046875	-47.3125	-183.4375	105.75
19	01	14	15	55	37	-0.889148200472	0.0761656224991	-0.305394851751	-0.6728515625	0.14990234375	0.29150390625	-62.875	-172.4375	100.0625
19	01	14	15	55	37	-0.890389065254	0.0743364097251	-0.277998642281	-0.6728515625	0.15966796875	0.30517578125	-79.875	-161.0625	93.0
19	01	14	15	55	37	-0.890475647134	0.0764747077353	-0.251457139561	-0.662109375	0.1279296875	0.32080078125	-96.1875	-146.5625	80.0
19	01	14	15	55	37	-0.889843195412	0.0812332848486	-0.226366832084	-0.64306640625	0.06884765625	0.3310546875	-102.1875	-131.125	66.625
19	01	14	15	55	37	-0.888699744538	0.0866056546596	-0.203910847229	-0.60302734375	-0.041015625	0.3232421875	-95.0	-114.4375	55.375
19	01	14	15	55	37	-0.886633596903	0.0945408853585	-0.1878000673	-0.5712890625	-0.10302734375	0.38916015625	-84.25	-91.9375	43.8125
19	01	14	15	55	37	-0.88468151039	0.103573958133	-0.178095939794	-0.666015625	-0.0810546875	0.4169921875	-72.5625	-60.25	22.625
19	01	14	15	55	37	-0.883007342884	0.112481513197	-0.175405246299	-0.7685546875	-0.091796875	0.4091796875	-50.4375	-29.3125	5.5625
19	01	14	15	55	37	-0.881357821211	0.121025729483	-0.177418958954	-0.68408203125	-0.2021484375	0.4736328125	-29.1875	2.625	0.6875
19	01	14	15	55	37	-0.879431306947	0.130062330148	-0.184321087305	-0.62109375	-0.2705078125	0.57568359375	-14.75	38.1875	-2.875
19	01	14	15	55	37	-0.877925577798	0.137624065202	-0.198593662159	-0.7275390625	-0.2607421875	0.576171875	14.25	69.375	-18.875
19	01	14	15	55	37	-0.87655671427	0.142268047693	-0.219230728148	-0.80615234375	-0.21435546875	0.63037109375	44.625	96.625	-29.125
19	01	14	15	55	37	-0.875888486155	0.144221621684	-0.243217588832	-1.0009765625	-0.08203125	0.60595703125	62.125	128.0	-48.0
19	01	14	15	55	37	-0.875072878167	0.143424554589	-0.272079431641	-1.04638671875	-0.12158203125	0.5068359375	93.4375	148.9375	-59.9375
19	01	14	15	55	37	-0.872980944263	0.140614380284	-0.303688001863	-0.8935546875	-0.24951171875	0.49072265625	112.5	164.625	-57.6875
19	01	14	15	55	37	-0.869992378791	0.136891820809	-0.337072459352	-0.87841796875	-0.25390625	0.4736328125	125.6875	176.6875	-68.3125
19	01	14	15	55	37	-0.86598099456	0.132561189667	-0.371683998652	-0.92431640625	-0.1435546875	0.44091796875	135.5	186.75	-83.0
19	01	14	15	55	37	-0.859656191225	0.131771225904	-0.405750398244	-1.02392578125	-0.00830078125	0.43701171875	114.6875	195.875	-90.9375
19	01	14	15	55	37	-0.850358277649	0.137932226189	-0.437965334128	-1.1591796875	0.0849609375	0.4208984375	69.5625	202.8125	-95.125
19	01	14	15	55	37	-0.838569001798	0.15202877609	-0.466522667376	-1.19677734375	0.05419921875	0.31982421875	14.0	199.75	-95.875
19	01	14	15	55	37	-0.825002714968	0.172605435964	-0.490839079217	-1.2041015625	-0.0888671875	0.244140625	-34.375	189.375	-93.0625
19	01	14	15	55	37	-0.81166853745	0.191824514114	-0.511999951926	-1.1572265625	-0.3232421875	0.24951171875	-33.0	172.5	-84.375
19	01	14	15	55	38	-0.800375478269	0.202260510522	-0.532444385574	-1.11865234375	-0.44775390625	0.2998046875	19.25	158.875	-76.25
19	01	14	15	55	38	-0.792069311256	0.202259030475	-0.552397852995	-1.08642578125	-0.37548828125	0.27880859375	86.625	143.625	-74.875
19	01	14	15	55	38	-0.785582127946	0.196838036099	-0.570677717061	-1.056640625	-0.17138671875	0.21826171875	120.625	128.5625	-79.375
19	01	14	15	55	38	-0.779513426028	0.191643607714	-0.586221927419	-1.02685546875	-0.03466796875	0.20849609375	114.375	114.75	-81.8125
19	01	14	15	55	38	-0.773485466414	0.188900616946	-0.598927868849	-0.98291015625	-0.06396484375	0.27734375	93.0	102.5625	-81.6875
19	01	14	15	55	38	-0.768514789163	0.185598274606	-0.609099237281	-0.93115234375	-0.150390625	0.35009765625	89.4375	96.5	-80.125
19	01	14	15	55	38	-0.763775057129	0.179499955491	-0.618881179422	-0.92578125	-0.18017578125	0.36376953125	112.25	87.4375	-77.75
19	01	14	15	55	38	-0.760416974356	0.168940860825	-0.626997638459	-0.91357421875	-0.115234375	0.4033203125	141.25	78.125	-76.3125
19	01	14	15	55	38	-0.758025955698	0.154900956164	-0.633275146242	-0.8818359375	-0.0087890625	0.44921875	161.625	68.5625	-73.5625
19	01	14	15	55	38	-0.756352878953	0.139149888164	-0.637404136834	-0.82958984375	0.06103515625	0.4873046875	168.125	57.0625	-68.875
19	01	14	15	55	38	-0.754849934901	0.124262165868	-0.639742643728	-0.79345703125	0.146484375	0.52490234375	155.9375	47.625	-64.4375
19	01	14	15	55	38	-0.752843470616	0.112300931166	-0.641458036172	-0.80712890625	0.21826171875	0.5576171875	125.125	42.3125	-56.3125
19	01	14	15	55	38	-0.753280005767	0.100278646044	-0.640794586011	-0.85888671875	0.21923828125	0.5517578125	88.1875	38.25	-45.5
19	01	14	15	55	38	-0.75350027324	0.0922192542415	-0.64034706519	-0.9111328125	0.16259765625	0.54638671875	51.5625	32.9375	-34.0
19	01	14	15	55	38	-0.754311478431	0.0872166925057	-0.639446667167	-0.9599609375	0.03564453125	0.5390625	23.75	23.0625	-18.0625
19	01	14	15	55	38	-0.756358264123	0.0823309366821	-0.63783589271	-1.12646484375	0.005859375	0.56396484375	9.0625	12.3125	-0.5
19	01	14	15	55	38	-0.759638571295	0.0764765490787	-0.635799051678	-1.388671875	0.07470703125	0.533203125	-5.375	-1.625	19.0625
19	01	14	15	55	38	-0.764135304187	0.0712257108615	-0.633036052319	-1.609375	0.095703125	0.458984375	-25.875	-21.0	38.9375
19	01	14	15	55	38	-0.770424066947	0.0688456268332	-0.627850144711	-1.57373046875	-0.1259765625	0.349609375	-41.125	-49.25	59.0625
19	01	14	15	55	38	-0.779548429449	0.0672561159675	-0.618731854518	-1.43505859375	-0.31787109375	0.32958984375	-42.875	-79.125	80.625
19	01	14	15	55	38	-0.791150639921	0.0637168300607	-0.60610329438	-1.29541015625	-0.34130859375	0.31884765625	-40.625	-103.9375	98.375
19	01	14	15	55	38	-0.803976666492	0.059384293365	-0.590913389886	-1.2236328125	-0.2421875	0.28662109375	-44.8125	-121.375	111.0625
19	01	14	15	55	38	-0.81686610649	0.0578593147753	-0.573893604253	-1.20263671875	-0.125	0.2666015625	-69.9375	-133.3125	116.625
19	01	14	15	55	38	-0.829087440036	0.0614003213101	-0.555227358805	-1.23876953125	-0.0478515625	0.27294921875	-107.625	-141.0	118.0625
19	01	14	15	55	38	-0.840065588623	0.0701275327905	-0.535019976015	-1.30712890625	-0.00634765625	0.287109375	-142.75	-146.1875	115.1875
19	01	14	15	55	38	-0.849741366558	0.0822094103823	-0.51309169494	-1.322265625	-0.01806640625	0.30078125	-162.9375	-150.5	109.5625
19	01	14	15	55	38	-0.858484598649	0.0949667308046	-0.489176315809	-1.26220703125	-0.099609375	0.322265625	-164.5	-157.5	104.5
19	01	14	15	55	38	-0.866968863597	0.105769591032	-0.462810622503	-1.134765625	-0.2197265625	0.349609375	-150.125	-168.125	101.5
19	01	14	15	55	38	-0.875401824356	0.112606593177	-0.434679759678	-0.9951171875	-0.28759765625	0.3916015625	-123.3125	-177.9375	97.1875
19	01	14	15	55	38	-0.883616536374	0.114434383596	-0.405982677162	-0.8798828125	-0.25830078125	0.3974609375	-91.25	-182.625	93.3125
19	01	14	15	55	38	-0.891066952429	0.112054720867	-0.377971070986	-0.78369140625	-0.1611328125	0.3876953125	-64.625	-180.6875	89.6875
19	01	14	15	55	38	-0.897259830891	0.107663855635	-0.351372345176	-0.701171875	-0.05712890625	0.37548828125	-49.9375	-172.25	86.0
19	01	14	15	55	38	-0.901926365306	0.10326562526	-0.326458528084	-0.64306640625	0.02099609375	0.345703125	-47.3125	-159.8125	81.8125
19	01	14	15	55	38	-0.905063436986	0.100521915214	-0.303091579208	-0.62158203125	0.0791015625	0.31884765625	-53.1875	-146.5625	76.625
19	01	14	15	55	38	-0.906927585987	0.100213667308	-0.28104990131	-0.61865234375	0.107421875	0.3095703125	-63.0	-133.375	69.75
19	01	14	15	55	38	-0.907653436846	0.102471094706	-0.260297331102	-0.62744140625	0.1005859375	0.29833984375	-73.125	-120.375	62.4375
19	01	14	15	55	38	-0.907526530774	0.106986819667	-0.240705086575	-0.62451171875	0.0439453125	0.27734375	-80.875	-109.0625	55.1875
19	01	14	15	55	38	-0.906012437972	0.114495071313	-0.225023095911	-0.5908203125	-0.0634765625	0.30517578125	-83.625	-98.4375	48.75
19	01	14	15	55	38	-0.903960930741	0.12340888542	-0.210869287402	-0.57275390625	-0.0703125	0.40234375	-87.4375	-83.125	41.125
19	01	14	15	55	38	-0.901811443454	0.132500855694	-0.200978957992	-0.662109375	-0.02490234375	0.427734375	-79.625	-63.125	24.25
19	01	14	15	55	38	-0.899759220624	0.140804810879	-0.19634550351	-0.76416015625	-0.02783203125	0.42822265625	-60.375	-41.625	9.5625
19	01	14	15	55	38	-0.898050418413	0.147823713021	-0.196406568333	-0.7880859375	-0.1142578125	0.4365234375	-35.875	-18.6875	0.25
19	01	14	15	55	38	-0.89655502192	0.153189455754	-0.200244862282	-0.712890625	-0.2470703125	0.50390625	-9.8125	6.0625	-1.4375
19	01	14	15	55	38	-0.895243046556	0.156490535272	-0.209406796614	-0.740234375	-0.28466796875	0.5498046875	17.0625	32.375	-7.1875
19	01	14	15	55	38	-0.894353278411	0.156423328277	-0.224412242713	-0.8017578125	-0.26611328125	0.59228515625	49.5	57.5	-17.4375
19	01	14	15	55	38	-0.892846503095	0.153985352882	-0.246388771139	-0.931640625	-0.1669921875	0.6845703125	72.875	90.0625	-25.75
19	01	14	15	55	38	-0.892100940549	0.148368159436	-0.2708588612	-1.0947265625	-0.134765625	0.5966796875	97.5	118.625	-42.5
19	01	14	15	55	38	-0.890307104948	0.140439888153	-0.299067993024	-0.97265625	-0.22705078125	0.57373046875	120.4375	138.8125	-43.3125
19	01	14	15	55	38	-0.88744188543	0.132017661498	-0.328915015171	-0.8837890625	-0.271484375	0.51904296875	129.25	151.5625	-49.4375
19	01	14	15	55	38	-0.883793730475	0.123161090263	-0.359046924687	-0.8603515625	-0.22509765625	0.4755859375	135.5625	156.3125	-59.625
19	01	14	15	55	38	-0.87888830149	0.115964428669	-0.38866393777	-0.90380859375	-0.12109375	0.47607421875	127.125	160.4375	-69.1875
19	01	14	15	55	38	-0.872262163244	0.112786207506	-0.416967191385	-0.98974609375	-0.04638671875	0.44287109375	101.3125	162.4375	-74.0
19	01	14	15	55	38	-0.863712334239	0.114799526618	-0.443818265587	-1.08349609375	-0.0498046875	0.40966796875	67.75	165.0	-75.375
19	01	14	15	55	39	-0.853574359565	0.121520668566	-0.469298051534	-1.16796875	-0.09765625	0.38720703125	38.4375	167.3125	-79.4375
19	01	14	15	55	39	-0.843310925948	0.128172030433	-0.492913008465	-1.15625	-0.1904296875	0.326171875	39.125	159.125	-82.5
19	01	14	15	55	39	-0.83412550265	0.130364533084	-0.514683570926	-1.06494140625	-0.31982421875	0.26708984375	68.625	145.4375	-84.3125
19	01	14	15	55	39	-0.826182503982	0.126518159914	-0.535062570172	-0.97900390625	-0.34228515625	0.27294921875	110.0625	135.0625	-89.5
19	01	14	15	55	39	-0.819016008391	0.116880218799	-0.554128201817	-0.94970703125	-0.24267578125	0.2734375	149.5	126.3125	-95.25
19	01	14	15	55	39	-0.811737251428	0.104915513925	-0.57145081843	-0.93212890625	-0.10888671875	0.25	164.9375	118.6875	-100.625
19	01	14	15	55	39	-0.803821967277	0.0942980212181	-0.586722898362	-0.9306640625	0.01220703125	0.2568359375	154.5625	112.5625	-105.4375
19	01	14	15	55	39	-0.795068723664	0.0869100992168	-0.600253388903	-0.9443359375	0.07373046875	0.3125	131.3125	107.6875	-108.3125
19	01	14	15	55	39	-0.785697526112	0.0821524796199	-0.612359456186	-0.9443359375	0.080078125	0.37548828125	111.1875	103.875	-108.75
19	01	14	15	55	39	-0.775938705677	0.0779417704043	-0.623351058057	-0.9423828125	0.0361328125	0.43408203125	103.875	100.8125	-104.9375
19	01	14	15	55	39	-0.766178879676	0.072504421623	-0.633009984069	-0.92333984375	0.00830078125	0.49755859375	109.4375	96.8125	-100.4375
19	01	14	15	55	39	-0.757054668113	0.0653054252565	-0.640603498591	-0.88818359375	0.013671875	0.5595703125	119.0625	87.6875	-97.0
19	01	14	15	55	39	-0.748619240955	0.0577973602791	-0.646146413173	-0.880859375	0.07177734375	0.56591796875	119.75	76.6875	-94.5625
19	01	14	15	55	39	-0.740742955665	0.0518770299345	-0.650354859979	-0.8896484375	0.08837890625	0.552734375	102.8125	66.375	-88.875
19	01	14	15	55	39	-0.736552868068	0.0446155242425	-0.650800731871	-0.923828125	0.0966796875	0.5146484375	86.875	54.875	-80.8125
19	01	14	15	55	39	-0.733581327077	0.038635242536	-0.650512503868	-1.0009765625	0.0556640625	0.498046875	65.875	42.25	-65.625
19	01	14	15	55	39	-0.732505209734	0.0326520819203	-0.648952499175	-1.0703125	0.001953125	0.47265625	54.25	26.3125	-45.4375
19	01	14	15	55	39	-0.733801336984	0.0253897825988	-0.645608462332	-1.0966796875	-0.0361328125	0.4677734375	50.5	8.9375	-22.5
19	01	14	15	55	39	-0.737762664359	0.0159905541084	-0.640171458179	-1.12548828125	-0.05224609375	0.5029296875	50.4375	-6.4375	3.375
19	01	14	15	55	39	-0.743933982658	0.00378405996593	-0.633158678816	-1.203125	0.01708984375	0.494140625	50.6875	-21.1875	26.8125
19	01	14	15	55	39	-0.751678477991	-0.00891077117463	-0.625707027961	-1.2880859375	0.099609375	0.48193359375	33.9375	-31.625	48.9375
19	01	14	15	55	39	-0.76081818392	-0.0192859414502	-0.618309724153	-1.34619140625	0.15625	0.40869140625	0.9375	-46.8125	69.6875
19	01	14	15	55	39	-0.771325413845	-0.0249011527812	-0.610383404325	-1.2861328125	0.05615234375	0.35302734375	-35.5	-63.0	89.125
19	01	14	15	55	39	-0.783202252865	-0.0256327395156	-0.600904650644	-1.20361328125	-0.02783203125	0.33447265625	-62.5	-80.0625	105.9375
19	01	14	15	55	39	-0.796302784342	-0.0243523270447	-0.589704721569	-1.17236328125	-0.00244140625	0.32763671875	-84.75	-93.75	119.375
19	01	14	15	55	39	-0.809882728236	-0.0202012948791	-0.577110103859	-1.1806640625	0.0400390625	0.30859375	-111.6875	-104.25	130.0
19	01	14	15	55	39	-0.823223600157	-0.0114133165206	-0.563463840202	-1.3125	0.09375	0.3154296875	-149.4375	-112.0625	138.625
19	01	14	15	55	39	-0.835756064837	0.00231917120373	-0.548300897218	-1.46435546875	0.1064453125	0.326171875	-186.25	-120.0625	142.5625
19	01	14	15	55	39	-0.847067661821	0.0189810535937	-0.531042274336	-1.49560546875	-0.005859375	0.294921875	-202.875	-128.4375	141.0625
19	01	14	15	55	39	-0.857381992489	0.0357039055813	-0.511084624509	-1.40966796875	-0.16845703125	0.27001953125	-197.5	-139.0	136.3125
19	01	14	15	55	39	-0.867129558262	0.0501065151558	-0.48818759407	-1.2529296875	-0.29052734375	0.26220703125	-178.125	-151.6875	132.1875
19	01	14	15	55	39	-0.876463338523	0.0593219389349	-0.463223782424	-1.12890625	-0.3271484375	0.306640625	-141.9375	-161.5	126.375
19	01	14	15	55	39	-0.885236050702	0.0631090786283	-0.43718600601	-1.013671875	-0.28466796875	0.3193359375	-106.4375	-167.5625	123.3125
19	01	14	15	55	39	-0.893097994178	0.0624979393179	-0.411241323363	-0.9306640625	-0.1826171875	0.3212890625	-77.5625	-167.3125	118.4375
19	01	14	15	55	39	-0.899965969483	0.0591392258531	-0.385595076305	-0.8359375	-0.0751953125	0.31396484375	-59.4375	-165.4375	112.875
19	01	14	15	55	39	-0.905677177865	0.0554184835569	-0.36022014312	-0.744140625	-0.0029296875	0.30908203125	-55.25	-161.0	107.5
19	01	14	15	55	39	-0.910182385416	0.0530985499438	-0.334887061542	-0.6806640625	0.0537109375	0.3232421875	-62.25	-155.875	101.8125
19	01	14	15	55	39	-0.913422917448	0.0531599198916	-0.309926605292	-0.65625	0.07470703125	0.32568359375	-73.5625	-148.6875	94.8125
19	01	14	15	55	39	-0.915555918034	0.0559062209799	-0.285329239171	-0.6494140625	0.05615234375	0.30224609375	-84.9375	-140.75	86.625
19	01	14	15	55	39	-0.916710212742	0.060849539421	-0.261585883609	-0.587890625	0.00732421875	0.31005859375	-92.5625	-130.3125	77.0625
19	01	14	15	55	39	-0.917060647115	0.0665244313427	-0.239793110776	-0.5185546875	-0.037109375	0.328125	-89.6875	-116.1875	66.4375
19	01	14	15	55	39	-0.9166892658	0.0741529599165	-0.222336817264	-0.46484375	-0.0771484375	0.3701171875	-82.9375	-98.875	50.0625
19	01	14	15	55	39	-0.916114650717	0.0822122874428	-0.209711521643	-0.5263671875	-0.09033203125	0.42236328125	-70.75	-74.4375	30.125
19	01	14	15	55	39	-0.915357456646	0.0905714405695	-0.203175421601	-0.68212890625	-0.1005859375	0.42431640625	-56.125	-49.25	11.125
19	01	14	15	55	39	-0.914455014657	0.0993004277412	-0.201530431716	-0.76953125	-0.15478515625	0.43212890625	-42.0625	-26.5625	-1.5625
19	01	14	15	55	39	-0.913269896971	0.107842014698	-0.203538833627	-0.75341796875	-0.21630859375	0.52734375	-29.6875	-2.25	-6.1875
19	01	14	15	55	39	-0.912011819054	0.11480253173	-0.211417315211	-0.79931640625	-0.24072265625	0.6064453125	-5.75	28.375	-16.8125
19	01	14	15	55	39	-0.910907300772	0.117059980092	-0.227406405539	-0.90771484375	-0.23681640625	0.6875	39.0625	63.0625	-30.5625
19	01	14	15	55	39	-0.910450589387	0.111815075401	-0.248898404741	-1.0302734375	-0.1396484375	0.67236328125	85.3125	102.625	-45.0625
19	01	14	15	55	39	-0.909361958422	0.100823218477	-0.27659250977	-0.94775390625	-0.19580078125	0.5771484375	132.6875	129.25	-51.6875
19	01	14	15	55	40	-0.906994354009	0.0875196759067	-0.306929184194	-0.83251953125	-0.259765625	0.53857421875	153.25	144.4375	-54.6875
19	01	14	15	55	40	-0.903472477644	0.0755589358456	-0.337818020925	-0.806640625	-0.16357421875	0.53369140625	150.125	154.5625	-70.0
19	01	14	15	55	40	-0.898270534927	0.0675015091473	-0.368939080285	-0.84619140625	0.01904296875	0.52783203125	130.6875	165.8125	-86.3125
19	01	14	15	55	40	-0.890820680929	0.0670129561291	-0.399209240474	-0.935546875	0.1328125	0.5009765625	85.9375	175.0625	-95.1875
19	01	14	15	55	40	-0.881019580237	0.0756205929971	-0.428211525801	-1.05126953125	0.10986328125	0.46728515625	31.1875	183.375	-100.1875
19	01	14	15	55	40	-0.869551600081	0.0897200008506	-0.455740983913	-1.146484375	-0.00927734375	0.39990234375	-0.9375	185.0	-104.5625
19	01	14	15	55	40	-0.857780250655	0.102660195076	-0.481440914841	-1.13671875	-0.19775390625	0.3203125	7.4375	176.0	-105.4375
19	01	14	15	55	40	-0.846940211932	0.108270659074	-0.50558857935	-1.0712890625	-0.41064453125	0.26611328125	55.8125	162.6875	-105.5625
19	01	14	15	55	40	-0.83761354501	0.103206390601	-0.528299536987	-1.0146484375	-0.4892578125	0.28271484375	127.8125	149.625	-108.1875
19	01	14	15	55	40	-0.829403855531	0.088134459297	-0.548887252394	-0.97216796875	-0.42333984375	0.2626953125	195.6875	135.9375	-114.625
19	01	14	15	55	40	-0.821159595419	0.0686028976699	-0.566401148022	-0.93115234375	-0.2392578125	0.22216796875	226.8125	122.0	-123.625
19	01	14	15	55	40	-0.812174860127	0.0510241363994	-0.580552135683	-0.8974609375	-0.0576171875	0.24951171875	211.25	109.6875	-127.9375
19	01	14	15	55	40	-0.802348281612	0.0389394647549	-0.592270479596	-0.90576171875	0.02392578125	0.33154296875	169.625	100.375	-126.875
19	01	14	15	55	40	-0.791910774807	0.0316764309923	-0.602584591882	-0.9375	0.0341796875	0.40087890625	130.875	94.5625	-121.875
19	01	14	15	55	40	-0.781152772298	0.027098353848	-0.611849093077	-0.94384765625	0.04345703125	0.44775390625	107.875	90.0	-117.625
19	01	14	15	55	40	-0.770481001817	0.0234366844659	-0.620034576795	-0.94580078125	0.078125	0.50390625	94.0625	85.125	-109.6875
19	01	14	15	55	40	-0.760325944663	0.0205064631086	-0.627033934457	-0.94189453125	0.119140625	0.5498046875	81.375	78.125	-100.625
19	01	14	15	55	40	-0.753457543052	0.0158076552167	-0.630414172716	-0.91552734375	0.14013671875	0.5654296875	68.125	71.0	-92.25
19	01	14	15	55	40	-0.747470529507	0.0124507216477	-0.633155815555	-0.9111328125	0.13232421875	0.5751953125	50.6875	64.25	-82.8125
19	01	14	15	55	40	-0.742458497287	0.0104365312812	-0.635468793568	-0.94677734375	0.109375	0.59521484375	32.5625	57.8125	-71.75
19	01	14	15	55	40	-0.73861311691	0.00854452457176	-0.63717740378	-1.0234375	0.06787109375	0.57763671875	22.8125	49.1875	-58.25
19	01	14	15	55	40	-0.736238759637	0.0054319198879	-0.637670775154	-1.0712890625	0.005859375	0.55908203125	24.625	37.625	-41.8125
19	01	14	15	55	40	-0.73609913053	-6.10313515073e-05	-0.635946682706	-1.09326171875	-0.060546875	0.55322265625	34.0	22.75	-21.3125
19	01	14	15	55	40	-0.738320807132	-0.00939914063803	-0.632122724598	-1.20458984375	-0.0419921875	0.53125	45.75	6.25	2.3125
19	01	14	15	55	40	-0.742946230248	-0.0208120154863	-0.626862789031	-1.306640625	0.04052734375	0.498046875	40.875	-9.625	26.0625
19	01	14	15	55	40	-0.749688525068	-0.0314328413588	-0.62175991247	-1.4619140625	0.14990234375	0.4443359375	8.3125	-24.25	52.6875
19	01	14	15	55	40	-0.758267872005	-0.036131244384	-0.616794519839	-1.3916015625	0.087890625	0.34375	-39.9375	-43.5	73.4375
19	01	14	15	55	40	-0.769166319883	-0.0348511322531	-0.610413614121	-1.23583984375	-0.05615234375	0.29931640625	-80.9375	-65.1875	94.375
19	01	14	15	55	40	-0.782067949887	-0.0299668615104	-0.60153439317	-1.18701171875	-0.10302734375	0.3017578125	-105.375	-85.1875	111.1875
19	01	14	15	55	40	-0.796256719591	-0.0238034739108	-0.590143049342	-1.2001953125	-0.048828125	0.27880859375	-120.125	-102.1875	122.75
19	01	14	15	55	40	-0.810687539357	-0.0154410861596	-0.576874096364	-1.25634765625	0.01953125	0.236328125	-139.3125	-115.0	128.75
19	01	14	15	55	40	-0.824998724312	-0.00329584457445	-0.561514260832	-1.33642578125	0.056640625	0.236328125	-165.5625	-127.25	130.0
19	01	14	15	55	40	-0.838893873568	0.011901368159	-0.543495812595	-1.32568359375	-0.00634765625	0.23291015625	-184.25	-140.5625	129.5625
19	01	14	15	55	40	-0.851951901336	0.0275866651912	-0.52280392484	-1.33349609375	-0.16064453125	0.24951171875	-184.25	-152.0	129.8125
19	01	14	15	55	40	-0.864767803204	0.040708597977	-0.498634550933	-1.23779296875	-0.2763671875	0.236328125	-162.4375	-168.25	124.875
19	01	14	15	55	40	-0.877404818443	0.0491922846177	-0.471415888818	-1.12939453125	-0.333984375	0.255859375	-130.9375	-183.0	123.6875
19	01	14	15	55	40	-0.889493793217	0.0535258718712	-0.442122480998	-1.00634765625	-0.310546875	0.2841796875	-103.4375	-192.5625	120.4375
19	01	14	15	55	40	-0.900513888398	0.0541345861748	-0.412081990814	-0.900390625	-0.23681640625	0.30859375	-79.5	-194.875	116.5
19	01	14	15	55	40	-0.910030997884	0.0518762221314	-0.382297241684	-0.79443359375	-0.12060546875	0.33154296875	-61.875	-190.8125	114.0
19	01	14	15	55	40	-0.917661173456	0.0486416570394	-0.353735312673	-0.70458984375	-0.01123046875	0.3388671875	-54.9375	-180.6875	110.9375
19	01	14	15	55	40	-0.923302391038	0.0465679352434	-0.326830004231	-0.66357421875	0.09375	0.34375	-60.0	-166.5625	106.0
19	01	14	15	55	40	-0.927325684343	0.0471780146109	-0.301316763433	-0.66064453125	0.16943359375	0.33935546875	-71.5	-153.0	95.5625
19	01	14	15	55	40	-0.930020837684	0.0501691251199	-0.277150848138	-0.65234375	0.1650390625	0.31640625	-80.4375	-141.5625	85.5
19	01	14	15	55	40	-0.931855647702	0.0544416582231	-0.254020382875	-0.6015625	0.08447265625	0.29345703125	-81.875	-131.6875	75.6875
19	01	14	15	55	40	-0.933087155516	0.0593250075328	-0.232600415337	-0.5673828125	0.02099609375	0.3125	-78.25	-119.9375	61.9375
19	01	14	15	55	40	-0.934052437581	0.0626811195371	-0.214531777189	-0.6005859375	-0.02001953125	0.33251953125	-59.3125	-103.0625	45.4375
19	01	14	15	55	40	-0.933905883831	0.0653038358188	-0.204700061062	-0.65869140625	-0.03857421875	0.33349609375	-36.3125	-82.8125	33.1875
19	01	14	15	55	40	-0.9335448788	0.0660976139998	-0.200734120448	-0.73828125	-0.052734375	0.34130859375	-11.875	-58.0	19.5
19	01	14	15	55	40	-0.933047668503	0.0647542893957	-0.202685198005	-0.77783203125	-0.1142578125	0.37744140625	16.75	-29.9375	9.25
19	01	14	15	55	40	-0.932345202193	0.0620098668125	-0.20977156716	-0.7626953125	-0.208984375	0.4658203125	42.0	0.375	1.3125
19	01	14	15	55	41	-0.931296064276	0.0578588812461	-0.222768899312	-0.78369140625	-0.185546875	0.5947265625	62.3125	35.5	-11.9375
19	01	14	15	55	41	-0.929577538165	0.051633024574	-0.242540945221	-0.85400390625	-0.15478515625	0.64501953125	87.9375	69.5625	-27.25
19	01	14	15	55	41	-0.927562863828	0.0421120131624	-0.264878459601	-0.91748046875	-0.09619140625	0.72265625	104.5	103.625	-42.25
19	01	14	15	55	41	-0.924206759802	0.0332624106249	-0.292343021822	-0.95703125	-0.06591796875	0.716796875	114.5	135.125	-62.375
19	01	14	15	55	41	-0.918856992944	0.0246574709498	-0.323110522793	-0.87255859375	-0.16015625	0.712890625	121.875	158.6875	-66.25
19	01	14	15	55	41	-0.911583905847	0.01916425726	-0.355271151308	-0.8369140625	-0.18359375	0.74560546875	108.5625	176.125	-73.3125
19	01	14	15	55	41	-0.902564687584	0.0176387067022	-0.388356715384	-0.9111328125	-0.05078125	0.72216796875	90.875	189.625	-89.6875
19	01	14	15	55	41	-0.892164544449	0.0220325215861	-0.420265771862	-1.04296875	0.0966796875	0.6416015625	56.5	191.8125	-103.375
19	01	14	15	55	41	-0.880945384241	0.0355210069023	-0.448712100938	-1.15234375	0.13671875	0.48974609375	-0.9375	182.125	-111.5625
19	01	14	15	55	41	-0.869345222047	0.0552953363644	-0.473550237143	-1.18115234375	0.01611328125	0.326171875	-40.625	168.9375	-116.0
19	01	14	15	55	41	-0.857880010307	0.0752537032377	-0.495527020751	-1.1240234375	-0.21533203125	0.22314453125	-39.375	154.375	-119.9375
19	01	14	15	55	41	-0.847311873189	0.0890461732322	-0.515479080959	-1.05126953125	-0.41943359375	0.2119140625	4.8125	141.625	-124.1875
19	01	14	15	55	41	-0.838045723801	0.0919769066906	-0.534161836334	-1.00341796875	-0.4951171875	0.220703125	80.9375	130.5625	-130.9375
19	01	14	15	55	41	-0.830165544913	0.0845301631896	-0.550514131386	-0.96240234375	-0.4365234375	0.18603515625	155.0	116.25	-141.375
19	01	14	15	55	41	-0.822851323774	0.0704934934697	-0.563581747792	-0.943359375	-0.31494140625	0.162109375	201.75	100.625	-149.25
19	01	14	15	55	41	-0.815043988461	0.0535875858821	-0.573533649811	-0.96044921875	-0.1787109375	0.15869140625	219.6875	89.0	-151.9375
19	01	14	15	55	41	-0.806429313748	0.0366198129303	-0.58060713401	-0.97509765625	-0.08447265625	0.1787109375	217.125	78.4375	-150.375
19	01	14	15	55	41	-0.796996237481	0.0207503423496	-0.585525836771	-0.98779296875	-0.00732421875	0.23291015625	203.4375	70.875	-143.875
19	01	14	15	55	41	-0.787204628922	0.00585917540522	-0.588664028993	-0.98681640625	0.099609375	0.31103515625	186.4375	64.25	-132.5625
19	01	14	15	55	41	-0.777257666187	-0.00756811547759	-0.590740239577	-0.97802734375	0.208984375	0.39111328125	165.8125	59.375	-120.0625
19	01	14	15	55	41	-0.76750823498	-0.0189206801466	-0.591973150781	-0.90625	0.30712890625	0.49072265625	143.25	54.6875	-111.0625
19	01	14	15	55	41	-0.758140430022	-0.0276475297698	-0.592865572149	-0.81591796875	0.330078125	0.57373046875	118.1875	50.375	-102.1875
19	01	14	15	55	41	-0.752055989005	-0.0375356624929	-0.591232459462	-0.77294921875	0.32470703125	0.6123046875	91.0	49.75	-92.75
19	01	14	15	55	41	-0.745965213129	-0.0446773470799	-0.591486571791	-0.81494140625	0.314453125	0.60107421875	59.875	52.6875	-82.375
19	01	14	15	55	41	-0.739953577411	-0.0491918989932	-0.594147812281	-0.90185546875	0.27490234375	0.5537109375	28.375	54.6875	-69.25
19	01	14	15	55	41	-0.734583279197	-0.0517552858723	-0.598420492898	-0.97412109375	0.20361328125	0.51611328125	3.8125	54.125	-53.125
19	01	14	15	55	41	-0.730578628929	-0.0534048705357	-0.602834178607	-1.00634765625	0.0830078125	0.48779296875	-10.3125	47.6875	-32.3125
19	01	14	15	55	41	-0.728936003631	-0.056762160544	-0.606256495359	-1.14697265625	0.0087890625	0.4619140625	-13.0	36.25	-3.125
19	01	14	15	55	41	-0.730505290747	-0.0626810037261	-0.607767707015	-1.28369140625	-0.0234375	0.44384765625	-14.3125	19.8125	31.625
19	01	14	15	55	41	-0.735573696703	-0.0709207298016	-0.607953003058	-1.4599609375	0.08349609375	0.42431640625	-28.125	4.6875	67.625
19	01	14	15	55	41	-0.743059475142	-0.0767166948873	-0.607813495929	-1.41845703125	0.09375	0.32373046875	-57.875	-12.1875	93.375
19	01	14	15	55	41	-0.752332542468	-0.0768383768124	-0.606223667099	-1.29443359375	-0.0302734375	0.2919921875	-82.875	-29.6875	110.4375
19	01	14	15	55	41	-0.763712261063	-0.0750101789217	-0.602339671097	-1.25146484375	-0.0205078125	0.3076171875	-99.5625	-48.1875	122.3125
19	01	14	15	55	41	-0.776736116949	-0.0707399936778	-0.596437634357	-1.25244140625	0.068359375	0.27734375	-122.0625	-64.625	132.75
19	01	14	15	55	41	-0.790924622335	-0.0623755663266	-0.588783843789	-1.2666015625	0.1162109375	0.22607421875	-155.25	-80.5	142.25
19	01	14	15	55	41	-0.805915394389	-0.048275583261	-0.57894081266	-1.35546875	0.146484375	0.2255859375	-198.625	-97.375	149.4375
19	01	14	15	55	41	-0.82132036598	-0.0282582543991	-0.56559231861	-1.4208984375	0.05908203125	0.21923828125	-238.3125	-119.0625	154.5
19	01	14	15	55	41	-0.836213802055	-0.00476057780894	-0.547954712419	-1.42236328125	-0.123046875	0.21728515625	-258.375	-139.375	156.625
19	01	14	15	55	41	-0.849952487949	0.01928658525	-0.525925649049	-1.369140625	-0.349609375	0.212890625	-256.3125	-157.6875	155.125
19	01	14	15	55	41	-0.863049819549	0.0395485667964	-0.499056528849	-1.2734375	-0.44189453125	0.23291015625	-225.625	-179.6875	148.4375
19	01	14	15	55	41	-0.875524727671	0.0562728336642	-0.468248568191	-1.11083984375	-0.43896484375	0.22509765625	-196.25	-197.5	134.125
19	01	14	15	55	41	-0.886977629502	0.0687830309261	-0.435157950757	-0.9794921875	-0.38134765625	0.283203125	-164.6875	-206.375	122.375
19	01	14	15	55	41	-0.897622872951	0.0748883705114	-0.401479789098	-0.8564453125	-0.26318359375	0.3447265625	-118.875	-209.375	105.25
19	01	14	15	55	41	-0.907125495281	0.0740934098951	-0.369246400219	-0.75048828125	-0.1259765625	0.3525390625	-71.875	-203.0625	94.4375
19	01	14	15	55	41	-0.915072492714	0.0681742129235	-0.339650398316	-0.6962890625	0.0126953125	0.3544921875	-37.1875	-190.1875	88.125
19	01	14	15	55	41	-0.921543371489	0.0598127362116	-0.312552063408	-0.701171875	0.14013671875	0.35791015625	-18.3125	-177.0	80.75
19	01	14	15	55	41	-0.92674050762	0.0516347780194	-0.287165047968	-0.7197265625	0.2392578125	0.33056640625	-15.8125	-165.6875	72.4375
19	01	14	15	55	41	-0.930958865276	0.0458368916162	-0.263180661317	-0.74560546875	0.27587890625	0.28759765625	-24.375	-154.4375	59.875
19	01	14	15	55	41	-0.934359968724	0.0433947310577	-0.240227371931	-0.728515625	0.208984375	0.26708984375	-37.9375	-143.0	48.375
19	01	14	15	55	41	-0.937211090435	0.0437601166868	-0.218861615675	-0.7099609375	0.09912109375	0.27880859375	-46.0625	-128.75	34.875
19	01	14	15	55	41	-0.939781853654	0.0452862797384	-0.200492491834	-0.73095703125	0.0478515625	0.306640625	-42.625	-110.125	16.6875
19	01	14	15	55	42	-0.941056237286	0.0475441214635	-0.192068485553	-0.77880859375	-0.015625	0.337890625	-25.125	-84.75	1.375
19	01	14	15	55	42	-0.942014001664	0.0492520440131	-0.189013110668	-0.783203125	-0.08837890625	0.37060546875	-6.375	-55.125	-9.0
19	01	14	15	55	42	-0.942437418921	0.0506555535361	-0.190904302965	-0.71484375	-0.21044921875	0.46728515625	12.5	-20.75	-12.1875
19	01	14	15	55	42	-0.94207520464	0.0512660774746	-0.199510484839	-0.71923828125	-0.23876953125	0.58544921875	31.125	19.6875	-18.25
19	01	14	15	55	42	-0.940938401502	0.0480325953157	-0.216421325273	-0.81591796875	-0.189453125	0.6435546875	65.625	58.0625	-30.8125
19	01	14	15	55	42	-0.939421333266	0.0382677479182	-0.237784921674	-0.92626953125	-0.08935546875	0.68310546875	100.0625	97.25	-43.4375
19	01	14	15	55	42	-0.936440044744	0.0264275916948	-0.264886253939	-0.8984375	-0.0576171875	0.6494140625	123.5625	129.3125	-55.25
19	01	14	15	55	42	-0.931450354113	0.015318702587	-0.29544955866	-0.8115234375	-0.0859375	0.64306640625	126.6875	154.0	-59.375
19	01	14	15	55	42	-0.924898231116	0.00787329231978	-0.327321447372	-0.80224609375	-0.0107421875	0.62646484375	110.5625	169.625	-73.9375
19	01	14	15	55	42	-0.916639018714	0.00482152490035	-0.360088568507	-0.81884765625	0.0927734375	0.6171875	89.25	183.4375	-88.5
19	01	14	15	55	42	-0.906306320148	0.0095207936662	-0.392976861645	-0.91552734375	0.1416015625	0.6025390625	44.8125	195.75	-94.625
19	01	14	15	55	42	-0.894017669152	0.0236809704827	-0.424792666391	-1.09423828125	0.0908203125	0.50927734375	-13.1875	201.25	-95.875
19	01	14	15	55	42	-0.88050337834	0.0432714282417	-0.454380512355	-1.166015625	-0.05419921875	0.3525390625	-47.5625	195.0	-95.1875
19	01	14	15	55	42	-0.866713052368	0.062435564578	-0.481297030559	-1.1484375	-0.2529296875	0.24462890625	-44.5	182.375	-93.8125
19	01	14	15	55	42	-0.853910707948	0.0745211188911	-0.50559619074	-1.0673828125	-0.45556640625	0.2041015625	1.6875	163.9375	-94.0
19	01	14	15	55	42	-0.842900228088	0.0755564754452	-0.527552644385	-0.9921875	-0.53173828125	0.20068359375	76.3125	146.0	-98.25
19	01	14	15	55	42	-0.833583412925	0.066830709998	-0.546669104522	-0.94287109375	-0.44287109375	0.17041015625	144.125	126.5625	-107.375
19	01	14	15	55	42	-0.825139571025	0.0535242162566	-0.562339941378	-0.92919921875	-0.26513671875	0.13427734375	176.6875	107.875	-116.75
19	01	14	15	55	42	-0.816670873969	0.0413187490978	-0.574922624078	-0.9365234375	-0.11865234375	0.1396484375	171.375	94.125	-125.1875
19	01	14	15	55	42	-0.807807967135	0.0323464961153	-0.585288486312	-0.94921875	-0.0693359375	0.1748046875	148.625	84.9375	-127.5625
19	01	14	15	55	42	-0.798178743433	0.0247790617704	-0.594575418147	-0.96923828125	-0.07373046875	0.22998046875	136.0	82.8125	-124.875
19	01	14	15	55	42	-0.787878852813	0.0164179573481	-0.60282589118	-1.025390625	-0.02197265625	0.26416015625	137.8125	81.1875	-120.9375
19	01	14	15	55	42	-0.776994637934	0.00622523392265	-0.610011892715	-1.0927734375	0.08837890625	0.3046875	143.875	80.5625	-114.875
19	01	14	15	55	42	-0.765863898135	-0.00543209172251	-0.615901545751	-1.07861328125	0.15966796875	0.375	146.625	78.5	-106.125
19	01	14	15	55	42	-0.755051688215	-0.0181881337877	-0.620105500951	-1.03076171875	0.17529296875	0.47314453125	146.5	73.125	-94.75
19	01	14	15	55	42	-0.744667241278	-0.0303945812767	-0.622783749693	-0.97119140625	0.2392578125	0.56103515625	139.125	66.375	-89.3125
19	01	14	15	55	42	-0.734556351416	-0.0398558618591	-0.625486787645	-0.93603515625	0.31640625	0.6357421875	112.5625	63.6875	-83.4375
19	01	14	15	55	42	-0.728613774598	-0.0488875551561	-0.625833945781	-0.9306640625	0.34326171875	0.6767578125	70.75	64.5625	-75.5
19	01	14	15	55	42	-0.722999661805	-0.0538313102914	-0.627970920168	-0.95166015625	0.2783203125	0.66650390625	33.6875	65.125	-65.375
19	01	14	15	55	42	-0.718034452259	-0.0569422986789	-0.63100367207	-1.05517578125	0.12841796875	0.61279296875	14.375	59.8125	-48.875
19	01	14	15	55	42	-0.71511513093	-0.0606050460881	-0.632965692829	-1.23095703125	0.01416015625	0.51318359375	9.9375	41.5	-26.5
19	01	14	15	55	42	-0.716162105792	-0.0645729936874	-0.632974024132	-1.3837890625	-0.015625	0.4072265625	-4.4375	12.5	4.8125
19	01	14	15	55	42	-0.721973075039	-0.0673206781442	-0.631337347891	-1.4072265625	0.0087890625	0.31982421875	-36.6875	-16.8125	42.875
19	01	14	15	55	42	-0.730746541891	-0.0665258273333	-0.629309913425	-1.2509765625	-0.10986328125	0.25390625	-74.625	-35.0	77.5625
19	01	14	15	55	42	-0.741682223845	-0.0621323653616	-0.626145320476	-1.12744140625	-0.19677734375	0.23876953125	-103.625	-50.25	99.9375
19	01	14	15	55	42	-0.754476564998	-0.0563324599169	-0.620877697437	-1.09912109375	-0.20556640625	0.248046875	-119.625	-66.4375	113.5625
19	01	14	15	55	42	-0.768529187233	-0.0494978693492	-0.612955735973	-1.10205078125	-0.16650390625	0.22021484375	-126.4375	-83.9375	118.625
19	01	14	15	55	42	-0.782856387713	-0.0409524156978	-0.603178426738	-1.15283203125	-0.10009765625	0.2197265625	-135.5	-95.5625	116.625
19	01	14	15	55	42	-0.79724658922	-0.0303933860087	-0.591511440153	-1.27392578125	-0.0263671875	0.2626953125	-146.5	-106.3125	114.0
19	01	14	15	55	42	-0.811451683236	-0.0186154767497	-0.57781219144	-1.37890625	0.02294921875	0.25634765625	-152.5625	-117.0625	111.375
19	01	14	15	55	42	-0.82517713292	-0.00524890779816	-0.562243472519	-1.3857421875	-0.01318359375	0.232421875	-160.3125	-126.1875	109.5
19	01	14	15	55	42	-0.838904554568	0.0103146503981	-0.543746866253	-1.3056640625	-0.1689453125	0.27001953125	-172.0	-140.625	109.9375
19	01	14	15	55	42	-0.853429051142	0.0253288318833	-0.520492236869	-1.2041015625	-0.337890625	0.3564453125	-165.75	-165.125	112.25
19	01	14	15	55	42	-0.868428283898	0.0372296895901	-0.492835644984	-1.05517578125	-0.39453125	0.39697265625	-141.75	-186.6875	108.4375
19	01	14	15	55	42	-0.882737714279	0.046385996187	-0.462944448787	-0.92236328125	-0.35791015625	0.41357421875	-120.0	-196.0	99.625
19	01	14	15	55	42	-0.895805718198	0.0508384087245	-0.432706263934	-0.8056640625	-0.20556640625	0.416015625	-87.4375	-195.0	90.0
19	01	14	15	55	42	-0.90711252017	0.0518768513856	-0.40366293537	-0.705078125	-0.09228515625	0.40380859375	-63.8125	-185.4375	84.4375
19	01	14	15	55	42	-0.916559159055	0.0502316166946	-0.376767642595	-0.64697265625	0.00732421875	0.392578125	-44.625	-170.8125	78.375
19	01	14	15	55	42	-0.924212049366	0.0470558997597	-0.352400473687	-0.6572265625	0.109375	0.365234375	-32.4375	-155.5625	72.5
19	01	14	15	55	43	-0.930435045665	0.0441262406045	-0.329878742002	-0.70263671875	0.2041015625	0.30908203125	-31.625	-144.125	67.0625
19	01	14	15	55	43	-0.935482548629	0.0433319813105	-0.308633562658	-0.74609375	0.240234375	0.26123046875	-41.25	-134.625	59.6875
19	01	14	15	55	43	-0.939608503137	0.0456529496815	-0.288260536558	-0.78662109375	0.201171875	0.22216796875	-55.0	-126.5	50.625
19	01	14	15	55	43	-0.942974444252	0.0502309364155	-0.268915559959	-0.802734375	0.09912109375	0.21240234375	-63.1875	-117.875	41.6875
19	01	14	15	55	43	-0.945785641639	0.0557242056541	-0.251216681788	-0.85400390625	0.02197265625	0.23095703125	-61.5625	-107.375	29.375
19	01	14	15	55	43	-0.946704086729	0.0615226432482	-0.24224540779	-0.92822265625	-0.0390625	0.24365234375	-46.375	-93.375	15.375
19	01	14	15	55	43	-0.947327842391	0.0646321469586	-0.237045570149	-0.94775390625	-0.13427734375	0.28076171875	-18.125	-75.0625	8.25
19	01	14	15	55	43	-0.947592594866	0.0645725212784	-0.235891110341	-0.90576171875	-0.2255859375	0.38525390625	12.0625	-49.75	6.0625
19	01	14	15	55	43	-0.947203456499	0.0601156832894	-0.240340670856	-0.86865234375	-0.24462890625	0.50146484375	46.6875	-16.5625	4.0
19	01	14	15	55	43	-0.946132777565	0.0499859853455	-0.250540256219	-0.8212890625	-0.224609375	0.56298828125	86.6875	15.9375	1.25
19	01	14	15	55	43	-0.944709737223	0.0330791832531	-0.263168705143	-0.7861328125	-0.15869140625	0.62158203125	117.0625	46.5	-2.0625
19	01	14	15	55	43	-0.941831052396	0.0161121952976	-0.281414138323	-0.8212890625	-0.00341796875	0.68212890625	127.125	80.625	-19.6875
19	01	14	15	55	43	-0.937044829956	0.00115963341166	-0.304739453916	-0.8291015625	0.1025390625	0.6943359375	124.5625	114.4375	-36.0625
19	01	14	15	55	43	-0.930152589702	-0.00872780973277	-0.331229534404	-0.740234375	0.064453125	0.7138671875	101.25	142.0625	-41.1875
19	01	14	15	55	43	-0.921607731534	-0.0115963886749	-0.3591828808	-0.66162109375	0.02978515625	0.72021484375	64.375	161.75	-48.875
19	01	14	15	55	43	-0.91156225094	-0.00878849518849	-0.388097506275	-0.6513671875	0.02392578125	0.70166015625	34.0	175.9375	-57.0625
19	01	14	15	55	43	-0.900387048782	-0.000915461650629	-0.41684020492	-0.76220703125	0.05126953125	0.6298828125	6.25	180.1875	-66.125
19	01	14	15	55	43	-0.888762869751	0.0107418119129	-0.443832137676	-0.8935546875	0.06103515625	0.50048828125	-15.0625	172.75	-74.375
19	01	14	15	55	43	-0.877016088216	0.0246565413806	-0.468718410404	-1.04638671875	-0.0048828125	0.36767578125	-26.25	161.625	-82.9375
19	01	14	15	55	43	-0.86537484068	0.0383281895724	-0.491491895902	-1.1484375	-0.12548828125	0.29052734375	-21.75	149.5	-88.0625
19	01	14	15	55	43	-0.854257790321	0.0466890912049	-0.512481436402	-1.1513671875	-0.337890625	0.255859375	15.4375	138.0625	-89.3125
19	01	14	15	55	43	-0.844057111658	0.0455290387055	-0.531945176082	-1.10595703125	-0.52294921875	0.24853515625	84.0	126.5	-94.0
19	01	14	15	55	43	-0.835000738278	0.0349112215697	-0.548814168452	-1.0478515625	-0.525390625	0.23681640625	152.8125	110.6875	-105.0625
19	01	14	15	55	43	-0.826704476427	0.0184932784317	-0.562061389695	-0.99755859375	-0.3896484375	0.2060546875	195.125	91.625	-113.5625
19	01	14	15	55	43	-0.818847335548	0.00183091749769	-0.571490381611	-0.97412109375	-0.20654296875	0.1796875	195.125	72.5625	-116.125
19	01	14	15	55	43	-0.811274978113	-0.0109862696404	-0.578182957242	-0.9453125	-0.08154296875	0.18701171875	164.4375	58.125	-112.5
