18	12	03	11	25	33	-0.0438837451388	0.693717172807	-0.0371699593735	-1.29296875	0.07568359375	0.3408203125	28.6875	156.6875	-91.9375
18	12	03	11	25	33	-0.0560301479918	0.711790398562	-0.0297240545447	-1.40087890625	0.0166015625	0.31640625	16.875	149.0	-89.5625
18	12	03	11	25	33	-0.0670782919233	0.727607204748	-0.0230104786671	-1.42333984375	-0.09375	0.294921875	15.6875	136.3125	-79.625
18	12	03	11	25	33	-0.0777589782204	0.740785493454	-0.0197754387311	-1.44140625	-0.19873046875	0.2841796875	28.125	120.4375	-61.75
18	12	03	11	25	33	-0.0900890003186	0.748361268907	-0.0210573882859	-1.41845703125	-0.23828125	0.23974609375	51.375	99.75	-40.8125
18	12	03	11	25	33	-0.10155998123	0.752483779197	-0.0265496345162	-1.3203125	-0.17724609375	0.22314453125	65.25	73.5625	-22.0
18	12	03	11	25	33	-0.110105698125	0.753284105466	-0.0341791524114	-1.23388671875	-0.08642578125	0.21337890625	62.375	44.5625	-5.25
18	12	03	11	25	33	-0.114625074745	0.751227593164	-0.0415042869151	-1.14013671875	0.01806640625	0.22216796875	45.875	17.0625	5.625
18	12	03	11	25	33	-0.11370395604	0.747162549563	-0.0467510629771	-1.07080078125	0.111328125	0.212890625	16.25	-6.625	13.875
18	12	03	11	25	33	-0.107237994718	0.741510755737	-0.0487667374956	-1.0830078125	0.16650390625	0.2236328125	-18.5	-26.0625	20.125
18	12	03	11	25	33	-0.0966186678209	0.73449718797	-0.0479736404973	-1.1611328125	0.1826171875	0.20849609375	-46.5625	-43.125	25.0625
18	12	03	11	25	33	-0.083436960099	0.725968693063	-0.0449228987804	-1.2578125	0.15869140625	0.18115234375	-65.6875	-60.0	29.5
18	12	03	11	25	33	-0.0687261128384	0.715703729257	-0.0401614407173	-1.2763671875	0.10595703125	0.1611328125	-78.3125	-77.75	34.875
18	12	03	11	25	33	-0.0537107724275	0.703550083831	-0.0347288971719	-1.2548828125	0.00341796875	0.17431640625	-82.0625	-92.375	42.625
18	12	03	11	25	33	-0.0393665652755	0.690410211468	-0.0314932522204	-1.22119140625	-0.11083984375	0.1806640625	-69.5	-105.25	53.75
18	12	03	11	25	33	-0.0264283650694	0.674869359289	-0.0322267361585	-1.14990234375	-0.1806640625	0.16796875	-47.25	-120.5	66.0
18	12	03	11	25	33	-0.0145873213472	0.656490495442	-0.0368650296808	-1.05322265625	-0.1806640625	0.15966796875	-26.0625	-138.4375	77.5625
18	12	03	11	25	33	-0.00286864645013	0.635435706219	-0.0443724674307	-0.96337890625	-0.12646484375	0.1484375	-13.1875	-154.5	87.875
18	12	03	11	25	33	0.00939933314262	0.612238381517	-0.0534053019467	-0.89453125	-0.06201171875	0.1328125	-8.625	-166.3125	95.8125
18	12	03	11	25	33	0.0230712766002	0.587463061578	-0.0623168608697	-0.837890625	0.02392578125	0.13134765625	-14.3125	-172.4375	100.9375
18	12	03	11	25	33	0.0386339188317	0.561992297949	-0.0692114754425	-0.79638671875	0.11376953125	0.1572265625	-30.0625	-172.4375	102.625
18	12	03	11	25	33	0.0562127937159	0.536371369354	-0.0725090107867	-0.7919921875	0.19287109375	0.19091796875	-53.75	-167.625	99.5625
18	12	03	11	25	33	0.0753185734782	0.511299586732	-0.0708019005144	-0.81640625	0.23779296875	0.23388671875	-82.125	-159.0	91.9375
18	12	03	11	25	33	0.0950293462529	0.487109320774	-0.0635970319817	-0.8505859375	0.24462890625	0.25830078125	-109.875	-148.125	78.9375
18	12	03	11	25	33	0.113643663078	0.464034785381	-0.052549513378	-0.8837890625	0.18505859375	0.26708984375	-124.25	-137.8125	64.375
18	12	03	11	25	33	0.129514924712	0.442316050606	-0.0407099221408	-0.900390625	0.115234375	0.28955078125	-118.875	-127.625	50.1875
18	12	03	11	25	33	0.141477340283	0.42290616515	-0.0311884904592	-0.91552734375	0.05859375	0.31201171875	-94.9375	-115.3125	37.3125
18	12	03	11	25	33	0.149539182282	0.406380357402	-0.0256352883913	-0.9345703125	0.04296875	0.302734375	-62.1875	-101.375	27.75
18	12	03	11	25	33	0.153197499702	0.396848662574	-0.0228880726646	-0.94970703125	0.048828125	0.27685546875	-30.625	-86.6875	19.0625
18	12	03	11	25	33	0.154236176832	0.390808959341	-0.0229492688915	-0.93603515625	0.04541015625	0.24853515625	-7.1875	-70.25	12.75
18	12	03	11	25	33	0.152952285647	0.388423122849	-0.0242306693543	-0.9384765625	0.02685546875	0.21630859375	8.4375	-51.5	4.75
18	12	03	11	25	33	0.149658740577	0.389649836805	-0.0267334944425	-0.94287109375	0.0126953125	0.21484375	23.125	-31.8125	-1.5
18	12	03	11	25	33	0.145136425229	0.394639245388	-0.0292958301556	-0.97021484375	0.037109375	0.21875	28.5	-9.375	-8.0625
18	12	03	11	25	33	0.139282424251	0.403320884948	-0.0308227976542	-1.0009765625	0.0419921875	0.23291015625	29.5625	14.0625	-16.75
18	12	03	11	25	33	0.132507485635	0.415588885164	-0.0316162494515	-1.02587890625	0.05517578125	0.27099609375	30.9375	39.1875	-22.6875
18	12	03	11	25	34	0.124935101689	0.43138314545	-0.0316152333536	-1.01025390625	0.0546875	0.271484375	31.75	65.125	-28.25
18	12	03	11	25	34	0.117367857515	0.449330300063	-0.0300896275375	-0.91552734375	-0.01171875	0.2548828125	28.4375	86.6875	-29.5625
18	12	03	11	25	34	0.110169758052	0.468206212753	-0.0275271805438	-0.84326171875	-0.05859375	0.23779296875	24.625	99.3125	-28.375
18	12	03	11	25	34	0.104671320037	0.485394173908	-0.0251455299447	-0.865234375	-0.02783203125	0.19775390625	15.9375	105.125	-28.75
18	12	03	11	25	34	0.0999143925921	0.502440610762	-0.0202636397927	-1.0126953125	0.02197265625	0.14599609375	0.5	105.6875	-32.4375
18	12	03	11	25	34	0.0958864664029	0.518372857517	-0.012329131899	-1.150390625	0.044921875	0.09814453125	-17.5625	100.5	-37.8125
18	12	03	11	25	34	0.0913681877782	0.536917800858	-0.00152585483932	-1.22412109375	0.0087890625	0.10400390625	-27.875	98.625	-41.0
18	12	03	11	25	34	0.0862399509825	0.552777944833	0.00616435601503	-1.26416015625	-0.08349609375	0.162109375	-12.0625	104.4375	-40.0625
18	12	03	11	25	34	0.0769071446088	0.569967393934	0.00775175187723	-1.224609375	-0.1650390625	0.2041015625	31.375	112.875	-39.25
18	12	03	11	25	34	0.0620719996183	0.5877003779	0.00189206685169	-1.099609375	-0.212890625	0.224609375	84.8125	116.0	-39.9375
18	12	03	11	25	34	0.0418693365377	0.605030223176	-0.0106809531984	-0.9921875	-0.203125	0.22998046875	133.375	114.3125	-42.25
18	12	03	11	25	34	0.0180051025976	0.620962419756	-0.028075753203	-0.89453125	-0.1435546875	0.22412109375	167.5	108.375	-43.125
18	12	03	11	25	34	-0.00726319731192	0.635255106072	-0.0473633707063	-0.82568359375	-0.0341796875	0.21435546875	180.5625	102.5625	-44.125
18	12	03	11	25	34	-0.0309437474589	0.648109771728	-0.0648170804761	-0.7802734375	0.08056640625	0.220703125	166.375	98.9375	-46.0
18	12	03	11	25	34	-0.0506584101043	0.660268289769	-0.0770251970501	-0.7470703125	0.1865234375	0.23876953125	128.4375	97.875	-49.625
18	12	03	11	25	34	-0.0645759066642	0.672797938714	-0.0819711178166	-0.76416015625	0.24755859375	0.28271484375	75.75	101.5625	-53.625
18	12	03	11	25	34	-0.072692958563	0.686158052196	-0.0801392565854	-0.8349609375	0.2353515625	0.3154296875	24.625	106.8125	-56.4375
18	12	03	11	25	34	-0.0768420366836	0.700245184171	-0.0736682591557	-0.9267578125	0.16845703125	0.35400390625	-10.25	112.125	-57.3125
18	12	03	11	25	34	-0.0794675102588	0.714414137926	-0.0657956805368	-1.00390625	0.1083984375	0.380859375	-21.75	115.5625	-56.8125
18	12	03	11	25	34	-0.0822141053985	0.728147199261	-0.0582273619526	-1.0478515625	0.06982421875	0.39208984375	-19.625	115.6875	-55.4375
18	12	03	11	25	34	-0.0857547882684	0.741031234425	-0.051941156453	-1.08203125	0.048828125	0.3974609375	-11.4375	113.3125	-52.8125
18	12	03	11	25	34	-0.0901472004994	0.752976311822	-0.0471792728409	-1.1337890625	0.0380859375	0.39306640625	-1.75	109.5625	-49.6875
18	12	03	11	25	34	-0.0952118088795	0.763403400939	-0.0436997789472	-1.19775390625	0.03564453125	0.38330078125	6.5625	100.875	-45.6875
18	12	03	11	25	34	-0.0995456680025	0.768656126808	-0.0419300269269	-1.27587890625	0.04931640625	0.35498046875	9.5625	88.5625	-41.125
18	12	03	11	25	34	-0.103091257363	0.77193317458	-0.0402843279215	-1.3388671875	0.0224609375	0.30615234375	6.6875	69.375	-35.0
18	12	03	11	25	34	-0.105897540766	0.772716349337	-0.0389409976996	-1.37158203125	-0.05615234375	0.27783203125	4.5625	45.75	-24.1875
18	12	03	11	25	34	-0.109315944424	0.770765910771	-0.0396735700032	-1.345703125	-0.13525390625	0.23779296875	14.875	19.5	-9.5
18	12	03	11	25	34	-0.113278003018	0.765847188507	-0.0437609526745	-1.263671875	-0.154296875	0.203125	30.5	-8.375	8.1875
18	12	03	11	25	34	-0.116513231471	0.757976857852	-0.0510851622532	-1.16552734375	-0.1044921875	0.1689453125	41.0625	-36.5625	26.0
18	12	03	11	25	34	-0.116638466244	0.747377299404	-0.0595094215532	-1.146484375	0.0	0.15576171875	33.9375	-62.6875	39.125
18	12	03	11	25	34	-0.111636407641	0.734883733188	-0.0667132824231	-1.23583984375	0.1396484375	0.1484375	9.1875	-82.9375	46.875
18	12	03	11	25	34	-0.10095092264	0.721365752528	-0.0700064741644	-1.37060546875	0.2041015625	0.1328125	-29.625	-98.375	50.4375
18	12	03	11	25	34	-0.0871567141366	0.707873648849	-0.066893388441	-1.4853515625	0.1875	0.1142578125	-67.75	-113.6875	51.875
18	12	03	11	25	34	-0.0703107364615	0.69242648017	-0.0605453563974	-1.50439453125	0.10400390625	0.126953125	-93.0625	-129.125	54.125
18	12	03	11	25	34	-0.0524275682278	0.674905761889	-0.0532820338333	-1.4609375	-0.01123046875	0.1552734375	-100.0625	-142.0625	58.4375
18	12	03	11	25	34	-0.0353378835234	0.655246144227	-0.0476664715575	-1.3662109375	-0.1142578125	0.16455078125	-89.5	-152.875	64.4375
18	12	03	11	25	34	-0.0201410928184	0.633284785102	-0.0454700428779	-1.236328125	-0.17626953125	0.1630859375	-66.875	-164.75	71.25
18	12	03	11	25	34	-0.00653069541112	0.609063640257	-0.0473628003647	-1.0888671875	-0.17041015625	0.1474609375	-42.375	-176.1875	79.5625
18	12	03	11	25	34	0.00640858524016	0.582876086129	-0.0524893648242	-0.9580078125	-0.1103515625	0.1328125	-25.5	-185.0	88.0
18	12	03	11	25	34	0.0198972306388	0.555352458842	-0.0590813474183	-0.85107421875	-0.01806640625	0.11669921875	-20.5625	-189.4375	94.3125
18	12	03	11	25	34	0.0347889002321	0.527143388254	-0.0647561809584	-0.77978515625	0.072265625	0.0966796875	-29.8125	-189.3125	97.1875
18	12	03	11	25	34	0.0514533916513	0.498725579102	-0.067139656959	-0.734375	0.13818359375	0.10107421875	-51.3125	-185.5	95.8125
18	12	03	11	25	34	0.0695782750286	0.470690927211	-0.0654279919567	-0.7119140625	0.18603515625	0.12060546875	-75.625	-177.75	90.75
18	12	03	11	25	34	0.087703255611	0.443520917554	-0.0595674164763	-0.71728515625	0.2080078125	0.16015625	-95.5	-167.5	79.6875
18	12	03	11	25	34	0.10449284653	0.417849315037	-0.0505984636525	-0.73046875	0.228515625	0.19677734375	-107.0625	-154.6875	65.375
18	12	03	11	25	34	0.118653382498	0.39429056118	-0.040161484405	-0.75830078125	0.2216796875	0.240234375	-106.375	-139.625	48.875
18	12	03	11	25	34	0.129089996267	0.373659081392	-0.0304566941546	-0.794921875	0.19677734375	0.28271484375	-92.0	-122.75	32.0625
18	12	03	11	25	34	0.135617610081	0.356682859278	-0.0225215563096	-0.83740234375	0.1923828125	0.322265625	-71.0625	-102.0625	15.75
18	12	03	11	25	34	0.137876374252	0.348261439346	-0.0168454534279	-0.8857421875	0.14501953125	0.314453125	-46.5	-78.8125	0.3125
18	12	03	11	25	34	0.136656597151	0.344784777716	-0.0136107285238	-0.89794921875	0.08984375	0.2939453125	-20.1875	-54.125	-10.25
18	12	03	11	25	35	0.132383603039	0.346309157972	-0.0132444637434	-0.9169921875	0.03466796875	0.25830078125	7.75	-29.1875	-17.75
18	12	03	11	25	35	0.126095849847	0.352958518715	-0.0150143170679	-0.9638671875	0.021484375	0.20947265625	27.375	-4.25	-22.4375
18	12	03	11	25	35	0.118283737291	0.364311469498	-0.0176998368495	-1.0380859375	0.03173828125	0.169921875	38.0625	18.875	-27.625
18	12	03	11	25	35	0.109309829696	0.379380179447	-0.0199577411002	-1.0986328125	0.05517578125	0.16552734375	39.8125	41.0625	-34.6875
18	12	03	11	25	35	0.0997871337466	0.397317578404	-0.0209339369267	-1.0556640625	0.02734375	0.1796875	37.8125	65.25	-39.25
18	12	03	11	25	35	0.0905138348363	0.417230327	-0.0209347574841	-0.9404296875	-0.037109375	0.1953125	36.625	88.375	-36.875
18	12	03	11	25	35	0.0830665121388	0.435473595967	-0.0219110050388	-0.88916015625	-0.06689453125	0.21630859375	34.5	105.625	-31.875
18	12	03	11	25	35	0.0753782278635	0.455076977288	-0.0228881258695	-0.943359375	-0.041015625	0.220703125	35.375	115.4375	-33.0625
18	12	03	11	25	35	0.0663429239574	0.475325383423	-0.0237418559516	-1.10693359375	0.0107421875	0.220703125	38.125	120.0	-40.0625
18	12	03	11	25	35	0.0563956068359	0.495597757042	-0.0242305799933	-1.21044921875	0.021484375	0.20361328125	38.875	121.5625	-46.0
18	12	03	11	25	35	0.0458378297561	0.516118093765	-0.0249025759527	-1.23583984375	0.0029296875	0.22900390625	42.0	126.125	-47.8125
18	12	03	11	25	35	0.0339347930591	0.537768815905	-0.0274652102097	-1.20947265625	-0.0244140625	0.27197265625	55.75	137.75	-48.25
18	12	03	11	25	35	0.0201416902525	0.561037626669	-0.032470846104	-1.12255859375	-0.0244140625	0.27685546875	74.125	152.4375	-50.125
18	12	03	11	25	35	0.00451649787799	0.584825441445	-0.0386954007385	-0.99072265625	-0.03515625	0.29296875	86.125	162.375	-55.0625
18	12	03	11	25	35	-0.0118406973123	0.60833108305	-0.0444331321823	-0.8671875	-0.02783203125	0.29736328125	86.625	166.25	-60.0625
18	12	03	11	25	35	-0.0274654817991	0.630851599724	-0.0491937296225	-0.7939453125	-0.015625	0.30419921875	79.4375	165.5625	-60.5625
18	12	03	11	25	35	-0.0413199594148	0.652269433184	-0.0523060638382	-0.763671875	0.0126953125	0.26611328125	65.875	162.25	-59.0625
18	12	03	11	25	35	-0.0521828657521	0.672579158583	-0.0527321590758	-0.77685546875	0.06591796875	0.26318359375	43.125	158.125	-57.0
18	12	03	11	25	35	-0.059263707221	0.691999909858	-0.0494983177716	-0.82958984375	0.119140625	0.26708984375	13.625	154.4375	-56.0625
18	12	03	11	25	35	-0.0624984428868	0.710919787838	-0.0424794103997	-0.9140625	0.138671875	0.27978515625	-17.75	153.1875	-55.8125
18	12	03	11	25	35	-0.062256694192	0.729379897641	-0.0325932104887	-1.01806640625	0.10986328125	0.30224609375	-42.625	153.1875	-53.4375
18	12	03	11	25	35	-0.0603626211398	0.746872997865	-0.0220943062211	-1.111328125	0.0302734375	0.31201171875	-52.0625	150.0625	-48.0
18	12	03	11	25	35	-0.0585934250948	0.762324874411	-0.0130004161929	-1.15869140625	-0.04541015625	0.31396484375	-45.6875	139.0625	-40.875
18	12	03	11	25	35	-0.0579837752619	0.775334628581	-0.00653080416108	-1.17431640625	-0.099609375	0.33837890625	-30.75	123.8125	-32.4375
18	12	03	11	25	35	-0.0587162056153	0.785954864562	-0.00292970672509	-1.18603515625	-0.11669921875	0.3447265625	-13.375	106.6875	-23.375
18	12	03	11	25	35	-0.061034480734	0.790579628948	-0.00183103442202	-1.19970703125	-0.11181640625	0.341796875	0.6875	88.4375	-15.6875
18	12	03	11	25	35	-0.0626839061994	0.792734735849	-0.00225832962938	-1.24853515625	-0.04833984375	0.3359375	5.125	66.625	-9.75
18	12	03	11	25	35	-0.0620134512945	0.792685720435	-0.00268562190646	-1.32666015625	0.01220703125	0.32080078125	-3.375	45.25	-5.75
18	12	03	11	25	35	-0.0597551158024	0.790610842685	-0.00219732805811	-1.3974609375	-0.021484375	0.30810546875	-13.875	25.0	-1.0
18	12	03	11	25	35	-0.0562758942737	0.779500483481	-0.00384531598617	-1.31591796875	-0.10498046875	0.25	-0.875	-25.5625	14.0625
18	12	03	11	25	35	-0.0546880568958	0.770027372541	-0.00677497133418	-1.1884765625	-0.06396484375	0.2392578125	3.8125	-53.3125	21.0
18	12	03	11	25	35	-0.0504762468385	0.758120268418	-0.00958255230188	-1.142578125	0.02392578125	0.25634765625	-6.1875	-76.4375	25.6875
18	12	03	11	25	35	-0.041992640694	0.744514870909	-0.0101929810987	-1.24072265625	0.1318359375	0.24072265625	-31.125	-93.4375	25.75
18	12	03	11	25	35	-0.030700029996	0.731551808215	-0.00488270854808	-1.388671875	0.22509765625	0.19921875	-66.0	-108.5625	19.9375
18	12	03	11	25	35	-0.0154419577234	0.716555666693	0.00640871763226	-1.48486328125	0.2421875	0.15087890625	-105.8125	-125.125	10.375
18	12	03	11	25	35	0.00195315911786	0.699292000416	0.0221561487432	-1.51611328125	0.14599609375	0.15234375	-132.5	-139.5	2.5
18	12	03	11	25	35	0.0183105502515	0.680053836341	0.0382690500256	-1.50439453125	0.0048828125	0.1474609375	-129.75	-150.0625	-1.3125
18	12	03	11	25	35	0.0311897532089	0.659013239523	0.0506604602023	-1.40673828125	-0.12548828125	0.12939453125	-100.25	-160.3125	0.6875
18	12	03	11	25	35	0.0397946644455	0.635982213991	0.0563961195516	-1.2734375	-0.208984375	0.103515625	-55.3125	-173.875	8.0
18	12	03	11	25	35	0.0447992013841	0.610892652116	0.0545036605395	-1.1337890625	-0.21337890625	0.0673828125	-8.25	-189.125	19.25
18	12	03	11	25	35	0.0479130172878	0.583928454004	0.045898839491	-1.017578125	-0.16455078125	0.03173828125	28.375	-201.875	32.6875
18	12	03	11	25	35	0.0508421026681	0.555539998182	0.0328978311382	-0.94189453125	-0.07763671875	-0.00146484375	48.25	-210.0625	45.3125
18	12	03	11	25	35	0.0550527111458	0.526113492325	0.0182491803022	-0.89306640625	0.01123046875	-0.0166015625	51.1875	-213.0625	55.6875
18	12	03	11	25	35	0.0615830302284	0.496204197975	0.00445546204824	-0.8623046875	0.09765625	0.001953125	39.0625	-211.3125	63.8125
18	12	03	11	25	35	0.0705549297044	0.466358319958	-0.00653060335499	-0.8583984375	0.16845703125	0.0263671875	17.25	-204.9375	68.1875
18	12	03	11	25	35	0.0814817262741	0.437071641834	-0.01342770021	-0.87451171875	0.20458984375	0.06884765625	-8.4375	-196.0625	67.75
18	12	03	11	25	35	0.09319944238	0.408808032129	-0.0162961696892	-0.896484375	0.21142578125	0.11376953125	-31.125	-184.8125	62.75
18	12	03	11	25	35	0.104425830344	0.381694414361	-0.0162345241798	-0.904296875	0.20263671875	0.169921875	-44.125	-173.6875	54.3125
18	12	03	11	25	35	0.11413215759	0.356251018103	-0.0146479774447	-0.88671875	0.171875	0.2001953125	-47.25	-161.0	44.625
18	12	03	11	25	36	0.121763747107	0.332881943218	-0.0127562020779	-0.86279296875	0.13671875	0.2275390625	-43.1875	-147.4375	33.5
18	12	03	11	25	36	0.126825790143	0.312425996026	-0.011535165706	-0.857421875	0.08447265625	0.2314453125	-31.75	-129.9375	22.4375
18	12	03	11	25	36	0.128724029995	0.29608357966	-0.0131836844376	-0.84814453125	-0.00537109375	0.22314453125	-5.9375	-108.125	12.0625
18	12	03	11	25	36	0.127015496867	0.289431756917	-0.0183107395772	-0.82470703125	-0.0732421875	0.22607421875	31.1875	-83.0625	7.3125
18	12	03	11	25	36	0.123777118631	0.288325004148	-0.0281977459603	-0.787109375	-0.02978515625	0.23876953125	62.0625	-51.25	6.0
18	12	03	11	25	36	0.119015204438	0.293326703861	-0.0400989688799	-0.80126953125	0.04052734375	0.26416015625	76.4375	-15.8125	0.1875
18	12	03	11	25	36	0.112364019014	0.304865983147	-0.0507194458448	-0.8671875	0.1298828125	0.306640625	73.625	22.3125	-14.625
18	12	03	11	25	36	0.104065846632	0.321902214158	-0.0574956173183	-0.86181640625	0.13916015625	0.333984375	59.75	60.6875	-30.125
18	12	03	11	25	36	0.0957630082336	0.342281038989	-0.0598137336322	-0.77197265625	0.05224609375	0.37841796875	44.0	92.9375	-36.25
18	12	03	11	25	36	0.0883187952965	0.363040908379	-0.0604254370032	-0.73779296875	0.0068359375	0.4033203125	32.9375	117.6875	-39.75
18	12	03	11	25	36	0.0793443357805	0.386834153982	-0.060545831611	-0.853515625	0.06494140625	0.4248046875	34.9375	136.25	-49.5
18	12	03	11	25	36	0.0683585152891	0.413569017499	-0.0588371506595	-1.05419921875	0.1123046875	0.38134765625	31.0625	154.3125	-64.3125
18	12	03	11	25	36	0.0567012914576	0.442440970696	-0.0551143877139	-1.2099609375	0.07666015625	0.32177734375	23.75	169.1875	-72.125
18	12	03	11	25	36	0.0453470401663	0.472024237748	-0.050168596254	-1.2607421875	0.02685546875	0.3095703125	18.0	178.375	-72.875
18	12	03	11	25	36	0.0334478710766	0.502694646326	-0.0453499419889	-1.216796875	0.005859375	0.29345703125	21.1875	190.8125	-75.375
18	12	03	11	25	36	0.0202023441868	0.533927815548	-0.0411370996432	-1.07861328125	-0.04150390625	0.2744140625	28.75	201.0625	-79.9375
18	12	03	11	25	36	0.00604237549613	0.564504353169	-0.0371697644156	-0.9169921875	-0.10888671875	0.2626953125	33.4375	203.75	-82.875
18	12	03	11	25	36	-0.00830059565746	0.593370521925	-0.0336906529626	-0.82080078125	-0.11328125	0.2626953125	36.125	199.75	-82.125
18	12	03	11	25	36	-0.0217892458229	0.620108508574	-0.0305171510125	-0.78515625	-0.08154296875	0.22802734375	34.375	191.3125	-77.4375
18	12	03	11	25	36	-0.0327758154757	0.644591037688	-0.0264892065483	-0.8046875	-0.0615234375	0.19140625	21.5	180.125	-69.6875
18	12	03	11	25	36	-0.0403454300152	0.666584631158	-0.0209967139565	-0.85498046875	-0.048828125	0.20751953125	3.0625	167.5625	-59.8125
18	12	03	11	25	36	-0.0446763369478	0.686746097455	-0.0144038463384	-0.92431640625	-0.00927734375	0.2216796875	-14.375	158.125	-51.0625
18	12	03	11	25	36	-0.0457148623431	0.705620191654	-0.00640862556212	-1.0390625	0.015625	0.25048828125	-32.5	152.625	-43.3125
18	12	03	11	25	36	-0.0441286087459	0.723269728409	0.00213623970416	-1.158203125	-0.0166015625	0.29052734375	-45.75	147.9375	-34.625
18	12	03	11	25	36	-0.0415654019899	0.739204968428	0.00970469738089	-1.25146484375	-0.080078125	0.3125	-44.9375	138.8125	-25.6875
18	12	03	11	25	36	-0.0402820103734	0.752541193794	0.0147700704702	-1.2578125	-0.1396484375	0.35693359375	-29.875	122.4375	-18.8125
18	12	03	11	25	36	-0.0413822921026	0.763375114051	0.0165407096752	-1.240234375	-0.13525390625	0.39892578125	-6.4375	105.5625	-13.375
18	12	03	11	25	36	-0.0455938192555	0.768380978055	0.0149537961414	-1.2138671875	-0.1083984375	0.4091796875	18.6875	90.3125	-9.5
18	12	03	11	25	36	-0.0508414556893	0.77141075445	0.0111082172094	-1.20947265625	-0.0205078125	0.39404296875	32.9375	73.8125	-9.1875
18	12	03	11	25	36	-0.0549924042365	0.77251815807	0.00726314772934	-1.25048828125	0.06494140625	0.39306640625	30.25	56.75	-11.3125
18	12	03	11	25	36	-0.0581684022866	0.771936813976	0.00451674897084	-1.330078125	0.0693359375	0.376953125	22.375	41.1875	-12.9375
18	12	03	11	25	36	-0.061646134415	0.769478036208	0.0021362521827	-1.369140625	0.02978515625	0.330078125	23.0625	21.1875	-12.5625
18	12	03	11	25	36	-0.0666503662924	0.764648158343	-0.00122070267935	-1.34228515625	-0.03955078125	0.28564453125	33.6875	-4.1875	-8.375
18	12	03	11	25	36	-0.0736699612104	0.757085500293	-0.00677495086525	-1.2431640625	-0.0966796875	0.25927734375	51.1875	-30.0625	-0.3125
18	12	03	11	25	36	-0.0813614275693	0.747084676255	-0.0150759734506	-1.16796875	-0.0927734375	0.23583984375	65.375	-53.375	10.6875
18	12	03	11	25	36	-0.0870947848914	0.734782141071	-0.0250237293661	-1.21142578125	-0.02587890625	0.20068359375	65.1875	-75.375	21.5625
18	12	03	11	25	36	-0.0883165022807	0.720691955031	-0.0341791577589	-1.3251953125	0.0849609375	0.166015625	44.875	-95.5	29.5625
18	12	03	11	25	36	-0.0854515075854	0.706317746984	-0.0382090312489	-1.42529296875	0.14892578125	0.1435546875	8.125	-113.125	34.125
18	12	03	11	25	36	-0.0772087751685	0.690606554175	-0.0372311089745	-1.45166015625	0.146484375	0.12890625	-33.25	-127.125	36.875
18	12	03	11	25	36	-0.0648197737286	0.673588533775	-0.0325319580013	-1.427734375	0.09423828125	0.13818359375	-64.875	-138.375	40.75
18	12	03	11	25	36	-0.0502326253287	0.655160389159	-0.026062370614	-1.3671875	0.0087890625	0.14306640625	-80.25	-147.25	46.0625
18	12	03	11	25	36	-0.0347896120933	0.635001972313	-0.0197141135195	-1.26220703125	-0.0576171875	0.14794921875	-82.125	-156.1875	51.75
18	12	03	11	25	36	-0.0192870356932	0.612973732489	-0.0147094164622	-1.1376953125	-0.09423828125	0.1416015625	-75.875	-165.8125	57.8125
18	12	03	11	25	36	-0.00408921504864	0.589030066185	-0.0116573145416	-1.017578125	-0.10302734375	0.138671875	-65.3125	-174.8125	64.1875
18	12	03	11	25	36	0.0108028760214	0.563519515852	-0.0107418428236	-0.9169921875	-0.0712890625	0.11083984375	-54.875	-181.75	69.5625
18	12	03	11	25	36	0.025635190979	0.536752070165	-0.0112306550956	-0.84912109375	-0.0263671875	0.1005859375	-47.875	-186.4375	73.6875
18	12	03	11	25	36	0.0404654913342	0.509206024436	-0.0125119543341	-0.80419921875	0.03564453125	0.10009765625	-44.625	-187.875	75.25
18	12	03	11	25	36	0.0554205896667	0.481512149648	-0.0133668602831	-0.78955078125	0.1005859375	0.10498046875	-47.75	-185.0625	74.375
18	12	03	11	25	36	0.0703723182325	0.45427681232	-0.012756127069	-0.78271484375	0.14111328125	0.12109375	-55.3125	-178.75	70.375
18	12	03	11	25	36	0.084716636869	0.427916672254	-0.0104369920062	-0.79345703125	0.16259765625	0.134765625	-62.0625	-169.875	63.125
18	12	03	11	25	37	0.0976546424169	0.402703331667	-0.00689685912069	-0.8095703125	0.1494140625	0.15576171875	-64.625	-160.0625	53.9375
18	12	03	11	25	37	0.108760551085	0.379014041659	-0.00323474141835	-0.82958984375	0.15380859375	0.19677734375	-59.9375	-149.5625	44.875
18	12	03	11	25	37	0.117552839921	0.357602330787	-0.000366208224053	-0.86474609375	0.16796875	0.22509765625	-49.3125	-135.9375	35.1875
18	12	03	11	25	37	0.123475448839	0.339053938852	0.00164796693952	-0.9365234375	0.1845703125	0.22607421875	-37.3125	-119.625	22.3125
18	12	03	11	25	37	0.12640408077	0.323670130527	0.00250244679457	-1.0	0.13818359375	0.20263671875	-23.0	-103.0	10.3125
18	12	03	11	25	37	0.126708112549	0.317502698207	0.00189207682515	-1.00732421875	0.0419921875	0.201171875	-3.0	-85.4375	4.875
18	12	03	11	25	37	0.125243451506	0.314634499275	-0.00152587051055	-0.97265625	-0.02001953125	0.2080078125	21.25	-65.875	3.5
18	12	03	11	25	37	0.122193221759	0.315492888746	-0.00891119399438	-0.919921875	-0.0244140625	0.24072265625	48.875	-42.5625	3.375
18	12	03	11	25	37	0.117426217723	0.32127422562	-0.0197134450751	-0.9140625	0.02294921875	0.287109375	72.0	-12.625	0.375
18	12	03	11	25	37	0.110834009371	0.33244099617	-0.0318586744998	-0.939453125	0.09716796875	0.3154296875	82.8125	19.75	-8.125
18	12	03	11	25	37	0.102291002139	0.348253256684	-0.0429671035236	-0.955078125	0.12744140625	0.33837890625	83.4375	50.8125	-20.25
18	12	03	11	25	37	0.0926497065273	0.36711988456	-0.0514517144944	-0.9072265625	0.1025390625	0.373046875	76.1875	77.8125	-29.9375
18	12	03	11	25	37	0.0819703656934	0.388001202318	-0.0575562582643	-0.8447265625	0.044921875	0.39892578125	70.75	99.5	-38.25
18	12	03	11	25	37	0.0701293397989	0.409118333048	-0.0639647938288	-0.8974609375	0.0576171875	0.41455078125	73.5625	118.25	-49.0625
18	12	03	11	25	37	0.0565165341665	0.432784820491	-0.0691503598387	-0.9755859375	0.10107421875	0.40869140625	72.125	135.625	-61.75
18	12	03	11	25	37	0.0421132277248	0.458606946556	-0.0716535207955	-1.037109375	0.08935546875	0.40869140625	62.3125	152.0625	-72.375
18	12	03	11	25	37	0.0274651453957	0.486072039847	-0.0718976472802	-1.0595703125	0.04052734375	0.412109375	52.625	167.125	-79.25
18	12	03	11	25	37	0.0126339029946	0.514816288694	-0.0707376501004	-1.01806640625	-0.01025390625	0.38623046875	47.9375	180.75	-84.1875
18	12	03	11	25	37	-0.00274654415385	0.543632639519	-0.0690298097335	-0.90478515625	-0.07177734375	0.35009765625	47.625	186.6875	-87.8125
18	12	03	11	25	37	-0.0183101417768	0.571093322017	-0.0665878822615	-0.7783203125	-0.07958984375	0.30859375	44.5	183.5625	-91.0625
18	12	03	11	25	37	-0.0329577078869	0.596839676716	-0.06274171057	-0.70068359375	-0.029296875	0.279296875	34.875	177.1875	-91.8125
18	12	03	11	25	37	-0.0450430129509	0.620836758451	-0.0562122153493	-0.6953125	0.00244140625	0.22265625	13.6875	169.1875	-89.75
18	12	03	11	25	37	-0.0537715356718	0.643122214953	-0.0466915150839	-0.75537109375	-0.0078125	0.19970703125	-11.5	160.125	-84.625
18	12	03	11	25	37	-0.0594476652875	0.663750882958	-0.0354610816551	-0.8544921875	-0.0205078125	0.20263671875	-29.5625	152.5	-77.25
18	12	03	11	25	37	-0.0629265584273	0.683342141758	-0.0241086232578	-1.01025390625	-0.015625	0.2236328125	-38.625	149.0	-68.875
18	12	03	11	25	37	-0.0646353488389	0.701833688667	-0.0131834139275	-1.19091796875	-0.0087890625	0.2392578125	-43.125	146.25	-60.1875
18	12	03	11	25	37	-0.0655529712727	0.718702268841	-0.00341803202167	-1.33544921875	-0.06689453125	0.25732421875	-41.75	138.8125	-51.4375
18	12	03	11	25	37	-0.0667727231182	0.73315717559	0.00415040692142	-1.365234375	-0.14697265625	0.28955078125	-30.875	124.75	-42.1875
18	12	03	11	25	37	-0.0693350994722	0.744741975141	0.00836171534128	-1.28125	-0.20263671875	0.306640625	-11.125	105.8125	-31.3125
18	12	03	11	25	37	-0.0739759957035	0.750685454751	0.00885026351239	-1.19482421875	-0.21142578125	0.33251953125	10.5	87.5	-18.125
18	12	03	11	25	37	-0.0787952414997	0.754383566953	0.0056761870329	-1.1787109375	-0.14013671875	0.32470703125	26.75	70.1875	-6.8125
18	12	03	11	25	37	-0.0820294938294	0.755904226992	0.000915507743632	-1.19091796875	-0.02783203125	0.3056640625	27.75	50.5	-1.0625
18	12	03	11	25	37	-0.0822148579131	0.755497781179	-0.00250245669966	-1.205078125	0.06005859375	0.28662109375	11.875	29.8125	-0.25
18	12	03	11	25	37	-0.0802029648953	0.753321912281	-0.00372327310397	-1.216796875	0.0380859375	0.2861328125	-5.0625	12.1875	1.625
18	12	03	11	25	37	-0.0787344238329	0.74950288734	-0.0054320649001	-1.259765625	-0.029296875	0.28564453125	-1.0	-2.1875	7.0
18	12	03	11	25	37	-0.0795897837098	0.744017993422	-0.00982665274331	-1.2705078125	-0.0498046875	0.24072265625	20.4375	-18.125	12.6875
18	12	03	11	25	37	-0.0820944155645	0.736286196993	-0.0166630300737	-1.2119140625	-0.02099609375	0.251953125	37.8125	-36.0625	16.8125
18	12	03	11	25	37	-0.0856939403843	0.726445355024	-0.0250245837305	-1.123046875	-0.00244140625	0.26171875	49.125	-53.1875	20.3125
18	12	03	11	25	37	-0.0886828031814	0.714833441748	-0.0343012631713	-1.05908203125	0.0556640625	0.27490234375	51.5	-67.5625	24.3125
18	12	03	11	25	37	-0.0886837128407	0.702450688977	-0.0427244315131	-1.08203125	0.16455078125	0.26953125	36.0625	-76.1875	26.75
18	12	03	11	25	37	-0.0841689054252	0.690075159345	-0.0477913364379	-1.19921875	0.25927734375	0.23583984375	4.25	-82.75	25.5
18	12	03	11	25	37	-0.0750129377834	0.677924084589	-0.0476078856559	-1.3486328125	0.28857421875	0.18408203125	-36.4375	-91.625	22.4375
18	12	03	11	25	37	-0.0640244904364	0.665329809578	-0.04003819421	-1.44921875	0.21240234375	0.169921875	-72.8125	-103.125	21.25
18	12	03	11	25	37	-0.0510851833762	0.651473413808	-0.0306389032913	-1.47607421875	0.05615234375	0.1728515625	-87.4375	-112.25	25.9375
18	12	03	11	25	37	-0.0383309823075	0.636123403836	-0.0233159796839	-1.4130859375	-0.1015625	0.14453125	-77.375	-120.875	36.0625
18	12	03	11	25	37	-0.0268546857366	0.618573272592	-0.0200799809258	-1.2890625	-0.1767578125	0.11474609375	-53.375	-133.5	47.5625
18	12	03	11	25	37	-0.0164795074125	0.598511295136	-0.0213623244236	-1.14013671875	-0.1982421875	0.09765625	-28.8125	-148.25	59.375
18	12	03	11	25	37	-0.00677471758041	0.576156161794	-0.0267937028631	-1.017578125	-0.16796875	0.07275390625	-7.3125	-161.4375	70.75
18	12	03	11	25	37	0.00329592520426	0.551762293453	-0.0350344642082	-0.9228515625	-0.0908203125	0.05078125	4.25	-171.875	81.1875
18	12	03	11	25	37	0.0148315329406	0.525878550682	-0.0437621774419	-0.85009765625	0.00732421875	0.03515625	1.6875	-178.0625	88.875
18	12	03	11	25	38	0.0283813570661	0.498840497422	-0.0506591964836	-0.794921875	0.07275390625	0.05029296875	-13.875	-181.6875	92.9375
18	12	03	11	25	38	0.0437005696919	0.471062844807	-0.0546257121149	-0.7626953125	0.11767578125	0.0732421875	-34.0625	-181.75	92.9375
18	12	03	11	25	38	0.0602401217357	0.443347765236	-0.0552353699805	-0.76171875	0.134765625	0.103515625	-53.625	-177.25	90.375
18	12	03	11	25	38	0.0769025340143	0.416189190034	-0.0531604024813	-0.771484375	0.14404296875	0.13134765625	-67.3125	-169.9375	84.6875
18	12	03	11	25	38	0.0922829696578	0.390127474903	-0.0497424737243	-0.7841796875	0.1298828125	0.17919921875	-70.0625	-160.75	75.9375
18	12	03	11	25	38	0.105529008538	0.36578099952	-0.0467525856219	-0.81103515625	0.13671875	0.22265625	-61.625	-149.75	65.625
18	12	03	11	25	38	0.115722024046	0.344114330998	-0.0454709429929	-0.8515625	0.1669921875	0.259765625	-44.75	-134.5	53.25
18	12	03	11	25	38	0.122314422824	0.326049723915	-0.0459594612706	-0.9033203125	0.17919921875	0.26220703125	-25.3125	-115.625	38.1875
18	12	03	11	25	38	0.125304395769	0.316892558613	-0.0484616123918	-0.90869140625	0.15234375	0.2646484375	-4.5625	-94.5625	25.6875
18	12	03	11	25	38	0.125306359131	0.311892593844	-0.0531621231385	-0.88134765625	0.11181640625	0.2802734375	18.375	-71.0625	15.125
18	12	03	11	25	38	0.122987508718	0.310856268934	-0.0607918405376	-0.79541015625	0.091796875	0.3212890625	43.625	-43.8125	8.125
18	12	03	11	25	38	0.118775383524	0.314333620324	-0.0712286087219	-0.74169921875	0.1337890625	0.37060546875	64.6875	-14.0625	0.6875
18	12	03	11	25	38	0.112488348004	0.323426888809	-0.0824589029591	-0.7685546875	0.232421875	0.416015625	72.9375	19.8125	-12.75
18	12	03	11	25	38	0.104065535713	0.3383198032	-0.091309115206	-0.7939453125	0.298828125	0.4345703125	66.625	56.3125	-32.3125
18	12	03	11	25	38	0.0938092939538	0.357781445125	-0.0953351445386	-0.76513671875	0.23046875	0.4443359375	51.875	90.0	-50.4375
18	12	03	11	25	38	0.0834332071017	0.378653706554	-0.0957010012696	-0.71044921875	0.1220703125	0.44970703125	38.8125	116.375	-60.5
18	12	03	11	25	38	0.0735450987605	0.402514461681	-0.0937471134408	-0.7080078125	0.099609375	0.47119140625	28.4375	138.6875	-63.0625
18	12	03	11	25	38	0.064758465913	0.429627560379	-0.0880739550542	-0.80419921875	0.1396484375	0.4375	8.25	162.0	-67.9375
18	12	03	11	25	38	0.0570669145494	0.459281852389	-0.0770250761083	-1.02099609375	0.15771484375	0.36376953125	-20.3125	180.125	-75.4375
18	12	03	11	25	38	0.0513900756891	0.489487419272	-0.0606061106405	-1.208984375	0.1298828125	0.2763671875	-52.3125	187.9375	-79.125
18	12	03	11	25	38	0.0479132851189	0.518928344052	-0.0396734207991	-1.2998046875	0.04833984375	0.216796875	-80.4375	188.9375	-79.875
18	12	03	11	25	38	0.0455305367249	0.546671605154	-0.0183709002067	-1.2568359375	-0.0810546875	0.1748046875	-85.0625	184.625	-73.5
18	12	03	11	25	38	0.0424803845601	0.572264490856	-0.000122070070575	-1.10595703125	-0.1875	0.140625	-68.0	175.8125	-66.125
18	12	03	11	25	38	0.0377195359527	0.595089766244	0.0129393877378	-0.95166015625	-0.23193359375	0.14453125	-38.8125	161.5	-56.9375
18	12	03	11	25	38	0.0313110774976	0.615601418404	0.0203857697548	-0.85791015625	-0.2275390625	0.1474609375	-7.875	147.9375	-46.3125
18	12	03	11	25	38	0.0228879969507	0.634028032863	0.0227048929751	-0.8173828125	-0.232421875	0.162109375	21.3125	135.75	-37.625
18	12	03	11	25	38	0.0123902563821	0.650457942189	0.0205690463093	-0.8310546875	-0.2119140625	0.19580078125	48.6875	124.0625	-31.4375
18	12	03	11	25	38	0.000122073075411	0.665176187916	0.0148929152002	-0.9052734375	-0.1181640625	0.2392578125	70.125	114.375	-27.8125
18	12	03	11	25	38	-0.012695207391	0.678583248909	0.00811760857213	-1.0087890625	0.0087890625	0.29541015625	76.8125	108.375	-28.3125
18	12	03	11	25	38	-0.0242928205281	0.691002565825	0.00323497358791	-1.05615234375	0.109375	0.37109375	63.9375	105.3125	-32.875
18	12	03	11	25	38	-0.0342413756373	0.702405972967	0.00140383536481	-1.060546875	0.103515625	0.44091796875	44.625	100.5625	-37.9375
18	12	03	11	25	38	-0.0432122839825	0.70903545625	0.000244137197641	-1.04052734375	0.02685546875	0.48876953125	37.1875	90.625	-39.5
18	12	03	11	25	38	-0.0531012966025	0.713937777425	-0.00177004322008	-1.02783203125	-0.01611328125	0.5234375	44.6875	81.4375	-37.0625
18	12	03	11	25	38	-0.0631116739486	0.717727440969	-0.00567638846927	-1.04931640625	0.04052734375	0.4970703125	52.875	73.0	-34.0625
18	12	03	11	25	38	-0.0709857162871	0.720538590515	-0.00885032576236	-1.11181640625	0.12890625	0.45751953125	41.4375	62.8125	-35.5
18	12	03	11	25	38	-0.0755619052797	0.722476795473	-0.00872807144992	-1.2099609375	0.13427734375	0.40673828125	15.5	50.3125	-37.625
18	12	03	11	25	38	-0.0784931937943	0.723223836134	-0.00585952302041	-1.31201171875	0.015625	0.361328125	-1.9375	35.5	-34.875
18	12	03	11	25	38	-0.0824592560721	0.721991517452	-0.0043335360334	-1.38232421875	-0.14892578125	0.3125	7.8125	17.0	-22.125
18	12	03	11	25	38	-0.0885022951944	0.718028276322	-0.00799572460033	-1.37744140625	-0.23095703125	0.26220703125	38.4375	-6.1875	-2.0
18	12	03	11	25	38	-0.0949709610415	0.711122536693	-0.0171509254837	-1.28955078125	-0.18408203125	0.216796875	64.25	-31.75	18.3125
18	12	03	11	25	38	-0.099059579046	0.701473654945	-0.0286253497058	-1.1552734375	-0.0830078125	0.19384765625	65.375	-56.1875	34.0625
18	12	03	11	25	38	-0.0990617128008	0.689647746726	-0.0393072970079	-1.07080078125	0.0048828125	0.181640625	46.9375	-76.625	44.875
18	12	03	11	25	38	-0.0944829211547	0.6765782823	-0.0480349218015	-1.0908203125	0.080078125	0.1875	21.3125	-89.875	52.9375
18	12	03	11	25	38	-0.0849601839136	0.663141090676	-0.0540156341692	-1.208984375	0.2119140625	0.1845703125	-10.1875	-97.375	56.0625
18	12	03	11	25	38	-0.0724470069964	0.65006998443	-0.0529162216225	-1.36376953125	0.328125	0.193359375	-50.5	-101.5	53.25
18	12	03	11	25	38	-0.0565196583073	0.6368532557	-0.0460214064403	-1.47412109375	0.3291015625	0.193359375	-88.8125	-105.1875	46.8125
18	12	03	11	25	38	-0.0386352358434	0.622985548583	-0.0344848471588	-1.498046875	0.22412109375	0.21923828125	-115.5625	-109.75	41.0625
18	12	03	11	25	38	-0.0215450997863	0.607840364792	-0.0225826824955	-1.42041015625	0.03076171875	0.236328125	-113.625	-115.4375	39.4375
18	12	03	11	25	38	-0.00732418881871	0.59106203767	-0.0149535521715	-1.26806640625	-0.1552734375	0.2177734375	-83.125	-123.6875	44.6875
18	12	03	11	25	38	0.00341799179046	0.572147411496	-0.0146485362448	-1.0908203125	-0.265625	0.16845703125	-36.6875	-136.1875	55.6875
18	12	03	11	25	39	0.0115356754509	0.55102686757	-0.0223389270636	-0.9326171875	-0.2578125	0.10888671875	9.75	-149.5625	69.8125
18	12	03	11	25	39	0.0194706231404	0.528087245801	-0.0355232058548	-0.81005859375	-0.16455078125	0.0537109375	35.75	-159.5625	85.1875
18	12	03	11	25	39	0.0293574769642	0.50371571182	-0.0499260211158	-0.728515625	-0.06005859375	0.01708984375	35.25	-165.6875	97.3125
18	12	03	11	25	39	0.0425403382586	0.478075279167	-0.0619489861297	-0.67138671875	0.029296875	0.01025390625	13.1875	-168.9375	106.25
18	12	03	11	25	39	0.0588984847609	0.451717809031	-0.0693964530291	-0.64453125	0.08544921875	0.0361328125	-19.0625	-168.4375	109.8125
18	12	03	11	25	39	0.0776344817353	0.425097614219	-0.0716532087714	-0.6533203125	0.1279296875	0.07275390625	-51.6875	-164.625	108.125
18	12	03	11	25	39	0.096921282325	0.398732202411	-0.0695172169825	-0.69580078125	0.15625	0.14111328125	-75.375	-158.375	101.0
18	12	03	11	25	39	0.115171612511	0.373346451366	-0.0643911241117	-0.73681640625	0.15966796875	0.193359375	-87.1875	-149.6875	89.3125
18	12	03	11	25	39	0.130980049327	0.349727717915	-0.0580438149628	-0.7880859375	0.177734375	0.27685546875	-87.0625	-137.625	74.125
18	12	03	11	25	39	0.143183415221	0.329456127607	-0.0521832139873	-0.8505859375	0.20166015625	0.333984375	-74.3125	-118.9375	55.9375
18	12	03	11	25	39	0.150017992054	0.31828471463	-0.047666416515	-0.8837890625	0.17626953125	0.33984375	-52.375	-95.125	33.4375
18	12	03	11	25	39	0.151852311645	0.311944198078	-0.046202652699	-0.87158203125	0.08642578125	0.3515625	-17.5625	-70.5625	14.875
18	12	03	11	25	39	0.149653519617	0.310781289515	-0.0501082951084	-0.80517578125	0.048828125	0.359375	25.625	-41.9375	3.5
18	12	03	11	25	39	0.144105317545	0.315493598641	-0.059326712687	-0.74365234375	0.08056640625	0.3759765625	64.5625	-8.375	-6.8125
18	12	03	11	25	39	0.13525230879	0.326656298125	-0.0716544271297	-0.75927734375	0.17626953125	0.39208984375	88.6875	27.75	-22.0625
18	12	03	11	25	39	0.123412416088	0.343870203877	-0.0828242574833	-0.81982421875	0.2646484375	0.40380859375	90.3125	62.8125	-43.375
18	12	03	11	25	39	0.108887055631	0.366028964473	-0.0895388512393	-0.8828125	0.28076171875	0.4130859375	76.0625	95.375	-67.5
18	12	03	11	25	39	0.0927719159983	0.389153773951	-0.0908798571851	-0.8974609375	0.20263671875	0.3984375	58.625	123.4375	-87.75
18	12	03	11	25	39	0.0767184210696	0.414779943985	-0.0895353410573	-0.8232421875	0.072265625	0.40478515625	48.1875	144.0	-92.9375
18	12	03	11	25	39	0.0610332276442	0.44224676751	-0.0873995819865	-0.814453125	0.02880859375	0.41455078125	45.3125	160.125	-92.625
18	12	03	11	25	39	0.045410859574	0.471809065198	-0.083741531365	-0.97900390625	0.115234375	0.37353515625	38.6875	175.875	-97.375
18	12	03	11	25	39	0.0300289258722	0.502313129935	-0.0765371403327	-1.255859375	0.15087890625	0.25	20.0625	183.5	-106.0625
18	12	03	11	25	39	0.0166015266915	0.531187819103	-0.0640867758311	-1.42431640625	0.072265625	0.15673828125	-11.0	176.875	-110.0
18	12	03	11	25	39	0.0051268464296	0.557971786421	-0.0497426171443	-1.4267578125	-0.11572265625	0.16552734375	-24.9375	170.0	-103.6875
18	12	03	11	25	39	-0.00634763503887	0.583066899292	-0.03906236947	-1.298828125	-0.27978515625	0.14599609375	-6.6875	165.5625	-89.4375
18	12	03	11	25	39	-0.0194094008718	0.605658757391	-0.0343021487105	-1.0712890625	-0.32373046875	0.11865234375	26.125	154.8125	-76.625
18	12	03	11	25	39	-0.0332030783066	0.625060156137	-0.0343627446446	-0.9013671875	-0.2841796875	0.1357421875	50.125	138.875	-63.1875
18	12	03	11	25	39	-0.0462637320838	0.641283684702	-0.0372917418248	-0.8095703125	-0.21826171875	0.1220703125	60.1875	120.6875	-49.9375
18	12	03	11	25	39	-0.05749398664	0.654528145146	-0.0410148184948	-0.77783203125	-0.1552734375	0.12109375	57.1875	101.5625	-39.375
18	12	03	11	25	39	-0.0670170942646	0.665104987433	-0.0439456355834	-0.7822265625	-0.07177734375	0.142578125	47.4375	86.9375	-32.125
18	12	03	11	25	39	-0.0733662948258	0.674029944893	-0.0461438593081	-0.81201171875	0.0146484375	0.173828125	31.875	78.0625	-27.25
18	12	03	11	25	39	-0.0768427032248	0.681696705574	-0.0469967287396	-0.8681640625	0.06689453125	0.232421875	14.8125	72.9375	-23.5
18	12	03	11	25	39	-0.0780637474635	0.688657750298	-0.046691764511	-0.9462890625	0.111328125	0.29833984375	0.9375	72.5	-21.625
18	12	03	11	25	39	-0.0781876351277	0.695265692225	-0.0456552311284	-1.0458984375	0.1435546875	0.3623046875	-6.5625	75.1875	-22.75
18	12	03	11	25	39	-0.0784931094299	0.7016160909	-0.043763265522	-1.1171875	0.14208984375	0.41845703125	-9.375	78.1875	-26.875
18	12	03	11	25	39	-0.0801376461452	0.707445130594	-0.0416251901531	-1.146484375	0.0830078125	0.46826171875	-4.875	79.25	-29.75
18	12	03	11	25	39	-0.084167911601	0.712467028367	-0.0408937641571	-1.17578125	0.0283203125	0.4931640625	10.25	77.625	-30.3125
18	12	03	11	25	39	-0.0906987436015	0.716678766736	-0.0422365616233	-1.1728515625	0.01220703125	0.46435546875	28.875	72.5625	-30.6875
18	12	03	11	25	39	-0.0974741736176	0.719795196915	-0.0446171702658	-1.171875	0.0693359375	0.41015625	34.6875	62.0625	-31.0625
18	12	03	11	25	39	-0.102538776392	0.721921813791	-0.0458372744468	-1.18310546875	0.1005859375	0.36328125	23.375	49.875	-31.375
18	12	03	11	25	39	-0.106017254797	0.723016925923	-0.0452267045508	-1.25732421875	0.0439453125	0.32421875	9.9375	37.25	-28.625
18	12	03	11	25	39	-0.109191391155	0.722652918544	-0.0443723540356	-1.3173828125	-0.041015625	0.26220703125	7.875	20.375	-22.125
18	12	03	11	25	39	-0.112974115757	0.7198971882	-0.0451041985655	-1.31005859375	-0.09912109375	0.21435546875	18.125	-1.625	-12.1875
18	12	03	11	25	39	-0.117431022708	0.714351709861	-0.0483395893891	-1.2529296875	-0.1357421875	0.18017578125	31.5625	-25.875	1.1875
18	12	03	11	25	39	-0.121150666693	0.705847587054	-0.0539532440083	-1.19091796875	-0.1318359375	0.15380859375	39.9375	-51.125	16.75
18	12	03	11	25	39	-0.12194494075	0.694866441661	-0.060972470375	-1.20751953125	-0.03466796875	0.14208984375	34.6875	-72.9375	31.3125
18	12	03	11	25	39	-0.117611060995	0.682473733289	-0.0666483023387	-1.28369140625	0.0849609375	0.12353515625	9.5625	-89.9375	40.8125
18	12	03	11	25	39	-0.109068715194	0.669487821468	-0.0666497129222	-1.3623046875	0.1474609375	0.1201171875	-30.25	-103.0	45.5
18	12	03	11	25	39	-0.0960050816564	0.655373532629	-0.0618875732992	-1.39794921875	0.154296875	0.13134765625	-67.25	-115.1875	47.9375
18	12	03	11	25	39	-0.0798337592405	0.639890773607	-0.0541380309223	-1.39453125	0.08837890625	0.150390625	-91.3125	-126.0625	52.25
18	12	03	11	25	39	-0.0626835344361	0.622379747463	-0.0465091073421	-1.32470703125	-0.0439453125	0.17529296875	-93.25	-136.9375	60.1875
18	12	03	11	25	40	-0.0465690536993	0.602284956625	-0.0418083902805	-1.20751953125	-0.15380859375	0.171875	-75.0625	-150.625	69.5
18	12	03	11	25	40	-0.0332018820343	0.579018850844	-0.0429061085847	-1.0751953125	-0.2216796875	0.18505859375	-37.9375	-166.6875	79.5625
18	12	03	11	25	40	-0.021971649304	0.553075238868	-0.0502906639624	-0.96728515625	-0.1591796875	0.17431640625	-1.3125	-179.5	90.0625
18	12	03	11	25	40	-0.010924789607	0.525610548018	-0.0609102794847	-0.8818359375	-0.0205078125	0.14892578125	14.4375	-185.25	98.0
18	12	03	11	25	40	0.00152591092716	0.497202816504	-0.0704970848346	-0.83544921875	0.0869140625	0.1279296875	5.0	-187.5625	100.75
18	12	03	11	25	40	0.0155025034308	0.468431944219	-0.0765359815049	-0.8232421875	0.15234375	0.134765625	-17.375	-186.4375	97.9375
18	12	03	11	25	40	0.0304567556507	0.439883442835	-0.0783696878869	-0.8203125	0.18017578125	0.16357421875	-41.0625	-182.0625	91.6875
18	12	03	11	25	40	0.0452260798398	0.411856392388	-0.0765364428059	-0.83984375	0.17529296875	0.1962890625	-58.5	-175.6875	81.625
18	12	03	11	25	40	0.0585934730063	0.384824840942	-0.0725094228452	-0.84716796875	0.1513671875	0.21875	-65.6875	-168.1875	69.5
18	12	03	11	25	40	0.0699437976231	0.359118067377	-0.0678686762276	-0.84130859375	0.12109375	0.25048828125	-62.6875	-158.75	58.1875
18	12	03	11	25	40	0.0790993651905	0.335378867069	-0.0642072007565	-0.8349609375	0.1015625	0.27099609375	-51.8125	-146.5625	48.375
18	12	03	11	25	40	0.0859977581105	0.314389249132	-0.0620721930436	-0.841796875	0.10546875	0.271484375	-37.5625	-131.0	39.125
18	12	03	11	25	40	0.0906938815199	0.296921758812	-0.0610322217496	-0.8955078125	0.1298828125	0.24755859375	-25.5	-112.25	28.5
18	12	03	11	25	40	0.0924675702007	0.288633095366	-0.0604853875042	-0.91357421875	0.09716796875	0.22119140625	-14.125	-92.75	17.625
18	12	03	11	25	40	0.0924043851336	0.283560616467	-0.0609112129216	-0.87060546875	0.03515625	0.22216796875	-0.1875	-72.75	9.9375
18	12	03	11	25	40	0.0909410336242	0.281856169984	-0.0640249290415	-0.79443359375	0.0048828125	0.2568359375	20.875	-48.6875	6.875
18	12	03	11	25	40	0.088134939475	0.285034741931	-0.0705567798013	-0.76318359375	0.05224609375	0.28662109375	42.8125	-19.0	2.1875
18	12	03	11	25	40	0.0836767388478	0.293570469627	-0.0787330365527	-0.77490234375	0.13671875	0.32080078125	54.0	13.3125	-7.875
18	12	03	11	25	40	0.0772073941986	0.307120638425	-0.0867896557711	-0.7919921875	0.21826171875	0.36083984375	56.25	44.75	-22.75
18	12	03	11	25	40	0.0687841545626	0.325610882513	-0.0931973416301	-0.79833984375	0.25439453125	0.38671875	52.5625	76.9375	-39.25
18	12	03	11	25	40	0.0590791519221	0.34525905209	-0.096552911509	-0.75439453125	0.19384765625	0.404296875	46.5625	106.4375	-53.1875
18	12	03	11	25	40	0.0484611386846	0.36840230869	-0.0986922685806	-0.74365234375	0.146484375	0.4306640625	44.8125	129.6875	-61.25
18	12	03	11	25	40	0.0369265357836	0.395144450683	-0.0993659508358	-0.84326171875	0.19970703125	0.46728515625	40.5	153.1875	-71.1875
18	12	03	11	25	40	0.0245362766383	0.425539603787	-0.0967412897306	-1.01611328125	0.2119140625	0.42578125	27.5	176.8125	-84.8125
18	12	03	11	25	40	0.012145458998	0.457621364656	-0.0901449393968	-1.185546875	0.10791015625	0.369140625	9.0625	189.5	-93.875
18	12	03	11	25	40	0.000793440929705	0.489369951875	-0.0807478730769	-1.24365234375	-0.01171875	0.3232421875	-6.375	191.875	-94.25
18	12	03	11	25	40	-0.00982669509797	0.519777238847	-0.0713503513635	-1.16748046875	-0.1328125	0.27392578125	-7.375	189.5	-89.0
18	12	03	11	25	40	-0.0207517340403	0.547845778664	-0.0642083065011	-1.0107421875	-0.24951171875	0.21728515625	5.0	180.625	-81.75
18	12	03	11	25	40	-0.0317996515397	0.57282097831	-0.0594488687133	-0.86376953125	-0.248046875	0.19384765625	17.1875	165.9375	-73.9375
18	12	03	11	25	40	-0.0418090157594	0.595152865211	-0.05645743004	-0.78515625	-0.18896484375	0.1845703125	21.625	153.4375	-63.9375
18	12	03	11	25	40	-0.0498037773736	0.615406234385	-0.053160649623	-0.7861328125	-0.130859375	0.16455078125	13.0	142.6875	-55.8125
18	12	03	11	25	40	-0.05572420472	0.633778906695	-0.0490104451152	-0.85205078125	-0.0908203125	0.18115234375	1.5	132.6875	-49.5625
18	12	03	11	25	40	-0.059936356424	0.6507550226	-0.0444334699355	-0.94287109375	-0.02978515625	0.22021484375	-6.25	125.5	-44.3125
18	12	03	11	25	40	-0.0624991536778	0.666800052666	-0.0393671426974	-1.046875	0.04345703125	0.265625	-14.375	121.9375	-40.1875
18	12	03	11	25	40	-0.0635998331003	0.68214177997	-0.0335699694867	-1.15576171875	0.0712890625	0.32568359375	-23.375	120.375	-37.125
18	12	03	11	25	40	-0.0643909506875	0.696398812649	-0.0277705047989	-1.24658203125	0.03759765625	0.37744140625	-23.9375	115.5	-35.5
18	12	03	11	25	40	-0.0660407898002	0.709053470526	-0.0233156947354	-1.24853515625	-0.03271484375	0.40087890625	-14.8125	107.0625	-32.0
18	12	03	11	25	40	-0.0704966453222	0.71668537608	-0.0214846919077	-1.181640625	-0.1396484375	0.40673828125	6.8125	93.8125	-25.625
18	12	03	11	25	40	-0.0778184160607	0.721910764836	-0.0238643142586	-1.09814453125	-0.13427734375	0.416015625	35.6875	79.1875	-18.875
18	12	03	11	25	40	-0.0860607446829	0.725412730891	-0.0298465986879	-1.06396484375	-0.0498046875	0.38525390625	54.3125	67.0	-12.9375
18	12	03	11	25	40	-0.0927708322439	0.727640698692	-0.0361928312636	-1.0791015625	0.05810546875	0.3505859375	50.1875	54.6875	-12.25
18	12	03	11	25	40	-0.0963142851187	0.72864381226	-0.040344576973	-1.14111328125	0.140625	0.32763671875	29.4375	41.125	-14.625
18	12	03	11	25	40	-0.0972307269673	0.728528535519	-0.0411384243414	-1.2236328125	0.12890625	0.31494140625	5.625	28.0	-16.5625
18	12	03	11	25	40	-0.0971666106337	0.727284756477	-0.0405267772995	-1.3046875	0.060546875	0.29736328125	-3.9375	15.625	-13.625
18	12	03	11	25	40	-0.0979644849901	0.724448892428	-0.0407727576158	-1.34228515625	-0.01611328125	0.2685546875	3.6875	0.9375	-7.0
18	12	03	11	25	40	-0.100221764169	0.719497049954	-0.0432137692032	-1.2998046875	-0.06103515625	0.23779296875	18.75	-17.875	1.5625
18	12	03	11	25	40	-0.102968489504	0.712051214315	-0.0478525760349	-1.23291015625	-0.064453125	0.22802734375	30.625	-38.375	11.9375
18	12	03	11	25	40	-0.104190335214	0.702476021077	-0.0537126508426	-1.1962890625	-0.021484375	0.20947265625	30.5625	-57.875	22.375
18	12	03	11	25	40	-0.101744019257	0.691273402584	-0.059203178572	-1.2490234375	0.07421875	0.2001953125	14.5625	-74.25	31.625
18	12	03	11	25	41	-0.0941170871246	0.679510720466	-0.0617071174339	-1.318359375	0.16162109375	0.15625	-18.375	-87.25	36.875
18	12	03	11	25	41	-0.0827036408067	0.667122357208	-0.0574958152324	-1.349609375	0.1572265625	0.13232421875	-60.1875	-100.9375	39.375
18	12	03	11	25	41	-0.0676263058001	0.653253024349	-0.0493769687656	-1.3466796875	0.09423828125	0.14892578125	-90.4375	-113.5625	42.0
18	12	03	11	25	41	-0.0510240142796	0.637922245515	-0.0398548819672	-1.34814453125	0.04541015625	0.15771484375	-101.8125	-122.4375	45.25
18	12	03	11	25	41	-0.0343011106687	0.621082032322	-0.0306390703838	-1.29150390625	-0.01171875	0.1484375	-100.1875	-130.25	48.375
18	12	03	11	25	41	-0.0184326172905	0.602539065867	-0.0229492188782	-1.18896484375	-0.072265625	0.14013671875	-89.375	-139.4375	51.5
18	12	03	11	25	41	-0.00396722382362	0.582083286245	-0.0182492295887	-1.08349609375	-0.107421875	0.13720703125	-70.75	-148.8125	56.625
18	12	03	11	25	41	0.00909406643653	0.560048010883	-0.0172115888262	-0.99365234375	-0.10302734375	0.12255859375	-48.75	-156.625	62.375
18	12	03	11	25	41	0.0210570652885	0.536741542456	-0.0194701560204	-0.9130859375	-0.06494140625	0.1123046875	-29.875	-162.875	67.5
18	12	03	11	25	41	0.0327141799928	0.512440774663	-0.0237421940619	-0.85546875	-0.00048828125	0.0947265625	-19.625	-166.875	71.25
18	12	03	11	25	41	0.0446157635681	0.487538603806	-0.0282586847223	-0.80126953125	0.05224609375	0.08837890625	-19.6875	-168.3125	73.3125
18	12	03	11	25	41	0.0571298961097	0.462349319478	-0.0315557225307	-0.76318359375	0.09716796875	0.103515625	-27.625	-166.3125	72.625
18	12	03	11	25	41	0.0698212052471	0.437359053147	-0.0332016920056	-0.7314453125	0.1220703125	0.1259765625	-36.6875	-161.9375	69.0625
18	12	03	11	25	41	0.0820905472501	0.413138226272	-0.0332024220848	-0.7177734375	0.14404296875	0.15185546875	-43.875	-154.3125	63.3125
18	12	03	11	25	41	0.0934439062686	0.390254955376	-0.0319210731407	-0.72119140625	0.158203125	0.19677734375	-47.0625	-144.0	55.625
18	12	03	11	25	41	0.103208332288	0.369438223146	-0.0300897148539	-0.7578125	0.201171875	0.2333984375	-46.0625	-130.125	46.25
18	12	03	11	25	41	0.110712593768	0.35160708528	-0.0280138260968	-0.8134765625	0.23095703125	0.25439453125	-40.875	-112.6875	33.8125
18	12	03	11	25	41	0.115290061854	0.341536890491	-0.0266100936837	-0.87744140625	0.20849609375	0.26513671875	-32.5	-93.8125	19.75
18	12	03	11	25	41	0.116883252764	0.335512919292	-0.0260011831214	-0.931640625	0.15966796875	0.27294921875	-16.875	-74.1875	8.25
18	12	03	11	25	41	0.115780007611	0.333485483176	-0.0275870128835	-0.94775390625	0.09716796875	0.2724609375	6.1875	-53.1875	1.3125
18	12	03	11	25	41	0.112543508505	0.335738525102	-0.0323471038545	-0.9697265625	0.0625	0.2841796875	32.6875	-30.9375	-2.125
18	12	03	11	25	41	0.106930142338	0.342518241326	-0.0405260356807	-1.0185546875	0.083984375	0.3076171875	57.9375	-6.8125	-7.625
18	12	03	11	25	41	0.0995495410372	0.353764034244	-0.0502935756068	-1.05126953125	0.13134765625	0.3310546875	71.1875	19.875	-15.125
18	12	03	11	25	41	0.0906965945738	0.368157374475	-0.0590199239252	-0.99267578125	0.11865234375	0.34326171875	72.125	45.25	-24.3125
18	12	03	11	25	41	0.0810520965721	0.383959894228	-0.0654886292333	-0.84228515625	0.02001953125	0.34814453125	68.375	65.25	-30.0
18	12	03	11	25	41	0.0714125405371	0.399849190648	-0.0710463223805	-0.71728515625	-0.03955078125	0.37939453125	67.1875	76.875	-30.5625
18	12	03	11	25	41	0.0620707290452	0.416368253241	-0.0765355892061	-0.72412109375	0.0390625	0.435546875	63.8125	86.5625	-32.4375
18	12	03	11	25	41	0.0528547612594	0.434007167801	-0.0794042083123	-0.880859375	0.1630859375	0.42724609375	46.1875	101.875	-45.0
18	12	03	11	25	41	0.0435780536646	0.453785474785	-0.0764141781345	-1.0400390625	0.1298828125	0.3896484375	17.6875	115.625	-60.3125
18	12	03	11	25	41	0.0347889433857	0.474289261492	-0.0695778867715	-1.0966796875	-0.02685546875	0.40283203125	-1.1875	123.3125	-65.75
18	12	03	11	25	41	0.0249027109821	0.495673813445	-0.063904750976	-1.099609375	-0.13330078125	0.4189453125	9.0625	131.5	-66.875
18	12	03	11	25	41	0.0124512063154	0.517274380016	-0.0623170669022	-1.0205078125	-0.1826171875	0.39404296875	37.6875	135.6875	-67.5
18	12	03	11	25	41	-0.00262455903126	0.537851492639	-0.0641491056246	-0.87890625	-0.193359375	0.3671875	61.9375	132.625	-70.4375
18	12	03	11	25	41	-0.019531085238	0.556880067849	-0.0673212094298	-0.76123046875	-0.1298828125	0.36669921875	73.3125	126.375	-75.5
18	12	03	11	25	41	-0.0365592998648	0.574695104386	-0.0698838035813	-0.70654296875	-0.05517578125	0.34814453125	70.0625	121.5	-79.3125
18	12	03	11	25	41	-0.0522460425619	0.591674224994	-0.0697631152433	-0.70849609375	-0.0078125	0.328125	53.1875	117.9375	-82.3125
18	12	03	11	25	41	-0.0657931032721	0.607823298225	-0.0665254940321	-0.75537109375	0.0068359375	0.31640625	31.5625	113.6875	-83.5625
18	12	03	11	25	41	-0.0773317011265	0.623170219812	-0.0607301046731	-0.83056640625	0.029296875	0.33203125	13.0625	109.4375	-83.375
18	12	03	11	25	41	-0.0869127670847	0.638113047662	-0.0531608287435	-0.93017578125	0.052734375	0.36083984375	-2.0625	108.3125	-81.875
18	12	03	11	25	41	-0.0943604123755	0.652832451984	-0.0441284464084	-1.046875	0.03125	0.37255859375	-16.0625	108.25	-78.0625
18	12	03	11	25	41	-0.100401628051	0.666617982721	-0.0348506563023	-1.13330078125	-0.0634765625	0.37353515625	-22.1875	103.8125	-71.625
18	12	03	11	25	41	-0.10565064699	0.677116278285	-0.026366885904	-1.1435546875	-0.11376953125	0.3740234375	-21.6875	96.3125	-63.25
18	12	03	11	25	41	-0.110536636506	0.685681156546	-0.0197147065662	-1.12255859375	-0.12841796875	0.37451171875	-15.25	85.9375	-53.1875
18	12	03	11	25	41	-0.113645989333	0.692862121861	-0.0147703165513	-1.126953125	-0.06982421875	0.3603515625	-15.1875	76.6875	-43.9375
18	12	03	11	25	41	-0.11443943545	0.69878245145	-0.0103148077819	-1.14599609375	-0.02001953125	0.33642578125	-21.6875	66.0625	-35.75
18	12	03	11	25	41	-0.112548235062	0.703243364635	-0.00561520478619	-1.2060546875	0.04248046875	0.34033203125	-33.1875	54.5	-29.8125
18	12	03	11	25	41	-0.107788792457	0.706730706605	-0.000122071112636	-1.27001953125	0.0888671875	0.32177734375	-47.0	43.875	-25.3125
18	12	03	11	25	41	-0.101137251537	0.709059415274	0.0064088179912	-1.34423828125	0.05126953125	0.3173828125	-57.8125	33.6875	-18.8125
18	12	03	11	25	41	-0.0946042291002	0.709958963157	0.0122680322898	-1.3955078125	-0.04296875	0.2880859375	-53.6875	20.9375	-10.125
18	12	03	11	25	41	-0.0894142851935	0.708539547312	0.0155025450097	-1.38232421875	-0.09521484375	0.26953125	-36.25	3.375	0.75
18	12	03	11	25	41	-0.0856912438986	0.704633483483	0.0155635806226	-1.29150390625	-0.12255859375	0.23583984375	-15.3125	-17.9375	12.0
18	12	03	11	25	42	-0.0827636951531	0.697998243194	0.0130004919378	-1.134765625	-0.1337890625	0.212890625	0.4375	-41.0	23.375
18	12	03	11	25	42	-0.0790419862313	0.688977560292	0.00836197074416	-1.01513671875	-0.10205078125	0.19189453125	7.625	-61.875	36.0
18	12	03	11	25	42	-0.0725078809367	0.6785101956	0.00262444350192	-1.0087890625	-0.0068359375	0.18408203125	1.8125	-75.5	47.0
18	12	03	11	25	42	-0.0614635769694	0.667554261484	-0.00140383542234	-1.09228515625	0.11572265625	0.1650390625	-23.0	-84.3125	51.875
18	12	03	11	25	42	-0.0455333201469	0.656082651822	-0.000549329599628	-1.16845703125	0.1689453125	0.15966796875	-62.5625	-92.75	51.8125
18	12	03	11	25	42	-0.0264889893572	0.643670234472	0.00561517746742	-1.2353515625	0.13134765625	0.2021484375	-97.0625	-99.625	48.9375
18	12	03	11	25	42	-0.00769040302967	0.630124768875	0.0153808060593	-1.2900390625	0.08349609375	0.22705078125	-110.0625	-104.5	45.6875
18	12	03	11	25	42	0.0101318514881	0.615601530776	0.0249023819707	-1.28857421875	0.0029296875	0.22998046875	-105.4375	-109.0625	43.4375
18	12	03	11	25	42	0.0253911765101	0.599439289677	0.0315558611916	-1.20263671875	-0.11669921875	0.2421875	-82.6875	-118.0	44.0
18	12	03	11	25	42	0.0374751761266	0.581597643828	0.0330196584438	-1.083984375	-0.16943359375	0.232421875	-47.375	-128.9375	47.75
18	12	03	11	25	42	0.0468754919207	0.562689010439	0.0287478602795	-0.96875	-0.1455078125	0.19970703125	-12.5	-136.875	53.9375
18	12	03	11	25	42	0.0554819088294	0.542855992441	0.0212405987598	-0.8837890625	-0.080078125	0.16064453125	5.3125	-142.5	59.8125
18	12	03	11	25	42	0.0643902221054	0.521957516062	0.012939077807	-0.83447265625	-0.0234375	0.1396484375	7.25	-147.9375	62.9375
18	12	03	11	25	42	0.0744028800433	0.500312065394	0.00598152768191	-0.802734375	0.02978515625	0.14404296875	-3.375	-150.0	64.125
18	12	03	11	25	42	0.0857528328936	0.478506910951	0.00134274898481	-0.79541015625	0.06005859375	0.1572265625	-18.5625	-147.625	64.0
18	12	03	11	25	42	0.0978361259714	0.456772031672	-0.000732397699099	-0.791015625	0.07568359375	0.1796875	-34.0625	-143.875	61.1875
18	12	03	11	25	42	0.109860279972	0.435229809157	-0.000549301399861	-0.7958984375	0.07763671875	0.21240234375	-44.75	-139.3125	55.4375
18	12	03	11	25	42	0.120847266378	0.414298608168	0.000671373702099	-0.80029296875	0.064453125	0.2392578125	-47.125	-133.5625	48.4375
18	12	03	11	25	42	0.13000445711	0.394468923145	0.00164794382252	-0.8076171875	0.068359375	0.28369140625	-40.875	-126.0	40.4375
18	12	03	11	25	42	0.137017855356	0.376814360343	0.00176994111596	-0.8525390625	0.09375	0.31640625	-30.5625	-113.5625	31.6875
18	12	03	11	25	42	0.141416145644	0.365899781241	0.00158688812548	-0.91357421875	0.11572265625	0.32666015625	-20.5	-96.875	21.375
18	12	03	11	25	42	0.143371160094	0.358580487675	0.00177001432214	-0.943359375	0.0791015625	0.31591796875	-12.75	-78.4375	10.5625
18	12	03	11	25	42	0.142633316483	0.35453869724	0.00238027357417	-0.9404296875	-0.01220703125	0.2900390625	-2.6875	-60.4375	0.625
18	12	03	11	25	42	0.13927784494	0.353626570369	0.00115963148723	-0.916015625	-0.09326171875	0.29443359375	19.125	-42.0	-5.9375
18	12	03	11	25	42	0.13311755255	0.356689122926	-0.00402831658335	-0.9287109375	-0.0849609375	0.32177734375	49.0625	-21.25	-11.625
18	12	03	11	25	42	0.124206015951	0.36437833672	-0.0123900841464	-0.9599609375	-0.0126953125	0.318359375	71.4375	3.25	-21.0625
18	12	03	11	25	42	0.113340448699	0.375421163138	-0.0208126510535	-0.92919921875	0.0322265625	0.34033203125	76.625	27.8125	-32.3125
18	12	03	11	25	42	0.101193079372	0.389330912734	-0.0267325505216	-0.91748046875	0.03173828125	0.3671875	68.5	51.1875	-43.75
18	12	03	11	25	42	0.0881336708371	0.406367022461	-0.0290523734892	-0.91650390625	-0.01318359375	0.35498046875	55.5	74.8125	-53.875
18	12	03	11	25	42	0.0750089584467	0.424725257796	-0.0286242485854	-0.8125	-0.11181640625	0.34033203125	46.5625	92.0625	-56.6875
18	12	03	11	25	42	0.0635373066405	0.442380786293	-0.029113636184	-0.76611328125	-0.0947265625	0.38623046875	40.9375	105.0	-55.0625
18	12	03	11	25	42	0.0518190340376	0.462770219168	-0.0278321313559	-0.865234375	0.02880859375	0.4013671875	32.625	124.1875	-62.0625
18	12	03	11	25	42	0.0399771753438	0.485341218831	-0.0236811359289	-0.9921875	0.07763671875	0.38671875	18.5	140.9375	-71.125
18	12	03	11	25	42	0.0286256017983	0.509157292541	-0.0159302389539	-1.08935546875	0.07373046875	0.376953125	-0.1875	152.3125	-78.6875
18	12	03	11	25	42	0.0175171904697	0.533999649546	-0.00616458619319	-1.14208984375	0.01416015625	0.38427734375	-10.25	163.5625	-82.75
18	12	03	11	25	42	0.00531011490271	0.558782780854	0.00244143213918	-1.109375	-0.0947265625	0.35693359375	-0.6875	167.8125	-83.3125
18	12	03	11	25	42	-0.00866686305828	0.582083612583	0.00860582881139	-1.00048828125	-0.134765625	0.3291015625	16.5	163.3125	-83.5625
18	12	03	11	25	42	-0.0239261233401	0.603524254049	0.0125734219593	-0.89111328125	-0.1298828125	0.30615234375	31.0625	155.0	-82.9375
18	12	03	11	25	42	-0.0391838344788	0.622730004964	0.0157467746036	-0.83349609375	-0.1220703125	0.2890625	34.4375	144.0	-80.1875
18	12	03	11	25	42	-0.0534655778395	0.640000056193	0.0189204670437	-0.80908203125	-0.1162109375	0.2841796875	31.5625	133.6875	-76.625
18	12	03	11	25	42	-0.0665286654286	0.655826155991	0.0220338057062	-0.8330078125	-0.11572265625	0.29541015625	27.5625	126.875	-71.1875
18	12	03	11	25	42	-0.0776983022688	0.670597994523	0.0252076974368	-0.9111328125	-0.09716796875	0.29248046875	20.3125	120.875	-64.25
18	12	03	11	25	42	-0.0871607161689	0.683857607813	0.0283211290633	-1.01171875	-0.10693359375	0.298828125	14.6875	111.8125	-57.1875
18	12	03	11	25	42	-0.0955196533742	0.695309834657	0.0308226357533	-1.064453125	-0.13134765625	0.33056640625	13.625	100.25	-49.5625
18	12	03	11	25	42	-0.103086017753	0.702498557929	0.0314934192781	-1.05859375	-0.1455078125	0.36767578125	17.5	87.75	-40.6875
18	12	03	11	25	42	-0.109921663966	0.70768556007	0.0306999427956	-1.02099609375	-0.1455078125	0.40966796875	20.6875	76.125	-31.1875
18	12	03	11	25	42	-0.115481723048	0.711201393737	0.0290535413164	-1.00439453125	-0.1240234375	0.43701171875	19.75	65.1875	-23.625
18	12	03	11	25	42	-0.118712081832	0.713371111803	0.0273434512395	-1.005859375	-0.068359375	0.4580078125	11.1875	54.3125	-17.125
18	12	03	11	25	42	-0.119076490933	0.71439791203	0.0269158034349	-1.01953125	-0.02490234375	0.46484375	-4.5	42.5	-13.5625
18	12	03	11	25	43	-0.116274061347	0.71430726506	0.0282597849887	-1.08447265625	0.01416015625	0.47412109375	-23.375	30.625	-10.875
18	12	03	11	25	43	-0.110655236563	0.713613362328	0.0314326788914	-1.16943359375	0.0419921875	0.4560546875	-41.5625	21.125	-9.75
18	12	03	11	25	43	-0.103271680966	0.712220594082	0.0364380576457	-1.26904296875	-0.009765625	0.42578125	-54.75	11.25	-7.375
18	12	03	11	25	43	-0.0958889346178	0.70955370142	0.0415661136058	-1.34521484375	-0.0966796875	0.39599609375	-53.5625	-0.8125	-2.1875
18	12	03	11	25	43	-0.0893568815053	0.705211344885	0.0448005129951	-1.36865234375	-0.13818359375	0.369140625	-41.0625	-15.6875	5.75
18	12	03	11	25	43	-0.0826416137231	0.699218852889	0.0460815497496	-1.3662109375	-0.119140625	0.314453125	-31.1875	-33.5	14.1875
18	12	03	11	25	43	-0.0741584637933	0.691535304344	0.0469975449554	-1.33740234375	-0.07861328125	0.24951171875	-34.6875	-53.6875	21.75
18	12	03	11	25	43	-0.0629265415495	0.682121269017	0.0492548196221	-1.25830078125	-0.06689453125	0.18408203125	-49.0625	-74.625	29.375
18	12	03	11	25	43	-0.0489509650456	0.670664842794	0.0531624570507	-1.14599609375	-0.0859375	0.14990234375	-64.4375	-95.0625	38.1875
18	12	03	11	25	43	-0.0329590328739	0.65728856485	0.0581055542518	-1.0830078125	-0.05859375	0.14501953125	-75.1875	-110.625	46.5
18	12	03	11	25	43	-0.014709334186	0.642388972233	0.0642083799324	-1.08984375	0.0380859375	0.13330078125	-88.0625	-120.75	50.3125
18	12	03	11	25	43	0.00518810673903	0.625990855477	0.072389348147	-1.15771484375	0.07421875	0.12939453125	-103.375	-129.4375	48.25
18	12	03	11	25	43	0.0252074098036	0.607785440252	0.0822750324824	-1.263671875	0.07470703125	0.1494140625	-111.5625	-138.4375	42.5
18	12	03	11	25	43	0.0435783858019	0.587697866788	0.0919174355989	-1.36474609375	0.00439453125	0.14453125	-104.4375	-149.0	35.75
18	12	03	11	25	43	0.0590814781522	0.565607497972	0.098448785392	-1.3994140625	-0.08935546875	0.15966796875	-80.3125	-161.0	33.4375
18	12	03	11	25	43	0.0715336272348	0.542483685037	0.0996710010874	-1.36767578125	-0.2041015625	0.13720703125	-44.5	-168.625	37.6875
18	12	03	11	25	43	0.0800156844011	0.51811834087	0.0922835353276	-1.25	-0.34130859375	0.11376953125	10.125	-180.25	46.875
18	12	03	11	25	43	0.08581524363	0.492674713074	0.0755613596117	-1.10205078125	-0.3408203125	0.12158203125	63.625	-189.75	60.9375
18	12	03	11	25	43	0.0907576622609	0.466605466029	0.0516348233172	-0.97216796875	-0.24072265625	0.125	100.625	-194.6875	76.3125
18	12	03	11	25	43	0.096617827029	0.439571440469	0.0255124773835	-0.86328125	-0.09033203125	0.123046875	107.0625	-197.1875	85.625
