18	12	12	15	39	41	0.43441720058	-0.347802333695	0.253252348631	-0.76513671875	0.16845703125	0.12158203125	-22.6875	-96.4375	56.4375
18	12	12	15	39	41	0.427322841264	-0.341626330889	0.244698938813	-0.791015625	0.111328125	0.15869140625	-54.75	-84.75	46.6875
18	12	12	15	39	41	0.419573601818	-0.339125826549	0.233408416257	-0.80859375	0.01171875	0.166015625	-72.1875	-73.75	42.6875
18	12	12	15	39	41	0.411822331828	-0.338515881476	0.220529729494	-0.78466796875	-0.11181640625	0.193359375	-77.3125	-65.3125	41.0
18	12	12	15	39	41	0.404682383911	-0.338578157399	0.209055379321	-0.779296875	-0.13623046875	0.279296875	-68.0625	-53.1875	37.6875
18	12	12	15	39	41	0.39882120573	-0.340224885329	0.20111966221	-0.83203125	-0.0908203125	0.31884765625	-51.8125	-35.6875	28.3125
18	12	12	15	39	41	0.394303296187	-0.344191375728	0.195930894855	-0.90087890625	-0.0361328125	0.3349609375	-41.6875	-17.5625	16.125
18	12	12	15	39	41	0.391421245768	-0.350954648864	0.191590720484	-0.951171875	-0.02099609375	0.349609375	-38.8125	-0.9375	0.625
18	12	12	15	39	41	0.390202594484	-0.360050853255	0.187685433762	-0.96044921875	-0.0546875	0.392578125	-35.5625	16.125	-12.5
18	12	12	15	39	41	0.391003005932	-0.371715314724	0.185979731357	-0.98193359375	-0.09912109375	0.43017578125	-22.125	38.625	-25.375
18	12	12	15	39	41	0.394588156073	-0.386165392649	0.188230452178	-1.05810546875	-0.13818359375	0.43212890625	1.4375	64.625	-39.75
18	12	12	15	39	41	0.400353698851	-0.402673174465	0.195690495276	-1.14697265625	-0.1376953125	0.41357421875	29.4375	90.5625	-50.125
18	12	12	15	39	41	0.408332391968	-0.417670935462	0.206424536568	-1.1669921875	-0.12841796875	0.36962890625	50.375	111.5625	-60.5625
18	12	12	15	39	41	0.416586207697	-0.433493809094	0.21906635889	-1.0517578125	-0.171875	0.36328125	60.5	126.3125	-62.5
18	12	12	15	39	41	0.425244057324	-0.449780889683	0.232306427756	-0.92138671875	-0.22119140625	0.3642578125	65.6875	135.25	-66.125
18	12	12	15	39	41	0.434633279289	-0.466188595311	0.245301383157	-0.8515625	-0.24853515625	0.3525390625	67.9375	139.5625	-74.125
18	12	12	15	39	41	0.444412987248	-0.482927558729	0.257028305082	-0.87548828125	-0.21142578125	0.353515625	64.4375	141.4375	-83.3125
18	12	12	15	39	41	0.453628570016	-0.500199963843	0.266610548147	-0.939453125	-0.18701171875	0.32080078125	53.0	140.1875	-90.25
18	12	12	15	39	41	0.461786064116	-0.517937687033	0.273433989855	-1.0224609375	-0.18115234375	0.2783203125	37.5	136.125	-94.875
18	12	12	15	39	41	0.468640547786	-0.536025174611	0.277595364852	-1.0908203125	-0.166015625	0.2255859375	21.5	130.625	-98.125
18	12	12	15	39	41	0.474856182366	-0.553836118096	0.280213975995	-1.1259765625	-0.19189453125	0.18310546875	14.875	126.25	-100.25
18	12	12	15	39	41	0.481946898687	-0.56990098696	0.28351612771	-1.12548828125	-0.23291015625	0.16650390625	25.5625	123.3125	-100.0625
18	12	12	15	39	41	0.490181005731	-0.583077966349	0.288883912355	-1.0302734375	-0.2578125	0.17919921875	45.1875	119.6875	-93.875
18	12	12	15	39	41	0.499941135506	-0.593142223763	0.296388005618	-0.9423828125	-0.27001953125	0.20654296875	66.5625	115.75	-87.875
18	12	12	15	39	41	0.511185236783	-0.600116208722	0.305368327119	-0.88818359375	-0.232421875	0.19482421875	85.4375	108.9375	-83.375
18	12	12	15	39	42	0.522701693875	-0.603755856587	0.31469522812	-0.8603515625	-0.16455078125	0.19677734375	90.9375	99.6875	-78.9375
18	12	12	15	39	42	0.532661798517	-0.606210265025	0.322575639414	-0.84765625	-0.1025390625	0.228515625	78.25	88.4375	-74.0625
18	12	12	15	39	42	0.540588754489	-0.608581965791	0.328552474361	-0.84765625	-0.0732421875	0.2646484375	60.25	79.9375	-69.25
18	12	12	15	39	42	0.546833321833	-0.611044579179	0.333324787424	-0.8935546875	-0.07421875	0.2900390625	45.75	74.75	-65.3125
18	12	12	15	39	42	0.551876375459	-0.613277352423	0.337644338535	-0.92724609375	-0.07666015625	0.3037109375	37.5625	71.0625	-59.4375
18	12	12	15	39	42	0.555992372364	-0.614832711255	0.341933172684	-0.93115234375	-0.07568359375	0.3251953125	32.375	67.25	-51.75
18	12	12	15	39	42	0.559543322844	-0.6156990834	0.346273510472	-0.9296875	-0.087890625	0.3388671875	29.25	63.3125	-44.0
18	12	12	15	39	42	0.562633939943	-0.615796682587	0.350776443139	-0.93359375	-0.10009765625	0.33447265625	27.9375	58.3125	-36.375
18	12	12	15	39	42	0.565076177662	-0.615370276862	0.354927411223	-0.96240234375	-0.12548828125	0.33251953125	22.6875	50.875	-28.75
18	12	12	15	39	42	0.566094807754	-0.614434116405	0.358943780528	-0.98193359375	-0.08349609375	0.34375	13.625	43.8125	-19.375
18	12	12	15	39	42	0.564527191718	-0.614333028937	0.362190978014	-1.0654296875	-0.04345703125	0.328125	-5.5	38.25	-13.0625
18	12	12	15	39	42	0.560195742058	-0.615556118834	0.36402346978	-1.18212890625	-0.08544921875	0.27734375	-27.875	28.8125	-4.625
18	12	12	15	39	42	0.555175373817	-0.616698766166	0.363586158952	-1.2392578125	-0.20068359375	0.26123046875	-41.0	11.875	5.3125
18	12	12	15	39	42	0.551230268681	-0.615563864428	0.362380036005	-1.21630859375	-0.30908203125	0.283203125	-37.25	-5.1875	21.125
18	12	12	15	39	42	0.548353259839	-0.611221008908	0.363168065009	-1.2490234375	-0.3349609375	0.2666015625	-20.625	-15.875	38.5
18	12	12	15	39	42	0.54531222818	-0.604396875245	0.365738848361	-1.33984375	-0.26708984375	0.220703125	-10.4375	-26.625	52.0
18	12	12	15	39	42	0.540903518059	-0.596507569622	0.368353953	-1.54052734375	-0.23193359375	0.16162109375	-15.1875	-40.5	61.25
18	12	12	15	39	42	0.536153219572	-0.587546777277	0.368849488374	-1.5595703125	-0.31591796875	0.125	-23.5	-63.625	74.625
18	12	12	15	39	42	0.531316935512	-0.576727596054	0.366703291046	-1.37744140625	-0.34716796875	0.11572265625	-30.875	-90.8125	89.25
18	12	12	15	39	42	0.525589758692	-0.563676857684	0.362376773586	-1.2119140625	-0.36572265625	0.072265625	-40.6875	-117.375	103.0
18	12	12	15	39	42	0.517514924824	-0.548947898793	0.355528297806	-1.09912109375	-0.3203125	0.04833984375	-59.1875	-139.375	117.875
18	12	12	15	39	42	0.505333699767	-0.534631945435	0.344681652685	-1.103515625	-0.23095703125	-0.0166015625	-93.125	-155.375	127.9375
18	12	12	15	39	42	0.487377212953	-0.52290051138	0.327522370032	-1.171875	-0.1474609375	-0.10205078125	-146.5	-166.4375	131.875
18	12	12	15	39	42	0.46309195102	-0.515034912706	0.302502136451	-1.31591796875	-0.09716796875	-0.2138671875	-207.6875	-173.0	129.125
18	12	12	15	39	42	0.435749229895	-0.508872577341	0.271435330627	-1.48095703125	-0.162109375	-0.2958984375	-242.5625	-178.8125	119.1875
18	12	12	15	39	42	0.409262374374	-0.500514760607	0.237927626444	-1.439453125	-0.22998046875	-0.26904296875	-239.875	-188.1875	107.5625
18	12	12	15	39	42	0.38770356031	-0.486765726303	0.209049857378	-1.27734375	-0.29931640625	-0.14111328125	-187.4375	-192.125	98.4375
18	12	12	15	39	42	0.372882254672	-0.466392749705	0.190927433723	-1.07177734375	-0.42138671875	0.0087890625	-100.75	-188.625	98.625
18	12	12	15	39	42	0.362988788865	-0.4400178542	0.186529971208	-0.88427734375	-0.41845703125	0.1171875	-8.8125	-178.375	111.5625
18	12	12	15	39	42	0.355411050039	-0.409671813131	0.195253297111	-0.74560546875	-0.25830078125	0.19482421875	68.3125	-161.4375	129.3125
18	12	12	15	39	42	0.348032501998	-0.378611997526	0.211981213511	-0.66259765625	-0.041015625	0.20703125	109.5625	-140.125	138.3125
18	12	12	15	39	42	0.339365324232	-0.349863675989	0.229193667714	-0.58984375	0.158203125	0.18701171875	105.375	-121.125	136.0
18	12	12	15	39	42	0.329168329187	-0.325628228484	0.240909956481	-0.51806640625	0.29931640625	0.1728515625	66.75	-105.6875	122.8125
18	12	12	15	39	42	0.317465893658	-0.307760629845	0.246416037819	-0.470703125	0.3564453125	0.15576171875	11.5625	-94.0	99.9375
18	12	12	15	39	42	0.306702782149	-0.295472272315	0.24261563364	-0.4521484375	0.3544921875	0.16015625	-42.875	-83.875	71.875
18	12	12	15	39	42	0.297861579771	-0.288339775171	0.231453096412	-0.45263671875	0.31787109375	0.1826171875	-82.9375	-72.0625	43.0
18	12	12	15	39	42	0.292181162546	-0.284795760276	0.214542884134	-0.490234375	0.2490234375	0.22265625	-100.6875	-55.25	17.0625
18	12	12	15	39	42	0.289618640075	-0.287421322679	0.199833809822	-0.572265625	0.158203125	0.2685546875	-92.4375	-32.25	-7.4375
18	12	12	15	39	42	0.290359714207	-0.293655788322	0.189585300048	-0.6416015625	0.07080078125	0.34814453125	-61.4375	-4.25	-23.4375
18	12	12	15	39	42	0.293825524954	-0.303163976412	0.186036601591	-0.68603515625	0.0048828125	0.4033203125	-20.1875	27.125	-33.0625
18	12	12	15	39	42	0.299882630637	-0.316240974828	0.189158614359	-0.7431640625	-0.01806640625	0.4248046875	17.3125	59.875	-43.25
18	12	12	15	39	42	0.308243625975	-0.333452461129	0.196543460523	-0.84619140625	0.01416015625	0.4306640625	38.0	89.625	-59.0
18	12	12	15	39	42	0.318497929745	-0.352496271422	0.203623820167	-0.95556640625	0.05126953125	0.435546875	36.0	115.0625	-80.6875
18	12	12	15	39	42	0.330017491861	-0.37658737281	0.208862559118	-1.05322265625	0.04736328125	0.45556640625	23.875	141.3125	-102.1875
18	12	12	15	39	42	0.342286866825	-0.405824782011	0.213135830769	-1.12255859375	-0.05126953125	0.47802734375	16.5	172.375	-120.5625
18	12	12	15	39	42	0.355175552073	-0.438674461721	0.219123600609	-1.2626953125	-0.228515625	0.42724609375	25.875	202.125	-130.375
18	12	12	15	39	42	0.369581667566	-0.471819370815	0.228951417843	-1.439453125	-0.298828125	0.33251953125	52.0	219.3125	-136.75
18	12	12	15	39	42	0.384650188511	-0.503182506202	0.241764423467	-1.5078125	-0.275390625	0.22705078125	74.1875	225.6875	-137.3125
18	12	12	15	39	42	0.398558133825	-0.531431190078	0.253844299935	-1.4228515625	-0.25634765625	0.115234375	74.5	213.125	-131.3125
18	12	12	15	39	43	0.411320184644	-0.555975005479	0.261050071186	-1.2861328125	-0.27880859375	0.00244140625	55.9375	181.5	-130.5
18	12	12	15	39	43	0.421699527076	-0.577341992562	0.262211777149	-1.1533203125	-0.30078125	-0.0419921875	26.25	145.5625	-126.1875
18	12	12	15	39	43	0.430175188315	-0.59570230391	0.259765266951	-1.064453125	-0.37451171875	-0.05859375	8.0625	117.0625	-116.5625
18	12	12	15	39	43	0.437446228094	-0.611338275512	0.25720641903	-1.05126953125	-0.41357421875	-0.0654296875	7.0625	101.875	-102.8125
18	12	12	15	39	43	0.443925404528	-0.625572868282	0.256662494987	-1.1025390625	-0.404296875	-0.08251953125	17.125	93.6875	-86.25
18	12	12	15	39	43	0.450688330078	-0.635931976041	0.259646283336	-1.1513671875	-0.36865234375	-0.08447265625	37.25	86.0625	-70.375
18	12	12	15	39	43	0.459610856474	-0.641685117411	0.266183658045	-1.1787109375	-0.35009765625	-0.05419921875	65.8125	77.1875	-58.375
18	12	12	15	39	43	0.471506166456	-0.642163932335	0.276433841797	-1.13623046875	-0.3291015625	-0.00244140625	99.875	66.4375	-45.3125
18	12	12	15	39	43	0.486503207192	-0.637684795978	0.289668074437	-1.0537109375	-0.2568359375	0.03759765625	131.9375	54.75	-33.0
18	12	12	15	39	43	0.502870469485	-0.629335770223	0.304749636381	-0.9716796875	-0.16650390625	0.06640625	151.1875	42.125	-22.25
18	12	12	15	39	43	0.51929594444	-0.617991471257	0.320317949744	-0.89501953125	-0.10888671875	0.0947265625	158.1875	28.8125	-10.6875
18	12	12	15	39	43	0.534933172492	-0.604821178255	0.335340352541	-0.84716796875	-0.07958984375	0.14404296875	155.8125	17.4375	-1.375
18	12	12	15	39	43	0.5491525895	-0.590902102807	0.349316468791	-0.78076171875	-0.0361328125	0.21533203125	146.375	9.75	5.25
18	12	12	15	39	43	0.561174300239	-0.577715330842	0.361644303776	-0.72119140625	0.01513671875	0.2822265625	128.375	6.25	9.0
18	12	12	15	39	43	0.570748490174	-0.564278664491	0.37146565193	-0.68310546875	0.0537109375	0.36181640625	99.4375	5.25	8.0
18	12	12	15	39	43	0.577407982805	-0.55384778393	0.378183917702	-0.67041015625	0.068359375	0.4150390625	67.0625	6.375	4.5625
18	12	12	15	39	43	0.581619822134	-0.547072984132	0.381724248885	-0.6962890625	0.02685546875	0.43505859375	36.6875	8.75	-0.875
18	12	12	15	39	43	0.584166402168	-0.543089817834	0.383239038681	-0.73291015625	-0.03857421875	0.45703125	16.1875	12.8125	-4.375
18	12	12	15	39	43	0.585830218824	-0.540602026268	0.384348081677	-0.75341796875	-0.08544921875	0.47607421875	8.125	19.125	-4.4375
18	12	12	15	39	43	0.587049527911	-0.538769617683	0.386239281828	-0.80126953125	-0.11181640625	0.4716796875	8.875	26.5	-4.8125
18	12	12	15	39	43	0.58784517443	-0.53742879876	0.388865289824	-0.880859375	-0.111328125	0.46484375	9.875	32.5	-5.6875
18	12	12	15	39	43	0.587612587219	-0.536951067806	0.391741724813	-0.97265625	-0.1201171875	0.45263671875	4.0625	36.1875	-5.1875
18	12	12	15	39	43	0.579436456063	-0.541714794855	0.395039791809	-1.25732421875	-0.27587890625	0.31396484375	-29.5	16.4375	8.5625
18	12	12	15	39	43	0.575150479932	-0.542800935799	0.393993032788	-1.31787109375	-0.318359375	0.30859375	-34.125	5.5	19.5625
18	12	12	15	39	43	0.570579594104	-0.542563330337	0.393509482583	-1.39697265625	-0.3203125	0.2431640625	-31.0625	-4.9375	29.3125
18	12	12	15	39	43	0.565553868882	-0.541017644482	0.393189944241	-1.482421875	-0.3095703125	0.189453125	-30.0	-16.75	39.125
18	12	12	15	39	43	0.560440557388	-0.538101062289	0.392161901679	-1.50341796875	-0.3330078125	0.130859375	-31.1875	-33.6875	49.625
18	12	12	15	39	43	0.55542109092	-0.533326317853	0.38873372836	-1.31005859375	-0.35302734375	0.10888671875	-38.25	-59.0625	63.125
18	12	12	15	39	43	0.549884857848	-0.52687380319	0.382215448978	-1.14892578125	-0.32861328125	0.1064453125	-52.125	-85.8125	74.0625
18	12	12	15	39	43	0.542860228335	-0.518140373099	0.372934112337	-1.0537109375	-0.2880859375	0.0927734375	-69.875	-109.0625	84.4375
18	12	12	15	39	43	0.533533174755	-0.509484202	0.360063173308	-1.0341796875	-0.2138671875	0.0908203125	-94.6875	-124.8125	89.875
18	12	12	15	39	43	0.522106298454	-0.502086323484	0.343452436451	-1.08251953125	-0.1513671875	0.08154296875	-119.8125	-133.25	86.1875
18	12	12	15	39	43	0.509666530839	-0.496055077381	0.32350091179	-1.19775390625	-0.08544921875	0.09814453125	-137.6875	-136.25	75.25
18	12	12	15	39	43	0.497151054593	-0.491047297017	0.301220436393	-1.31787109375	-0.0673828125	0.1162109375	-146.0	-135.75	61.9375
18	12	12	15	39	43	0.486093142775	-0.486154179081	0.278813846835	-1.45947265625	-0.09912109375	0.07666015625	-137.5625	-132.375	47.6875
18	12	12	15	39	43	0.476877428015	-0.478281265318	0.258428136467	-1.359375	-0.2275390625	0.0556640625	-112.875	-137.375	48.8125
18	12	12	15	39	43	0.470489911986	-0.465728856831	0.242386538726	-1.181640625	-0.33251953125	0.09033203125	-71.6875	-142.5625	53.6875
18	12	12	15	39	43	0.466928308831	-0.447579776295	0.233525190796	-0.99365234375	-0.38623046875	0.1240234375	-16.6875	-144.125	65.9375
18	12	12	15	39	43	0.465030449291	-0.425052112989	0.231874350552	-0.84814453125	-0.310546875	0.1337890625	30.9375	-140.0625	78.3125
18	12	12	15	39	43	0.462918903472	-0.401025474131	0.234450357099	-0.76806640625	-0.14599609375	0.1142578125	53.0	-132.0	85.5625
18	12	12	15	39	43	0.459556572611	-0.378375772827	0.236706121475	-0.72998046875	0.01806640625	0.11181640625	44.375	-123.25	84.25
18	12	12	15	39	43	0.454286835029	-0.35949878521	0.234681295269	-0.6943359375	0.1494140625	0.11865234375	10.75	-114.9375	76.3125
18	12	12	15	39	43	0.447463811462	-0.345592702291	0.226509098941	-0.6689453125	0.20849609375	0.13037109375	-33.3125	-106.0625	62.9375
18	12	12	15	39	43	0.438617259725	-0.338027050425	0.215097025225	-0.64794921875	0.19580078125	0.1376953125	-73.375	-98.25	48.625
18	12	12	15	39	43	0.43001114387	-0.33412079511	0.199410419734	-0.63623046875	0.111328125	0.15771484375	-96.4375	-89.9375	36.3125
18	12	12	15	39	43	0.422556754962	-0.332283543842	0.182682705128	-0.6357421875	0.00390625	0.205078125	-97.75	-79.0625	26.8125
18	12	12	15	39	43	0.416647802467	-0.33162137574	0.168954163086	-0.6689453125	-0.07421875	0.2578125	-77.125	-63.3125	21.625
18	12	12	15	39	43	0.412368793352	-0.331494215023	0.160955670229	-0.6943359375	-0.0947265625	0.28955078125	-44.6875	-44.25	18.625
18	12	12	15	39	44	0.410121636323	-0.331991602912	0.158579552191	-0.72412109375	-0.08935546875	0.302734375	-13.5625	-26.0	13.0625
18	12	12	15	39	44	0.409745059862	-0.333203974644	0.16095601413	-0.75537109375	-0.05029296875	0.36083984375	10.75	-7.9375	5.625
18	12	12	15	39	44	0.411768426807	-0.33687369516	0.166575161096	-0.83056640625	0.00390625	0.3828125	25.0	12.5625	-11.25
18	12	12	15	39	44	0.415656139765	-0.343755562284	0.173220576307	-0.904296875	0.025390625	0.44140625	27.5625	33.875	-28.1875
18	12	12	15	39	44	0.420543801115	-0.354501944394	0.180302814005	-0.92724609375	0.0166015625	0.4853515625	24.6875	59.8125	-41.375
18	12	12	15	39	44	0.427205500649	-0.369524517921	0.187692086654	-0.95751953125	-0.09521484375	0.48876953125	28.0	87.0625	-56.625
18	12	12	15	39	44	0.434947601611	-0.384958535414	0.196782355823	-0.95703125	-0.18603515625	0.525390625	37.125	110.5	-64.1875
18	12	12	15	39	44	0.444405578235	-0.401435996162	0.210148112329	-0.998046875	-0.2119140625	0.51123046875	61.4375	131.875	-72.3125
18	12	12	15	39	44	0.456975470079	-0.418461843577	0.22680924894	-1.1171875	-0.181640625	0.4169921875	86.4375	147.25	-90.5625
18	12	12	15	39	44	0.470587107213	-0.435369369099	0.245913807388	-1.16357421875	-0.1728515625	0.3525390625	103.375	158.75	-97.5
18	12	12	15	39	44	0.483467603597	-0.451911897113	0.265446358799	-1.0966796875	-0.21630859375	0.2978515625	106.75	164.125	-96.1875
18	12	12	15	39	44	0.49573685515	-0.468087409769	0.283147410864	-1.041015625	-0.23779296875	0.2060546875	99.875	160.5625	-99.75
18	12	12	15	39	44	0.507441682258	-0.483271979807	0.298398169901	-1.08837890625	-0.2587890625	0.12255859375	91.625	149.25	-102.1875
18	12	12	15	39	44	0.517300333948	-0.496913512528	0.310502277144	-1.1201171875	-0.31494140625	0.09326171875	75.375	131.4375	-94.375
18	12	12	15	39	44	0.525035546241	-0.50904399624	0.320746546791	-1.11083984375	-0.35986328125	0.11572265625	62.9375	118.625	-82.0
18	12	12	15	39	44	0.531210398882	-0.519857401733	0.330457669717	-1.1748046875	-0.361328125	0.1328125	57.1875	111.5	-71.1875
18	12	12	15	39	44	0.535476756088	-0.529678250237	0.338876889297	-1.259765625	-0.30224609375	0.09375	45.75	100.5	-61.4375
18	12	12	15	39	44	0.53744037176	-0.539271514424	0.345597658706	-1.2421875	-0.279296875	0.07275390625	30.125	83.0625	-50.0625
18	12	12	15	39	44	0.539083993664	-0.546591617217	0.35029472822	-1.14404296875	-0.29638671875	0.11767578125	22.5625	66.4375	-39.1875
18	12	12	15	39	44	0.541389080445	-0.551154836124	0.354863146979	-1.02099609375	-0.279296875	0.16357421875	27.5625	56.25	-30.125
18	12	12	15	39	44	0.544258088491	-0.553047273726	0.360417630654	-0.9189453125	-0.21923828125	0.19140625	36.625	49.375	-22.0
18	12	12	15	39	44	0.54761011265	-0.552798126424	0.366639985142	-0.8466796875	-0.1591796875	0.20947265625	43.6875	43.25	-16.75
18	12	12	15	39	44	0.551095551401	-0.551461768403	0.372320618402	-0.79150390625	-0.0791015625	0.24609375	41.9375	37.375	-17.4375
18	12	12	15	39	44	0.554760139476	-0.549938261269	0.376655828001	-0.765625	-0.04345703125	0.2890625	36.5	32.9375	-20.6875
18	12	12	15	39	44	0.558544657384	-0.548717787115	0.37989093515	-0.775390625	-0.033203125	0.3359375	31.0625	32.3125	-25.6875
18	12	12	15	39	44	0.56247071264	-0.547882486887	0.382589954078	-0.79248046875	-0.03515625	0.3740234375	28.9375	34.75	-30.125
18	12	12	15	39	44	0.566870382293	-0.546849548289	0.385278976314	-0.77978515625	-0.04638671875	0.4091796875	31.25	37.375	-31.625
18	12	12	15	39	44	0.572144107787	-0.545410683506	0.388245004228	-0.77685546875	-0.072265625	0.44287109375	37.375	40.25	-33.6875
18	12	12	15	39	44	0.578214254531	-0.54330044121	0.391986904106	-0.81103515625	-0.10302734375	0.45556640625	46.5625	43.4375	-34.6875
18	12	12	15	39	44	0.584664598116	-0.540535513197	0.396856583876	-0.84423828125	-0.103515625	0.44873046875	54.875	46.6875	-34.75
18	12	12	15	39	44	0.590829518302	-0.537667068876	0.402288982968	-0.91162109375	-0.10009765625	0.42578125	56.5	48.375	-34.875
18	12	12	15	39	44	0.595376260676	-0.535557854334	0.40768075098	-1.0126953125	-0.0673828125	0.39306640625	47.375	48.25	-34.0
18	12	12	15	39	44	0.597412541129	-0.535278707162	0.411987602434	-1.14501953125	-0.0625	0.34033203125	26.625	45.0625	-32.25
18	12	12	15	39	44	0.596878890555	-0.537001787412	0.414073667402	-1.2451171875	-0.09619140625	0.29296875	0.0625	35.75	-26.5625
18	12	12	15	39	44	0.594511618249	-0.539882470576	0.41353349216	-1.25146484375	-0.1923828125	0.259765625	-23.25	21.3125	-14.4375
18	12	12	15	39	44	0.591156995345	-0.542082114162	0.411643033206	-1.212890625	-0.25537109375	0.2548828125	-35.125	6.375	2.1875
18	12	12	15	39	44	0.586700820952	-0.54311942414	0.409140200046	-1.1943359375	-0.2353515625	0.2265625	-43.375	-8.375	17.3125
18	12	12	15	39	44	0.579295649282	-0.544321841776	0.405464229078	-1.2626953125	-0.15673828125	0.2275390625	-66.875	-19.8125	29.875
18	12	12	15	39	44	0.568503693671	-0.548849604197	0.398269980803	-1.4677734375	-0.14697265625	0.16064453125	-101.4375	-31.5625	39.0625
18	12	12	15	39	44	0.55652818492	-0.553171193236	0.387152695432	-1.54638671875	-0.265625	0.08837890625	-123.5	-56.0625	44.875
18	12	12	15	39	44	0.546589563544	-0.553669897366	0.374097982687	-1.3994140625	-0.3837890625	0.11962890625	-114.5625	-84.1875	51.5
18	12	12	15	39	44	0.539880222832	-0.54836449089	0.36219889681	-1.1611328125	-0.4609375	0.13134765625	-84.25	-106.0625	63.0625
18	12	12	15	39	44	0.53493078995	-0.538104728914	0.351941001238	-0.95654296875	-0.44287109375	0.1357421875	-59.75	-122.5	76.9375
18	12	12	15	39	44	0.529927346323	-0.524922273483	0.342908527026	-0.87353515625	-0.31787109375	0.158203125	-49.0	-130.375	87.4375
18	12	12	15	39	44	0.523773046218	-0.511565307115	0.333088161428	-0.904296875	-0.185546875	0.1611328125	-55.125	-132.25	88.125
18	12	12	15	39	44	0.516376696277	-0.500018663818	0.320568606247	-1.0048828125	-0.07958984375	0.1611328125	-73.25	-132.0	78.0
18	12	12	15	39	44	0.508448737254	-0.490625564231	0.305435471935	-1.1689453125	0.0	0.173828125	-87.75	-128.8125	63.125
18	12	12	15	39	44	0.500915830578	-0.482422167039	0.289001639794	-1.33154296875	0.0498046875	0.1416015625	-92.4375	-126.0	49.5625
18	12	12	15	39	44	0.493852195761	-0.474198208982	0.271798767486	-1.353515625	0.0263671875	0.11474609375	-91.3125	-127.1875	42.875
18	12	12	15	39	44	0.487742514906	-0.46412139699	0.256109071774	-1.21923828125	-0.0830078125	0.11962890625	-75.6875	-128.5	45.0
18	12	12	15	39	45	0.483226828891	-0.451182609469	0.244207470304	-1.06640625	-0.193359375	0.142578125	-44.9375	-126.8125	50.875
18	12	12	15	39	45	0.480475876588	-0.435004010727	0.237552351585	-0.94775390625	-0.234375	0.1416015625	-7.25	-122.9375	58.0
18	12	12	15	39	45	0.478531945626	-0.416457074618	0.235847887487	-0.83447265625	-0.185546875	0.1357421875	23.5625	-116.25	65.9375
18	12	12	15	39	45	0.47646068501	-0.397416797348	0.236582323225	-0.75537109375	-0.06396484375	0.12646484375	35.25	-108.9375	68.1875
18	12	12	15	39	45	0.473447672573	-0.38006428479	0.2360829699	-0.705078125	0.0595703125	0.1171875	23.1875	-102.3125	64.625
18	12	12	15	39	45	0.467718825703	-0.367863938733	0.234195110821	-0.66845703125	0.14990234375	0.1083984375	-7.625	-95.375	56.9375
18	12	12	15	39	45	0.460468629534	-0.360000527173	0.227121390575	-0.65380859375	0.16796875	0.119140625	-45.875	-88.1875	47.0
18	12	12	15	39	45	0.45239833267	-0.356144666909	0.215273734394	-0.6513671875	0.11376953125	0.146484375	-76.8125	-80.125	37.3125
18	12	12	15	39	45	0.444516681585	-0.355283757175	0.201231841162	-0.6611328125	0.03564453125	0.19091796875	-89.5	-69.0	28.875
18	12	12	15	39	45	0.437572454047	-0.356454614539	0.188115260618	-0.697265625	-0.033203125	0.23095703125	-83.0	-54.0	21.625
18	12	12	15	39	45	0.432504241531	-0.35877221729	0.179019889982	-0.75439453125	-0.07958984375	0.26953125	-58.875	-36.5	14.6875
18	12	12	15	39	45	0.429878563811	-0.361578959537	0.175540359154	-0.82080078125	-0.11328125	0.2822265625	-24.5	-19.1875	8.6875
18	12	12	15	39	45	0.429932849853	-0.364564013653	0.177979016208	-0.896484375	-0.1064453125	0.3125	10.25	-2.1875	1.125
18	12	12	15	39	45	0.431969398097	-0.368550406346	0.185190780532	-0.951171875	-0.0849609375	0.3310546875	35.9375	16.8125	-6.8125
18	12	12	15	39	45	0.435261128965	-0.374528437433	0.195504332643	-0.99951171875	-0.0556640625	0.35595703125	49.0	38.375	-15.5625
18	12	12	15	39	45	0.43958415214	-0.383796882624	0.207523759688	-1.07568359375	-0.03662109375	0.37060546875	53.0625	62.125	-28.1875
18	12	12	15	39	45	0.444903115163	-0.396683405878	0.220284722544	-1.1572265625	-0.04541015625	0.38916015625	53.375	86.3125	-42.6875
18	12	12	15	39	45	0.451986980944	-0.410175896279	0.232494045971	-1.2529296875	-0.10205078125	0.40380859375	55.3125	109.4375	-57.3125
18	12	12	15	39	45	0.459499654217	-0.42586730705	0.245741977667	-1.27392578125	-0.1982421875	0.38427734375	59.5625	128.0	-65.75
18	12	12	15	39	45	0.466250471415	-0.441347972091	0.260865887528	-1.14013671875	-0.296875	0.38037109375	68.3125	137.9375	-59.25
18	12	12	15	39	45	0.473038554557	-0.456131241059	0.27643762756	-1.01708984375	-0.32861328125	0.361328125	73.6875	140.4375	-59.25
18	12	12	15	39	45	0.479671766502	-0.470211386834	0.29144072847	-0.95263671875	-0.30517578125	0.33642578125	73.4375	138.4375	-60.25
18	12	12	15	39	45	0.485040949732	-0.484308536067	0.304317877861	-0.95947265625	-0.24853515625	0.31298828125	59.625	133.5	-61.0
18	12	12	15	39	45	0.48872261167	-0.499037851007	0.313180432182	-1.03515625	-0.23095703125	0.2236328125	35.375	122.25	-62.75
18	12	12	15	39	45	0.490114093079	-0.514100997012	0.31689568758	-1.10302734375	-0.22607421875	0.16357421875	3.0	103.625	-61.875
18	12	12	15	39	45	0.48933366905	-0.530838832447	0.316110648873	-1.15771484375	-0.22900390625	0.1416015625	-26.1875	87.9375	-61.6875
18	12	12	15	39	45	0.488597956689	-0.546643760164	0.313728107106	-1.16796875	-0.30322265625	0.12939453125	-29.625	79.375	-59.4375
18	12	12	15	39	45	0.489831304886	-0.559292741018	0.313064767945	-1.10791015625	-0.38037109375	0.134765625	-8.5625	73.75	-51.6875
18	12	12	15	39	45	0.49361404105	-0.567469981408	0.315993556389	-0.99755859375	-0.39306640625	0.1474609375	24.0	68.375	-40.6875
18	12	12	15	39	45	0.499656784914	-0.571437432246	0.322158381478	-0.9052734375	-0.33447265625	0.15771484375	53.0625	62.625	-33.1875
18	12	12	15	39	45	0.506961835979	-0.572208910703	0.330202688736	-0.84375	-0.2490234375	0.16552734375	69.6875	55.0625	-29.0
18	12	12	15	39	45	0.514417227633	-0.570998239737	0.338387412197	-0.818359375	-0.166015625	0.1787109375	72.75	46.4375	-26.875
18	12	12	15	39	45	0.521323306786	-0.569115854405	0.345656701362	-0.8056640625	-0.0908203125	0.2080078125	66.0	40.1875	-27.8125
18	12	12	15	39	45	0.527167123314	-0.56775600105	0.351444748876	-0.81640625	-0.0380859375	0.2353515625	53.5	37.8125	-30.9375
18	12	12	15	39	45	0.531929517252	-0.567025268534	0.356023508219	-0.83056640625	0.001953125	0.28857421875	40.875	38.9375	-33.4375
18	12	12	15	39	45	0.535838857225	-0.567089511616	0.359748744104	-0.8271484375	0.0166015625	0.3330078125	31.6875	42.5625	-35.0
18	12	12	15	39	45	0.546162138223	-0.569356328268	0.370557704643	-0.82666015625	-0.04150390625	0.4150390625	28.125	54.6875	-33.75
18	12	12	15	39	45	0.551590386667	-0.574906479144	0.381358496835	-0.9443359375	-0.03466796875	0.35986328125	6.5	58.5625	-33.125
18	12	12	15	39	45	0.549623139162	-0.579408379796	0.382996690532	-1.07763671875	-0.04931640625	0.3271484375	-12.5625	56.1875	-31.875
18	12	12	15	39	45	0.545862435254	-0.584926726718	0.383135246124	-1.20751953125	-0.10986328125	0.28076171875	-29.625	49.1875	-26.625
18	12	12	15	39	45	0.541031083082	-0.590287861516	0.381846847446	-1.29638671875	-0.20751953125	0.2470703125	-40.9375	36.25	-16.0625
18	12	12	15	39	46	0.53582878349	-0.593934376596	0.380432943102	-1.40869140625	-0.27392578125	0.21484375	-42.5	22.1875	-0.875
18	12	12	15	39	46	0.530028197075	-0.595457748809	0.379210638925	-1.48046875	-0.27001953125	0.18359375	-43.75	5.8125	14.75
18	12	12	15	39	46	0.52314520347	-0.59553468093	0.377328625347	-1.5771484375	-0.27294921875	0.11962890625	-50.5625	-14.0	28.375
18	12	12	15	39	46	0.516370543123	-0.593704051177	0.373117391266	-1.51708984375	-0.3369140625	0.0595703125	-57.4375	-44.1875	43.0625
18	12	12	15	39	46	0.495635054251	-0.573032252378	0.346151033579	-0.98876953125	-0.28955078125	0.0908203125	-80.125	-122.75	76.3125
18	12	12	15	39	46	0.486469885715	-0.563438333129	0.332838179022	-0.97119140625	-0.17919921875	0.10302734375	-95.5625	-134.75	77.375
18	12	12	15	39	46	0.475778912762	-0.554637970528	0.315985558867	-1.02197265625	-0.08740234375	0.1181640625	-115.9375	-141.8125	69.75
18	12	12	15	39	46	0.464748366194	-0.546906404137	0.295915429381	-1.166015625	-0.03369140625	0.10302734375	-129.6875	-144.8125	55.3125
18	12	12	15	39	46	0.454590272201	-0.539246113708	0.273742933784	-1.3193359375	-0.04443359375	0.080078125	-131.25	-148.4375	40.6875
18	12	12	15	39	46	0.446481798431	-0.529857620257	0.251897523189	-1.37841796875	-0.11669921875	0.07373046875	-116.125	-152.625	32.875
18	12	12	15	39	46	0.441228478384	-0.516912987056	0.233767474368	-1.31298828125	-0.259765625	0.0908203125	-79.9375	-155.5	35.6875
18	12	12	15	39	46	0.439416561354	-0.498684998787	0.222729689177	-1.13916015625	-0.365234375	0.11328125	-25.1875	-157.125	47.5625
18	12	12	15	39	46	0.440313825755	-0.475775751561	0.219973804827	-1.02392578125	-0.34130859375	0.134765625	31.3125	-152.75	61.0
18	12	12	15	39	46	0.442937479293	-0.449407284006	0.224184836908	-0.94189453125	-0.2294921875	0.10400390625	75.625	-147.0	70.625
18	12	12	15	39	46	0.445088690443	-0.421772195689	0.231211733324	-0.84765625	-0.1005859375	0.08447265625	90.375	-142.0	77.75
18	12	12	15	39	46	0.445756844518	-0.395095721562	0.237191715432	-0.76708984375	0.02587890625	0.09814453125	79.375	-136.5625	77.5625
18	12	12	15	39	46	0.44429611916	-0.371538738471	0.239757543078	-0.7119140625	0.1484375	0.0888671875	50.9375	-127.875	72.625
18	12	12	15	39	46	0.440250792091	-0.352481398076	0.236696599435	-0.6884765625	0.2275390625	0.0947265625	7.3125	-119.3125	65.6875
18	12	12	15	39	46	0.434153759639	-0.338387240748	0.227178446981	-0.6767578125	0.234375	0.10546875	-38.875	-110.875	56.0625
18	12	12	15	39	46	0.42719380195	-0.328558970695	0.212833945906	-0.685546875	0.17333984375	0.12841796875	-72.25	-100.8125	44.9375
18	12	12	15	39	46	0.419641765718	-0.32466538936	0.198437146232	-0.71533203125	0.076171875	0.1640625	-85.875	-89.0	34.3125
18	12	12	15	39	46	0.41316416924	-0.32288941576	0.185005258822	-0.7548828125	-0.01123046875	0.21044921875	-78.1875	-74.3125	27.6875
18	12	12	15	39	46	0.408103183295	-0.322222061713	0.175668704984	-0.7763671875	-0.06298828125	0.2685546875	-53.5	-55.625	23.8125
18	12	12	15	39	46	0.404922109227	-0.322887844108	0.172247541791	-0.82861328125	-0.060546875	0.30712890625	-22.3125	-33.1875	17.375
18	12	12	15	39	46	0.403284078153	-0.325093234485	0.174205049046	-0.86962890625	-0.048828125	0.3349609375	5.125	-10.5	12.375
18	12	12	15	39	46	0.402907290378	-0.329418367849	0.17957176917	-0.90771484375	-0.0361328125	0.37353515625	20.1875	10.8125	5.0
18	12	12	15	39	46	0.403398833606	-0.336562440385	0.186287371791	-0.92431640625	-0.0283203125	0.41259765625	24.0	32.5	-3.75
18	12	12	15	39	46	0.404673604088	-0.347115955723	0.193608547838	-0.94970703125	-0.03564453125	0.41650390625	22.5625	54.25	-14.625
18	12	12	15	39	46	0.407588049773	-0.360835661913	0.200131957952	-0.99072265625	-0.087890625	0.42041015625	19.625	70.5	-29.875
18	12	12	15	39	46	0.412177425059	-0.375799852819	0.206912701162	-1.00439453125	-0.15087890625	0.453125	25.9375	82.8125	-40.3125
18	12	12	15	39	46	0.418713050911	-0.390025713604	0.215704361796	-1.10205078125	-0.17626953125	0.45361328125	37.8125	100.25	-55.0625
18	12	12	15	39	46	0.425424247018	-0.406380866089	0.227299841592	-1.1142578125	-0.2041015625	0.43408203125	49.375	122.8125	-58.375
18	12	12	15	39	46	0.430432052405	-0.423656959124	0.241339809304	-0.97412109375	-0.27490234375	0.404296875	55.8125	139.75	-48.1875
18	12	12	15	39	46	0.43544290016	-0.441485631744	0.255747932671	-0.86962890625	-0.29443359375	0.38818359375	58.3125	148.5	-51.5
18	12	12	15	39	46	0.441040803882	-0.459778629344	0.270019999498	-0.88330078125	-0.2236328125	0.38720703125	59.6875	154.5	-60.4375
18	12	12	15	39	46	0.446537168049	-0.478764016699	0.282229068488	-0.95654296875	-0.15673828125	0.35205078125	49.75	154.5	-70.625
18	12	12	15	39	46	0.45070287075	-0.498739593296	0.290173543817	-1.041015625	-0.10595703125	0.29150390625	24.8125	147.9375	-77.875
18	12	12	15	39	46	0.45297258446	-0.519749569691	0.293232757815	-1.171875	-0.1083984375	0.2236328125	-4.125	137.625	-83.5625
18	12	12	15	39	46	0.452715506318	-0.540853728123	0.291454299942	-1.24169921875	-0.1611328125	0.16259765625	-34.875	121.375	-81.1875
18	12	12	15	39	46	0.450592700103	-0.56015838646	0.287678595988	-1.19189453125	-0.2890625	0.12744140625	-47.5	104.8125	-69.25
18	12	12	15	39	46	0.450626652159	-0.576848501904	0.284853661875	-1.10009765625	-0.427734375	0.14697265625	-26.5625	94.375	-56.1875
18	12	12	15	39	46	0.453867225165	-0.588147469297	0.286993503594	-0.9921875	-0.45556640625	0.16552734375	14.6875	88.1875	-41.375
18	12	12	15	39	46	0.459975182388	-0.59419564763	0.2943206382	-0.8994140625	-0.37451171875	0.1689453125	54.5625	81.875	-30.4375
18	12	12	15	39	46	0.46741781881	-0.596571136204	0.304267148964	-0.8408203125	-0.24560546875	0.16796875	74.9375	72.625	-26.3125
18	12	12	15	39	46	0.474747923401	-0.597005584827	0.313792629751	-0.814453125	-0.134765625	0.16943359375	73.9375	60.5	-26.3125
18	12	12	15	39	46	0.480719217629	-0.597053756583	0.321232255254	-0.81591796875	-0.06103515625	0.19580078125	58.5	50.3125	-27.4375
18	12	12	15	39	46	0.485121719901	-0.597612828328	0.32642563639	-0.84130859375	-0.02490234375	0.23291015625	40.25	45.4375	-29.5625
18	12	12	15	39	46	0.48811150782	-0.599015423002	0.330087161972	-0.86572265625	0.001953125	0.27392578125	25.5	45.5	-31.0625
18	12	12	15	39	46	0.490419111941	-0.600893112266	0.333130991036	-0.8955078125	-0.0029296875	0.30810546875	18.375	48.5625	-31.5625
18	12	12	15	39	46	0.492868097484	-0.602733431907	0.336126887039	-0.92578125	-0.03662109375	0.34326171875	18.875	51.1875	-31.3125
18	12	12	15	39	46	0.495852325681	-0.603946179544	0.339784576202	-0.9599609375	-0.056640625	0.35693359375	24.4375	52.375	-29.375
18	12	12	15	39	46	0.499464551214	-0.604264824272	0.343698507624	-0.98681640625	-0.09228515625	0.3701171875	29.4375	50.3125	-27.125
18	12	12	15	39	46	0.503441260687	-0.603787700135	0.347733373197	-1.0	-0.119140625	0.3857421875	32.6875	47.4375	-23.5
18	12	12	15	39	46	0.507034514781	-0.602984708261	0.352183598205	-1.0576171875	-0.1044921875	0.3564453125	32.625	45.6875	-22.0625
18	12	12	15	39	47	0.509594825984	-0.60261465049	0.355904591007	-1.15380859375	-0.13330078125	0.31103515625	24.875	40.4375	-19.5
18	12	12	15	39	47	0.510818754755	-0.602374272993	0.358226224359	-1.203125	-0.15966796875	0.29541015625	11.625	31.3125	-13.6875
18	12	12	15	39	47	0.510817299869	-0.602067373152	0.359506977683	-1.259765625	-0.19482421875	0.28125	0.875	22.625	-6.0625
18	12	12	15	39	47	0.51002836225	-0.601035098502	0.360486776861	-1.328125	-0.21533203125	0.24853515625	-4.1875	12.3125	2.625
18	12	12	15	39	47	0.507819642449	-0.59931262851	0.36072284698	-1.3798828125	-0.18994140625	0.21630859375	-13.8125	-1.1875	11.3125
18	12	12	15	39	47	0.504380449554	-0.59733439736	0.359609100771	-1.49853515625	-0.197265625	0.16943359375	-25.5	-15.6875	17.75
18	12	12	15	39	47	0.500733861017	-0.594239989135	0.35644633695	-1.39697265625	-0.27783203125	0.1181640625	-33.0	-38.4375	29.9375
18	12	12	15	39	47	0.497026043559	-0.589253275761	0.350963987531	-1.19921875	-0.29541015625	0.12451171875	-41.75	-63.3125	41.5
18	12	12	15	39	47	0.492881422931	-0.582302015451	0.343643642242	-1.05322265625	-0.255859375	0.11767578125	-48.9375	-86.125	50.625
18	12	12	15	39	47	0.48071514167	-0.565737512461	0.323304736596	-0.99609375	-0.09912109375	0.12109375	-75.375	-113.625	56.375
18	12	12	15	39	47	0.472421424654	-0.558482691936	0.308660871379	-1.072265625	-0.017578125	0.1201171875	-95.625	-119.5625	49.6875
18	12	12	15	39	47	0.463335033601	-0.552632774895	0.290721217895	-1.220703125	0.01953125	0.109375	-112.8125	-122.5625	37.625
18	12	12	15	39	47	0.454527051855	-0.546872886347	0.27105608128	-1.30810546875	-0.03466796875	0.08935546875	-116.5	-125.9375	29.125
18	12	12	15	39	47	0.447273228872	-0.539254773073	0.252201553179	-1.27685546875	-0.14794921875	0.09814453125	-101.75	-129.4375	28.125
18	12	12	15	39	47	0.442883767412	-0.528030246952	0.237433552265	-1.19189453125	-0.2744140625	0.11083984375	-64.75	-132.3125	32.75
18	12	12	15	39	47	0.441474756736	-0.511971555302	0.22974021628	-1.06005859375	-0.33984375	0.109375	-13.125	-133.0625	46.625
18	12	12	15	39	47	0.442144574358	-0.491705782858	0.228945927446	-0.9931640625	-0.29931640625	0.10595703125	33.4375	-131.1875	60.375
18	12	12	15	39	47	0.443379060585	-0.468770812953	0.233042573419	-0.93994140625	-0.19482421875	0.07861328125	62.3125	-128.6875	71.75
18	12	12	15	39	47	0.443560258071	-0.445269310943	0.237985612525	-0.87646484375	-0.08642578125	0.07373046875	64.3125	-126.875	77.25
18	12	12	15	39	47	0.44167057214	-0.423053998826	0.240611580345	-0.810546875	0.02197265625	0.08349609375	44.625	-124.625	78.0
18	12	12	15	39	47	0.437153655882	-0.403887983939	0.238963496618	-0.76123046875	0.1123046875	0.08984375	10.875	-119.5625	75.0
18	12	12	15	39	47	0.430019214444	-0.388634824467	0.23176479166	-0.73486328125	0.1689453125	0.1044921875	-30.5625	-114.0625	68.5
18	12	12	15	39	47	0.421102006728	-0.37715455857	0.218821668955	-0.71337890625	0.16259765625	0.13330078125	-70.0625	-108.625	59.3125
18	12	12	15	39	47	0.411515560402	-0.368728196438	0.201790335611	-0.71044921875	0.10595703125	0.16162109375	-95.75	-102.0625	48.625
18	12	12	15	39	47	0.402477690062	-0.362254335838	0.183660201607	-0.744140625	0.02490234375	0.2001953125	-101.75	-93.25	38.375
18	12	12	15	39	47	0.394782274931	-0.359564375637	0.168337896453	-0.7880859375	-0.06982421875	0.23095703125	-87.1875	-82.625	29.625
18	12	12	15	39	47	0.389240539691	-0.357073413391	0.157417492843	-0.8291015625	-0.12255859375	0.28076171875	-57.4375	-69.5	25.0625
18	12	12	15	39	47	0.385503272921	-0.354985281081	0.152284779281	-0.85498046875	-0.09716796875	0.3291015625	-26.5625	-50.875	21.1875
18	12	12	15	39	47	0.383801950696	-0.354992389512	0.152104717102	-0.9169921875	-0.08349609375	0.3359375	-1.1875	-29.0	12.625
18	12	12	15	39	47	0.383741117215	-0.357373030268	0.1547293991	-0.95849609375	-0.099609375	0.3603515625	13.0625	-8.4375	4.0
18	12	12	15	39	47	0.384417915398	-0.362139011124	0.159309425086	-0.94189453125	-0.10302734375	0.4072265625	20.25	13.9375	-0.625
18	12	12	15	39	47	0.386729804502	-0.369761546034	0.165471038511	-0.94482421875	-0.13818359375	0.41796875	28.6875	36.8125	-11.75
18	12	12	15	39	47	0.390811735012	-0.379581161962	0.173951810836	-0.95849609375	-0.14599609375	0.4453125	41.125	58.5625	-21.6875
18	12	12	15	39	47	0.397524463528	-0.391909193968	0.185609073175	-1.0498046875	-0.142578125	0.45068359375	59.5	81.0625	-38.0625
18	12	12	15	39	47	0.406268033352	-0.404070670191	0.199532782606	-1.14111328125	-0.10693359375	0.4375	71.75	104.125	-52.375
18	12	12	15	39	47	0.413834907062	-0.418839990008	0.214608190742	-1.05419921875	-0.123046875	0.423828125	70.8125	125.75	-51.5625
18	12	12	15	39	47	0.420607863787	-0.435073698022	0.228767707658	-0.93798828125	-0.1787109375	0.37109375	63.1875	134.875	-53.375
18	12	12	15	39	47	0.427560294353	-0.451486580632	0.240910846797	-0.884765625	-0.20654296875	0.33984375	55.125	132.9375	-61.0625
18	12	12	15	39	47	0.43434914108	-0.467981290706	0.250928796934	-0.88671875	-0.20751953125	0.3369140625	45.5	129.9375	-66.5
18	12	12	15	39	47	0.440258426924	-0.484693216166	0.25934535644	-0.91552734375	-0.21484375	0.3037109375	36.125	128.0	-67.6875
18	12	12	15	39	47	0.445692755932	-0.501053387215	0.266548927027	-0.9921875	-0.2490234375	0.2265625	30.3125	122.9375	-68.3125
18	12	12	15	39	47	0.450943746591	-0.516192645496	0.272592687098	-1.0908203125	-0.271484375	0.16943359375	27.75	113.375	-67.625
18	12	12	15	39	47	0.456112618316	-0.529171203105	0.278257383501	-1.12255859375	-0.28662109375	0.13720703125	29.75	100.8125	-62.625
18	12	12	15	39	47	0.46241444537	-0.541090820777	0.284492308589	-1.0849609375	-0.33837890625	0.109375	43.5	90.6875	-55.75
18	12	12	15	39	47	0.470845277691	-0.548912572243	0.292798132886	-0.990234375	-0.38818359375	0.12890625	68.25	81.4375	-46.875
18	12	12	15	39	47	0.480781895134	-0.552499392504	0.303960116512	-0.9013671875	-0.34375	0.150390625	92.1875	74.4375	-37.1875
18	12	12	15	39	47	0.490436333827	-0.552938736545	0.317150863792	-0.84619140625	-0.2333984375	0.15478515625	102.0	68.25	-32.5
18	12	12	15	39	47	0.499399511489	-0.552501146174	0.329047025964	-0.8388671875	-0.12646484375	0.1630859375	94.625	60.0	-32.0
18	12	12	15	39	47	0.506314134418	-0.55233714314	0.337908987117	-0.82861328125	-0.0478515625	0.2158203125	70.125	52.0625	-33.25
18	12	12	15	39	48	0.511347081506	-0.553399855338	0.343807365735	-0.84326171875	-0.009765625	0.2587890625	46.5625	48.6875	-36.25
18	12	12	15	39	48	0.514910956658	-0.555867008332	0.347485547209	-0.86474609375	0.0068359375	0.30517578125	27.625	49.375	-39.875
18	12	12	15	39	48	0.517460429599	-0.559208829439	0.349917509188	-0.87353515625	0.0126953125	0.36376953125	15.5625	53.0	-41.6875
18	12	12	15	39	48	0.519749570659	-0.563148507211	0.351952557184	-0.892578125	0.00244140625	0.4091796875	11.0625	58.75	-44.0
18	12	12	15	39	48	0.522109864801	-0.567460300802	0.354136244514	-0.92431640625	-0.03271484375	0.435546875	11.8125	64.75	-45.6875
18	12	12	15	39	48	0.524913549607	-0.571606440938	0.356880177273	-0.9638671875	-0.06640625	0.43505859375	17.0	68.375	-46.3125
18	12	12	15	39	48	0.52851798495	-0.575150129597	0.360117347408	-0.99072265625	-0.10791015625	0.41845703125	24.75	68.4375	-46.5625
18	12	12	15	39	48	0.532665965763	-0.577955085345	0.363960943491	-1.0302734375	-0.1396484375	0.38330078125	31.5	66.4375	-45.0625
18	12	12	15	39	48	0.536583932357	-0.579981859317	0.368302519377	-1.10888671875	-0.154296875	0.3544921875	33.6875	63.1875	-40.875
18	12	12	15	39	48	0.539750311589	-0.581438591903	0.372630968252	-1.1767578125	-0.15380859375	0.3173828125	31.0	57.0625	-35.5625
18	12	12	15	39	48	0.541813689079	-0.582585520137	0.376529080537	-1.30859375	-0.1669921875	0.29248046875	23.125	50.125	-30.0
18	12	12	15	39	48	0.542616011875	-0.583327471934	0.380319501687	-1.5126953125	-0.1845703125	0.24462890625	16.75	41.75	-23.4375
18	12	12	15	39	48	0.542251469577	-0.583329276762	0.383677705736	-1.63037109375	-0.212890625	0.17236328125	9.75	28.1875	-12.4375
18	12	12	15	39	48	0.540850284529	-0.58241659124	0.385693821007	-1.6640625	-0.27294921875	0.11865234375	-0.75	8.4375	2.6875
18	12	12	15	39	48	0.539082661092	-0.579672558016	0.385512464613	-1.45751953125	-0.33251953125	0.1201171875	-11.625	-17.5625	23.4375
18	12	12	15	39	48	0.536318145677	-0.575319772522	0.382692019278	-1.21142578125	-0.32958984375	0.14794921875	-28.625	-43.5625	41.875
18	12	12	15	39	48	0.531879502192	-0.56984473634	0.37690566055	-1.0185546875	-0.26025390625	0.15283203125	-49.375	-69.25	54.5625
18	12	12	15	39	48	0.525102239194	-0.564227025352	0.367382352401	-0.90234375	-0.18359375	0.1533203125	-77.1875	-91.8125	60.9375
18	12	12	15	39	48	0.515498706784	-0.560054005855	0.35345169441	-0.87939453125	-0.11083984375	0.15185546875	-109.25	-108.5625	61.375
18	12	12	15	39	48	0.503677024647	-0.556962293978	0.335092930843	-0.89794921875	-0.0703125	0.138671875	-137.6875	-121.3125	57.125
18	12	12	15	39	48	0.49080558599	-0.55446809391	0.313307433514	-0.9833984375	-0.04248046875	0.138671875	-154.0	-128.9375	48.875
18	12	12	15	39	48	0.478536978527	-0.551660358664	0.289929929592	-1.12841796875	-0.033203125	0.13134765625	-154.0625	-131.8125	37.3125
18	12	12	15	39	48	0.468282588532	-0.546960411345	0.267101747578	-1.18603515625	-0.1240234375	0.11865234375	-136.8125	-134.875	30.5
18	12	12	15	39	48	0.46143606948	-0.539257628817	0.24750307695	-1.19287109375	-0.1904296875	0.1337890625	-101.4375	-134.125	26.375
18	12	12	15	39	48	0.458738932168	-0.526853973187	0.233763984859	-1.07958984375	-0.298828125	0.1484375	-49.8125	-135.0	31.5
18	12	12	15	39	48	0.460466865128	-0.509541011411	0.227730895253	-1.04443359375	-0.314453125	0.14501953125	10.125	-132.125	37.25
18	12	12	15	39	48	0.464921237398	-0.487627119019	0.22876786107	-0.96533203125	-0.2451171875	0.10400390625	60.3125	-131.3125	48.25
18	12	12	15	39	48	0.469916581043	-0.463080542976	0.233646015357	-0.90185546875	-0.15478515625	0.0908203125	84.8125	-130.5625	57.0625
18	12	12	15	39	48	0.474202737843	-0.438190430554	0.239207173331	-0.8701171875	-0.046875	0.0869140625	86.875	-127.9375	59.8125
18	12	12	15	39	48	0.47621579949	-0.414995029574	0.243174025272	-0.830078125	0.05517578125	0.0810546875	69.0625	-122.6875	61.5
18	12	12	15	39	48	0.475542057285	-0.395155856612	0.243294909555	-0.80224609375	0.11865234375	0.0849609375	36.5	-115.625	59.5625
18	12	12	15	39	48	0.472253221021	-0.379536064147	0.238781775964	-0.783203125	0.13330078125	0.1044921875	-1.75	-107.625	55.1875
18	12	12	15	39	48	0.46694134007	-0.367693416024	0.229869423099	-0.7578125	0.0859375	0.13037109375	-35.125	-100.125	50.625
18	12	12	15	39	48	0.459790234104	-0.360910613867	0.22028182064	-0.73095703125	0.0166015625	0.16455078125	-53.25	-92.0625	47.75
18	12	12	15	39	48	0.45289217442	-0.355904888011	0.21051551342	-0.7333984375	-0.03857421875	0.19287109375	-54.125	-81.25	43.4375
18	12	12	15	39	48	0.446794012569	-0.352247028215	0.203315690692	-0.7822265625	-0.05810546875	0.220703125	-41.0625	-67.125	39.125
18	12	12	15	39	48	0.441969421621	-0.34980344639	0.200079514442	-0.84423828125	-0.05908203125	0.2451171875	-20.4375	-50.5	33.9375
18	12	12	15	39	48	0.438264771031	-0.34902478562	0.200881526666	-0.919921875	-0.0234375	0.275390625	-2.6875	-31.0625	27.0625
18	12	12	15	39	48	0.436043176737	-0.351080676454	0.20471567956	-1.005859375	-0.0009765625	0.294921875	9.1875	-8.8125	15.4375
18	12	12	15	39	48	0.434575718919	-0.356083531485	0.209902513675	-1.03173828125	-0.02978515625	0.32666015625	13.6875	12.4375	7.75
18	12	12	15	39	48	0.433113926669	-0.364142853228	0.21570245446	-1.01171875	-0.041015625	0.3896484375	11.5625	37.4375	2.0625
18	12	12	15	39	48	0.432743284037	-0.376224203498	0.222963500224	-1.07421875	-0.03857421875	0.4423828125	13.8125	66.6875	-12.5625
18	12	12	15	39	48	0.434167840039	-0.392722604079	0.232740330953	-1.20068359375	-0.068359375	0.42919921875	24.625	97.25	-30.25
18	12	12	15	39	48	0.437592127444	-0.408293170661	0.24385277572	-1.19189453125	-0.171875	0.42822265625	38.25	117.75	-41.8125
18	12	12	15	39	48	0.441668488127	-0.423418228598	0.258372403295	-1.02587890625	-0.27392578125	0.470703125	59.5	131.0	-39.625
18	12	12	15	39	48	0.446966540123	-0.437689069947	0.275089197916	-0.90673828125	-0.3134765625	0.4541015625	76.9375	137.5625	-42.9375
18	12	12	15	39	48	0.452956467947	-0.451247428585	0.291330174035	-0.86865234375	-0.26708984375	0.41064453125	79.5625	135.375	-48.875
18	12	12	15	39	48	0.458877025853	-0.464370366147	0.304147940919	-0.908203125	-0.2109375	0.3095703125	64.5	121.875	-55.8125
18	12	12	15	39	48	0.464620493369	-0.479025437725	0.310438758444	-0.97607421875	-0.2548828125	0.1845703125	37.0625	97.625	-61.0625
18	12	12	15	39	48	0.469673003736	-0.493049840699	0.311345288117	-0.9716796875	-0.3125	0.1591796875	11.75	74.8125	-62.4375
18	12	12	15	39	49	0.475649945085	-0.506106678384	0.311159171057	-1.0146484375	-0.34912109375	0.1474609375	12.875	67.4375	-66.75
18	12	12	15	39	49	0.484331515349	-0.51692546988	0.314342445375	-1.08447265625	-0.3994140625	0.11962890625	43.875	69.0625	-69.25
18	12	12	15	39	49	0.495256864728	-0.523822333386	0.321971895666	-1.05810546875	-0.37255859375	0.125	79.125	70.5	-64.0625
18	12	12	15	39	49	0.507264283404	-0.525819011133	0.3335578521	-0.986328125	-0.29345703125	0.134765625	105.125	70.0625	-59.5625
18	12	12	15	39	49	0.519862302814	-0.52614923685	0.345476181041	-0.947265625	-0.193359375	0.14599609375	112.75	65.6875	-60.25
18	12	12	15	39	49	0.531520763321	-0.526332515172	0.355364479106	-0.9267578125	-0.1123046875	0.16552734375	101.0	57.75	-60.5
18	12	12	15	39	49	0.541164002645	-0.526148624272	0.363237872743	-0.9033203125	-0.06494140625	0.19677734375	82.375	48.9375	-56.9375
18	12	12	15	39	49	0.549273478244	-0.526201428597	0.36866449701	-0.87841796875	-0.04296875	0.23193359375	63.5625	41.125	-54.25
18	12	12	15	39	49	0.556281152215	-0.526495635178	0.372624142448	-0.87060546875	-0.0283203125	0.27783203125	50.6875	38.4375	-53.0625
18	12	12	15	39	49	0.562255816436	-0.527160604273	0.375976533787	-0.8701171875	0.01025390625	0.3203125	41.6875	40.8125	-52.6875
18	12	12	15	39	49	0.567090610203	-0.528820691723	0.379098028196	-0.87353515625	0.037109375	0.35546875	32.5625	47.6875	-54.5
18	12	12	15	39	49	0.570878892916	-0.531876261399	0.381847359572	-0.86572265625	0.02978515625	0.37646484375	24.0625	55.625	-56.375
18	12	12	15	39	49	0.573743291987	-0.536449978007	0.384163859549	-0.88525390625	0.0029296875	0.39697265625	16.0	64.0	-59.4375
18	12	12	15	39	49	0.576007693616	-0.541887920305	0.386548344142	-0.90966796875	-0.01953125	0.41259765625	12.0	71.375	-61.1875
18	12	12	15	39	49	0.577342447467	-0.548167091732	0.389106470303	-0.9208984375	-0.01171875	0.42138671875	6.875	79.375	-62.9375
18	12	12	15	39	49	0.577359648578	-0.555752151423	0.391864778927	-0.98583984375	-0.01953125	0.39990234375	-0.1875	87.125	-65.0
18	12	12	15	39	49	0.568686504393	-0.582603057253	0.397415244188	-1.2802734375	-0.140625	0.33154296875	-30.1875	82.75	-52.4375
18	12	12	15	39	49	0.563990058735	-0.590419463003	0.398638427879	-1.44921875	-0.2001953125	0.27783203125	-32.0625	72.875	-41.8125
18	12	12	15	39	49	0.559277175137	-0.595899057172	0.399239550646	-1.51953125	-0.2802734375	0.19970703125	-33.125	49.25	-23.3125
18	12	12	15	39	49	0.553784459152	-0.599073566249	0.398507520534	-1.56884765625	-0.326171875	0.12890625	-42.625	18.375	-0.8125
18	12	12	15	39	49	0.547930195116	-0.599689669936	0.3953984409	-1.38818359375	-0.392578125	0.05810546875	-53.8125	-21.125	27.5
18	12	12	15	39	49	0.534193354174	-0.59474177823	0.380563935475	-0.998046875	-0.36669921875	0.07080078125	-81.1875	-84.1875	63.75
18	12	12	15	39	49	0.527704773076	-0.588861398408	0.371273205485	-0.93408203125	-0.32958984375	0.06494140625	-76.8125	-104.3125	66.75
18	12	12	15	39	49	0.522888054058	-0.580444192143	0.361328035488	-0.92138671875	-0.28466796875	0.0771484375	-65.875	-118.1875	66.125
18	12	12	15	39	49	0.52033443109	-0.569285541205	0.352179433125	-0.96728515625	-0.21875	0.0849609375	-45.875	-125.6875	63.5625
18	12	12	15	39	49	0.520849786716	-0.555276047083	0.34456780101	-1.0771484375	-0.15478515625	0.06494140625	-17.625	-129.9375	57.375
18	12	12	15	39	49	0.523750439355	-0.538643238236	0.33911635486	-1.20458984375	-0.08935546875	0.0615234375	8.375	-131.375	54.5625
18	12	12	15	39	49	0.527240632847	-0.519916150797	0.335400240506	-1.26171875	-0.08203125	0.06689453125	23.6875	-132.5625	60.1875
18	12	12	15	39	49	0.529876333389	-0.499662212317	0.332538447679	-1.22802734375	-0.11572265625	0.10205078125	27.6875	-135.75	71.4375
18	12	12	15	39	49	0.531400429138	-0.477503509895	0.330523009853	-1.1845703125	-0.1767578125	0.1318359375	31.875	-139.8125	85.25
18	12	12	15	39	49	0.531893389426	-0.453214185964	0.329122005484	-1.0859375	-0.2255859375	0.166015625	36.6875	-145.875	98.875
18	12	12	15	39	49	0.531460155767	-0.427695108701	0.327897548729	-0.9873046875	-0.18994140625	0.18359375	38.75	-147.9375	105.3125
18	12	12	15	39	49	0.53033559878	-0.402039427916	0.326233602886	-0.92041015625	-0.12890625	0.17578125	37.0	-147.25	104.6875
18	12	12	15	39	49	0.528228631874	-0.377768315538	0.323077669114	-0.8759765625	-0.01806640625	0.17431640625	25.1875	-143.5625	99.0
18	12	12	15	39	49	0.524610194686	-0.356454163696	0.317390693702	-0.83447265625	0.08203125	0.14697265625	3.0625	-136.25	91.5625
18	12	12	15	39	49	0.51936182356	-0.339425443744	0.3079304736	-0.8134765625	0.1591796875	0.12548828125	-28.8125	-127.625	80.75
18	12	12	15	39	49	0.513314154497	-0.326787631769	0.294316391556	-0.8427734375	0.15576171875	0.10888671875	-59.6875	-119.875	66.875
18	12	12	15	39	49	0.506715284823	-0.317322665116	0.278015914523	-0.841796875	0.0751953125	0.10888671875	-79.0	-112.75	57.5625
18	12	12	15	39	49	0.499826293055	-0.309698206247	0.26123538091	-0.8203125	-0.01611328125	0.1298828125	-83.875	-103.375	52.5625
18	12	12	15	39	49	0.493044785869	-0.306398220483	0.247621031972	-0.79150390625	-0.08154296875	0.1552734375	-72.6875	-91.5	48.9375
18	12	12	15	39	49	0.486959358712	-0.303113584277	0.237253826437	-0.775390625	-0.10205078125	0.21240234375	-53.125	-77.3125	46.375
18	12	12	15	39	49	0.482430862856	-0.301092035231	0.230839261554	-0.8369140625	-0.04150390625	0.265625	-35.125	-59.125	33.9375
18	12	12	15	39	49	0.479627816778	-0.301827380245	0.227728605803	-0.93408203125	-0.0107421875	0.275390625	-21.75	-38.75	17.875
18	12	12	15	39	49	0.47786939231	-0.305435999377	0.22633027292	-0.99462890625	-0.02880859375	0.31103515625	-16.75	-19.6875	7.25
18	12	12	15	39	49	0.47610003879	-0.311479294608	0.226086479959	-0.962890625	-0.03271484375	0.37890625	-15.9375	2.25	2.1875
18	12	12	15	39	49	0.475303896644	-0.320816396656	0.227916367031	-0.955078125	-0.04736328125	0.3974609375	-10.0625	29.0625	-9.625
18	12	12	15	39	49	0.476036600694	-0.332841080085	0.232799537767	-1.0029296875	-0.05615234375	0.46826171875	3.6875	56.0625	-22.5625
18	12	12	15	39	50	0.478850419072	-0.348288144197	0.241592091611	-1.099609375	-0.048828125	0.47314453125	20.8125	86.6875	-41.5625
18	12	12	15	39	50	0.48341966132	-0.363907578382	0.252757678981	-1.1083984375	-0.10888671875	0.44384765625	35.875	115.0	-55.4375
18	12	12	15	39	50	0.486474025263	-0.38081699418	0.266370470044	-0.93994140625	-0.197265625	0.45703125	42.6875	135.125	-48.0625
18	12	12	15	39	50	0.48860576213	-0.398575343749	0.280406604775	-0.7646484375	-0.2119140625	0.43994140625	41.1875	145.8125	-47.3125
18	12	12	15	39	50	0.490917551287	-0.417917751294	0.292487492946	-0.73095703125	-0.1552734375	0.38525390625	30.75	149.9375	-59.75
18	12	12	15	39	50	0.493314845595	-0.438502084973	0.300920835039	-0.79150390625	-0.1396484375	0.3447265625	13.0	145.625	-72.5
18	12	12	15	39	50	0.494644249675	-0.459670020274	0.305490433073	-0.84912109375	-0.1787109375	0.30712890625	-8.25	135.875	-76.0625
18	12	12	15	39	50	0.495393390759	-0.480805044235	0.30733190272	-0.9208984375	-0.21923828125	0.2333984375	-21.1875	126.5625	-79.5
18	12	12	15	39	50	0.496604615594	-0.50112142257	0.307753253666	-1.0498046875	-0.2470703125	0.158203125	-22.4375	117.75	-83.9375
18	12	12	15	39	50	0.498861547094	-0.518698816494	0.309095176127	-1.12890625	-0.333984375	0.09423828125	-7.8125	108.375	-79.9375
18	12	12	15	39	50	0.503255112157	-0.531942789866	0.314282664948	-1.13818359375	-0.43896484375	0.07373046875	26.0	103.0	-69.9375
18	12	12	15	39	50	0.510508501135	-0.540233230935	0.324774717185	-1.0927734375	-0.48291015625	0.1005859375	70.8125	102.5	-59.0
18	12	12	15	39	50	0.520088338666	-0.543831369265	0.339726756603	-1.01416015625	-0.4248046875	0.12548828125	108.875	100.5	-49.125
18	12	12	15	39	50	0.53095955344	-0.544021439224	0.355661721795	-0.95263671875	-0.28564453125	0.1396484375	125.0	90.875	-45.375
18	12	12	15	39	50	0.541033105761	-0.543352516638	0.369213589434	-0.9296875	-0.15478515625	0.15771484375	113.1875	76.8125	-45.0
18	12	12	15	39	50	0.548479379998	-0.543108115204	0.378918316384	-0.95263671875	-0.07177734375	0.181640625	81.75	63.3125	-46.0
18	12	12	15	39	50	0.553184905243	-0.544517548237	0.384964934058	-0.97314453125	-0.046875	0.216796875	49.4375	55.1875	-45.0
18	12	12	15	39	50	0.555734012313	-0.547311025635	0.38886121828	-0.9814453125	-0.03125	0.259765625	26.0625	53.75	-43.4375
18	12	12	15	39	50	0.556959783282	-0.550917151113	0.392221760808	-0.97119140625	-0.005859375	0.2900390625	14.9375	57.6875	-42.375
18	12	12	15	39	50	0.557014118335	-0.555183039708	0.395574019388	-0.93798828125	0.01611328125	0.32275390625	7.875	64.125	-41.1875
18	12	12	15	39	50	0.556844679273	-0.559835514446	0.39887975217	-0.90966796875	0.01806640625	0.365234375	5.0625	70.875	-42.4375
18	12	12	15	39	50	0.556528296878	-0.564890259663	0.402228720819	-0.8779296875	0.01123046875	0.38720703125	4.5625	76.5625	-44.375
18	12	12	15	39	50	0.555990513287	-0.570212248889	0.405411020886	-0.88916015625	0.02001953125	0.42626953125	1.6875	81.4375	-47.125
18	12	12	15	39	50	0.554567332407	-0.57647902868	0.408204525549	-0.96044921875	0.04736328125	0.43701171875	-5.25	86.875	-51.875
18	12	12	15	39	50	0.551644141178	-0.584298446946	0.41028456705	-1.06640625	0.03857421875	0.40673828125	-17.625	90.3125	-56.0625
18	12	12	15	39	50	0.547543469872	-0.593075453879	0.41082544819	-1.14697265625	-0.04931640625	0.3798828125	-31.0625	86.6875	-53.125
18	12	12	15	39	50	0.543231076851	-0.601033304916	0.41047516762	-1.2255859375	-0.1494140625	0.37158203125	-36.6875	76.5	-43.3125
18	12	12	15	39	50	0.539189004394	-0.606816513661	0.410159622994	-1.36376953125	-0.23486328125	0.29443359375	-33.8125	59.0625	-28.25
18	12	12	15	39	50	0.535791958102	-0.609037611978	0.409504243211	-1.41796875	-0.29541015625	0.2314453125	-31.5	28.3125	-5.4375
18	12	12	15	39	50	0.52545800342	-0.606574705307	0.402531714782	-1.34326171875	-0.298828125	-0.00439453125	-62.625	-53.5	38.5
18	12	12	15	39	50	0.517537262655	-0.604149525388	0.392288240015	-1.18701171875	-0.27392578125	0.05322265625	-97.1875	-86.0625	50.8125
18	12	12	15	39	50	0.507462546207	-0.602680440372	0.378185943746	-1.15185546875	-0.19970703125	0.0400390625	-122.5625	-106.1875	51.25
18	12	12	15	39	50	0.496714696178	-0.600903930188	0.360481321655	-1.11669921875	-0.1826171875	0.021484375	-137.8125	-123.25	47.3125
18	12	12	15	39	50	0.485922205355	-0.598537011144	0.339919703759	-1.18212890625	-0.1572265625	0.0380859375	-145.5625	-135.0625	39.375
18	12	12	15	39	50	0.47706307429	-0.594131520617	0.318672762394	-1.361328125	-0.14794921875	-0.0224609375	-132.625	-144.625	30.9375
18	12	12	15	39	50	0.470710140934	-0.586556594187	0.298283254505	-1.4404296875	-0.19873046875	-0.05419921875	-109.6875	-154.375	28.6875
18	12	12	15	39	50	0.466691932454	-0.574850198778	0.280344761413	-1.40966796875	-0.302734375	0.0087890625	-81.1875	-163.125	36.25
18	12	12	15	39	50	0.465523240749	-0.557504822473	0.267338638322	-1.302734375	-0.390625	0.05615234375	-37.625	-171.8125	51.4375
