18	12	13	15	17	24	-0.44859309691	-0.673927207629	-0.256399945594	-1.1728515625	0.4560546875	-0.1171875	-6.375	27.8125	26.625
18	12	13	15	17	24	-0.451694217816	-0.677815968527	-0.256454412007	-1.125	0.4248046875	-0.1015625	-14.5	34.25	33.875
18	12	13	15	17	24	-0.456416887482	-0.681146357889	-0.257505061285	-1.03271484375	0.359375	-0.0380859375	-25.75	42.6875	40.6875
18	12	13	15	17	24	-0.462558089643	-0.68434672901	-0.259445103453	-0.95703125	0.31689453125	-0.0224609375	-36.3125	51.375	48.1875
18	12	13	15	17	25	-0.470315425519	-0.687285492703	-0.262561245858	-0.93994140625	0.302734375	-0.03173828125	-50.125	59.8125	54.875
18	12	13	15	17	25	-0.479237448567	-0.689682013348	-0.267083937204	-0.97900390625	0.310546875	-0.0673828125	-63.3125	65.8125	59.125
18	12	13	15	17	25	-0.488738754302	-0.691545807317	-0.272321718493	-1.05859375	0.2919921875	-0.09375	-71.0625	69.125	64.125
18	12	13	15	17	25	-0.497246543805	-0.693838064316	-0.277461984551	-1.09228515625	0.27685546875	-0.1171875	-67.0625	72.1875	67.3125
18	12	13	15	17	25	-0.504061656217	-0.696922151876	-0.281905895395	-1.0302734375	0.24609375	-0.10546875	-55.4375	75.4375	67.625
18	12	13	15	17	25	-0.508956326103	-0.701272117391	-0.285330474221	-0.9306640625	0.21728515625	-0.0927734375	-41.375	78.4375	68.125
18	12	13	15	17	25	-0.512385854375	-0.706598098404	-0.287778356567	-0.8525390625	0.21337890625	-0.099609375	-30.125	80.0625	68.75
18	12	13	15	17	25	-0.514891790737	-0.712340219261	-0.289794478712	-0.80908203125	0.2333984375	-0.1201171875	-24.25	80.5	67.625
18	12	13	15	17	25	-0.517011706794	-0.717932795067	-0.291921496115	-0.78759765625	0.251953125	-0.15478515625	-24.375	80.0	65.4375
18	12	13	15	17	25	-0.519142101896	-0.722990517171	-0.294176455577	-0.7880859375	0.26708984375	-0.1806640625	-26.625	78.0	63.5
18	12	13	15	17	25	-0.521270769237	-0.727252369304	-0.296735567267	-0.79248046875	0.2705078125	-0.208984375	-29.3125	73.875	60.1875
18	12	13	15	17	25	-0.523722031506	-0.730439957238	-0.299365640897	-0.794921875	0.28271484375	-0.22119140625	-32.375	67.5	55.5625
18	12	13	15	17	25	-0.52646452136	-0.732509527633	-0.302170860799	-0.79150390625	0.26904296875	-0.2353515625	-35.75	59.625	50.9375
18	12	13	15	17	25	-0.529159117543	-0.733742896321	-0.304678467679	-0.80029296875	0.2626953125	-0.23046875	-34.125	50.4375	46.4375
18	12	13	15	17	25	-0.531305671367	-0.734550689823	-0.306698563885	-0.81884765625	0.26025390625	-0.22509765625	-28.625	40.5	41.875
18	12	13	15	17	25	-0.532649613854	-0.735162667454	-0.308042007691	-0.83935546875	0.27734375	-0.22900390625	-20.0625	30.0625	35.3125
18	12	13	15	17	25	-0.532893108376	-0.73571109018	-0.308835085143	-0.85107421875	0.29931640625	-0.22265625	-9.375	19.125	27.3125
18	12	13	15	17	25	-0.532073642238	-0.736285434729	-0.30900307991	-0.857421875	0.3173828125	-0.220703125	1.5	8.5	19.375
18	12	13	15	17	25	-0.53025393523	-0.736789307791	-0.308521367701	-0.8974609375	0.3525390625	-0.22900390625	11.6875	-3.25	11.875
18	12	13	15	17	25	-0.527942181299	-0.736738736469	-0.307549208273	-0.96923828125	0.3974609375	-0.25439453125	17.4375	-16.8125	3.3125
18	12	13	15	17	25	-0.525603801323	-0.7354913388	-0.306500498171	-1.05126953125	0.46484375	-0.26220703125	20.6875	-30.75	-8.125
18	12	13	15	17	25	-0.523109396887	-0.732878034981	-0.305833763598	-1.0986328125	0.50048828125	-0.271484375	21.4375	-44.25	-22.5625
18	12	13	15	17	25	-0.520349919812	-0.728953722993	-0.305276835433	-1.14599609375	0.51611328125	-0.2861328125	23.3125	-59.0625	-35.4375
18	12	13	15	17	25	-0.517425710948	-0.723956567973	-0.303815190977	-1.17919921875	0.55078125	-0.2626953125	28.25	-74.5	-44.4375
18	12	13	15	17	25	-0.514203822373	-0.717688159915	-0.302357950865	-1.158203125	0.56494140625	-0.22705078125	30.625	-85.5	-57.875
18	12	13	15	17	25	-0.510604335298	-0.710488293952	-0.300466787314	-1.111328125	0.5732421875	-0.1904296875	34.0	-94.625	-67.1875
18	12	13	15	17	25	-0.506745213263	-0.702229365748	-0.298749586767	-1.04638671875	0.5498046875	-0.11328125	34.4375	-97.9375	-76.6875
18	12	13	15	17	25	-0.502298797034	-0.693453090145	-0.297045959315	-0.96826171875	0.49072265625	-0.02587890625	37.25	-96.6875	-81.4375
18	12	13	15	17	25	-0.496680466662	-0.685148060795	-0.294785777092	-0.85546875	0.41943359375	0.072265625	45.5625	-90.0625	-81.0625
18	12	13	15	17	25	-0.490272510282	-0.678313043604	-0.291246161965	-0.7626953125	0.3837890625	0.11767578125	53.5625	-81.0625	-72.8125
18	12	13	15	17	25	-0.484616668221	-0.672298816178	-0.287413084465	-0.75341796875	0.400390625	0.10986328125	48.5	-71.875	-63.3125
18	12	13	15	17	25	-0.480701675268	-0.666122153869	-0.285210630844	-0.814453125	0.43212890625	0.06396484375	29.75	-62.0	-58.3125
18	12	13	15	17	25	-0.478565808397	-0.659286808098	-0.285882189329	-0.92041015625	0.44970703125	0.00732421875	6.375	-52.8125	-56.9375
18	12	13	15	17	25	-0.477585111279	-0.65189604774	-0.289358595856	-0.97509765625	0.45263671875	-0.04052734375	-13.0	-43.625	-59.1875
18	12	13	15	17	25	-0.476614890185	-0.644519559528	-0.294672389526	-0.9501953125	0.42041015625	-0.06103515625	-21.875	-36.25	-62.125
18	12	13	15	17	25	-0.47466291811	-0.638051452478	-0.299922023864	-0.86376953125	0.359375	-0.08056640625	-16.625	-32.125	-61.1875
18	12	13	15	17	25	-0.470642480825	-0.633728553807	-0.302978767322	-0.77685546875	0.32275390625	-0.09912109375	3.625	-30.8125	-56.625
18	12	13	15	17	25	-0.465072536329	-0.631631978802	-0.303212645733	-0.73583984375	0.33935546875	-0.125	23.5625	-31.625	-50.8125
18	12	13	15	17	25	-0.458858918413	-0.630732650024	-0.301694550906	-0.73291015625	0.388671875	-0.15283203125	33.8125	-33.25	-48.125
18	12	13	15	17	25	-0.453228193476	-0.629917611751	-0.299548070775	-0.740234375	0.44091796875	-0.15673828125	33.1875	-34.875	-47.125
18	12	13	15	17	25	-0.448968355801	-0.628348181481	-0.297969482466	-0.75048828125	0.47509765625	-0.16845703125	23.0625	-36.6875	-46.625
18	12	13	15	17	25	-0.446281756576	-0.625844246708	-0.29711427667	-0.77685546875	0.49462890625	-0.1767578125	10.875	-39.1875	-45.3125
18	12	13	15	17	25	-0.444925128579	-0.622467954236	-0.297043978161	-0.81591796875	0.49951171875	-0.1630859375	0.5625	-40.1875	-44.25
18	12	13	15	17	25	-0.444029316831	-0.618589295682	-0.297362313622	-0.83642578125	0.470703125	-0.12744140625	-3.5625	-39.4375	-43.1875
18	12	13	15	17	25	-0.442665431402	-0.615203026132	-0.296737808834	-0.85302734375	0.44873046875	-0.07958984375	3.625	-37.3125	-39.625
18	12	13	15	17	25	-0.440478443077	-0.613325186986	-0.294364352357	-0.8798828125	0.46826171875	-0.05859375	15.625	-34.25	-34.5625
18	12	13	15	17	25	-0.438407117293	-0.612720179661	-0.291010042497	-0.9052734375	0.525390625	-0.05810546875	20.0	-29.6875	-29.75
18	12	13	15	17	25	-0.437724277313	-0.612582065168	-0.288133897545	-0.9404296875	0.57958984375	-0.06103515625	10.8125	-23.4375	-24.6875
18	12	13	15	17	25	-0.439503082483	-0.612106153898	-0.287163172209	-1.001953125	0.591796875	-0.05859375	-8.9375	-15.8125	-17.5625
18	12	13	15	17	25	-0.443472214508	-0.61125436668	-0.28838511059	-1.08984375	0.55712890625	-0.04150390625	-28.625	-6.875	-8.125
18	12	13	15	17	26	-0.448489198487	-0.610721682099	-0.290773345345	-1.16845703125	0.49951171875	-0.01611328125	-37.625	3.4375	1.6875
18	12	13	15	17	26	-0.453540063624	-0.611189637617	-0.293693283025	-1.22900390625	0.44873046875	-0.01220703125	-38.8125	13.1875	10.125
18	12	13	15	17	26	-0.45740212128	-0.613104391281	-0.296328702804	-1.21435546875	0.39208984375	-0.0126953125	-30.375	22.125	15.8125
18	12	13	15	17	26	-0.460249625477	-0.617287456846	-0.296864365246	-1.16845703125	0.3515625	-0.0009765625	-14.4375	30.125	28.25
18	12	13	15	17	26	-0.462454735809	-0.624011774965	-0.294916363129	-1.0517578125	0.32470703125	0.02880859375	1.5625	40.5	43.1875
18	12	13	15	17	26	-0.464777834827	-0.633049993805	-0.291256707524	-0.96044921875	0.314453125	0.0087890625	9.375	50.625	60.0625
18	12	13	15	17	26	-0.468308998912	-0.643047518903	-0.287223009107	-0.9833984375	0.32421875	-0.00244140625	5.125	59.8125	74.75
18	12	13	15	17	26	-0.472645863491	-0.653244922126	-0.283807239829	-1.01220703125	0.32958984375	-0.02880859375	-2.75	67.5625	82.875
18	12	13	15	17	26	-0.478061609783	-0.663170873471	-0.281173220512	-1.02001953125	0.3408203125	-0.0576171875	-12.75	74.0	89.25
18	12	13	15	17	26	-0.484666855706	-0.672527903667	-0.279533333224	-1.05224609375	0.35302734375	-0.09619140625	-24.75	79.0	95.3125
18	12	13	15	17	26	-0.491748974064	-0.681197753448	-0.278619097257	-1.09375	0.35986328125	-0.13525390625	-33.1875	81.625	98.875
18	12	13	15	17	26	-0.500117657619	-0.689263937941	-0.276975095225	-1.16015625	0.35009765625	-0.154296875	-38.375	82.1875	102.1875
18	12	13	15	17	26	-0.507356099797	-0.697530718703	-0.274581389749	-1.16357421875	0.30322265625	-0.13427734375	-30.9375	82.3125	103.3125
18	12	13	15	17	26	-0.512013583967	-0.706955935522	-0.271051654118	-1.06494140625	0.2626953125	-0.10400390625	-13.375	83.8125	102.0625
18	12	13	15	17	26	-0.514389235377	-0.717508287979	-0.266715823279	-0.955078125	0.244140625	-0.087890625	1.9375	87.3125	100.6875
18	12	13	15	17	26	-0.514151938441	-0.727649502623	-0.26372869492	-0.869140625	0.24951171875	-0.091796875	11.375	90.5625	97.0
18	12	13	15	17	26	-0.513671751574	-0.737426580623	-0.261047300556	-0.8115234375	0.2763671875	-0.09521484375	11.1875	92.5	92.75
18	12	13	15	17	26	-0.513474627128	-0.746256301664	-0.259331236262	-0.779296875	0.29736328125	-0.1357421875	4.0625	93.375	87.8125
18	12	13	15	17	26	-0.513836502167	-0.753818106457	-0.258779756406	-0.771484375	0.31591796875	-0.169921875	-5.5625	92.9375	82.4375
18	12	13	15	17	26	-0.514808572895	-0.759914824081	-0.259204743223	-0.7724609375	0.314453125	-0.1953125	-14.25	89.6875	76.5625
18	12	13	15	17	26	-0.516222329604	-0.764690182975	-0.260186307768	-0.767578125	0.31982421875	-0.2109375	-19.625	83.8125	70.5625
18	12	13	15	17	26	-0.518107505778	-0.768219952318	-0.261342483183	-0.76171875	0.3291015625	-0.20556640625	-23.0	76.375	64.6875
18	12	13	15	17	26	-0.520233630505	-0.770646416282	-0.262741175425	-0.75634765625	0.3271484375	-0.21630859375	-25.6875	67.375	58.3125
18	12	13	15	17	26	-0.522184835764	-0.772291597915	-0.263838831815	-0.771484375	0.32470703125	-0.22900390625	-23.875	55.1875	52.1875
18	12	13	15	17	26	-0.523654029274	-0.773396720159	-0.264512419915	-0.7783203125	0.3486328125	-0.2275390625	-17.875	42.0	44.4375
18	12	13	15	17	26	-0.524340325058	-0.774151167854	-0.264947194864	-0.77783203125	0.36376953125	-0.23974609375	-11.0625	28.75	34.375
18	12	13	15	17	26	-0.524221632123	-0.774522355529	-0.265070968484	-0.78955078125	0.39111328125	-0.26025390625	-3.25	13.1875	23.75
18	12	13	15	17	26	-0.523233885471	-0.77444474195	-0.264699097316	-0.8447265625	0.4345703125	-0.26953125	6.25	-4.625	12.25
18	12	13	15	17	26	-0.520987794824	-0.774035521785	-0.264155948453	-0.88037109375	0.5009765625	-0.275390625	18.4375	-20.75	-2.5
18	12	13	15	17	26	-0.517443932935	-0.77311421308	-0.263787765764	-0.908203125	0.53271484375	-0.2724609375	29.1875	-35.4375	-18.875
18	12	13	15	17	26	-0.512681891887	-0.772074515758	-0.262627402475	-0.91650390625	0.55908203125	-0.318359375	38.625	-52.3125	-28.4375
18	12	13	15	17	26	-0.508230405555	-0.769822277563	-0.260249123248	-1.009765625	0.630859375	-0.37255859375	39.4375	-73.625	-35.125
18	12	13	15	17	26	-0.504868485849	-0.765176040509	-0.258354485082	-1.01953125	0.6611328125	-0.35595703125	32.125	-90.5625	-50.9375
18	12	13	15	17	26	-0.502299192762	-0.75888070022	-0.256154278496	-1.056640625	0.6728515625	-0.3623046875	27.8125	-105.625	-62.9375
18	12	13	15	17	26	-0.499428839737	-0.751004750453	-0.254505470084	-1.04931640625	0.63671875	-0.2998046875	26.375	-115.5	-74.6875
18	12	13	15	17	26	-0.495060624657	-0.742560419132	-0.252687829624	-1.021484375	0.58837890625	-0.2138671875	34.6875	-121.125	-82.5
18	12	13	15	17	26	-0.488577268983	-0.734361236778	-0.250544620759	-0.9384765625	0.53173828125	-0.1181640625	46.375	-120.25	-87.8125
18	12	13	15	17	26	-0.480621781231	-0.726761164558	-0.247726198097	-0.83837890625	0.4755859375	-0.04345703125	55.0	-115.375	-86.125
18	12	13	15	17	26	-0.472767921435	-0.719405562865	-0.244501457948	-0.7802734375	0.4775390625	-0.00927734375	53.8125	-108.25	-79.5
18	12	13	15	17	26	-0.466978355657	-0.711118131194	-0.242369762164	-0.8193359375	0.513671875	-0.02099609375	35.9375	-100.125	-73.5
18	12	13	15	17	26	-0.465142398405	-0.700795829746	-0.242611341512	-0.904296875	0.53369140625	-0.03955078125	5.5625	-89.9375	-73.25
18	12	13	15	17	26	-0.465505921565	-0.689012239222	-0.24688231975	-0.94140625	0.5078125	-0.04296875	-23.5625	-77.25	-77.125
18	12	13	15	17	26	-0.466858687572	-0.676636868927	-0.254272884354	-0.9150390625	0.4443359375	-0.05517578125	-42.6875	-64.8125	-79.5
18	12	13	15	17	26	-0.467870746315	-0.66482077219	-0.263108633885	-0.86669921875	0.3759765625	-0.06982421875	-47.6875	-54.6875	-79.0625
18	12	13	15	17	26	-0.467469512088	-0.654237589774	-0.271790277756	-0.8251953125	0.318359375	-0.08447265625	-40.75	-48.375	-77.3125
18	12	13	15	17	26	-0.465133799912	-0.645547854832	-0.278799527359	-0.810546875	0.294921875	-0.11572265625	-24.25	-46.0625	-73.875
18	12	13	15	17	26	-0.460502882432	-0.639333027631	-0.282832386639	-0.818359375	0.30712890625	-0.1416015625	-0.8125	-46.125	-68.375
18	12	13	15	17	26	-0.454269721093	-0.63535507142	-0.283560005938	-0.8359375	0.359375	-0.16015625	21.625	-47.0625	-62.5625
18	12	13	15	17	26	-0.447384709541	-0.632869311491	-0.281797435737	-0.83642578125	0.42822265625	-0.16748046875	35.0625	-48.9375	-58.3125
18	12	13	15	17	26	-0.441203103632	-0.63083072059	-0.278612832768	-0.8125	0.48974609375	-0.16796875	37.0	-50.25	-54.125
18	12	13	15	17	27	-0.436569895115	-0.628274919658	-0.275442462834	-0.79833984375	0.53125	-0.15771484375	28.5625	-51.0625	-51.1875
18	12	13	15	17	27	-0.433401608007	-0.625170070527	-0.272821460047	-0.787109375	0.52880859375	-0.1337890625	18.4375	-49.8125	-47.625
18	12	13	15	17	27	-0.431019058773	-0.621871026599	-0.27062284149	-0.79833984375	0.5068359375	-0.12060546875	12.9375	-47.75	-43.25
18	12	13	15	17	27	-0.429133776144	-0.619012197078	-0.268002618553	-0.8466796875	0.50048828125	-0.1044921875	12.4375	-45.1875	-37.125
18	12	13	15	17	27	-0.42760982205	-0.617000812318	-0.264891040208	-0.88671875	0.525390625	-0.10400390625	13.0	-41.625	-31.6875
18	12	13	15	17	27	-0.426932931603	-0.615650104515	-0.261713854284	-0.93017578125	0.54638671875	-0.10400390625	9.5	-36.75	-25.25
18	12	13	15	17	27	-0.427594415849	-0.614781408913	-0.259144431872	-0.9833984375	0.5517578125	-0.099609375	1.1875	-30.1875	-17.0
18	12	13	15	17	27	-0.429488729509	-0.614235409091	-0.257436899399	-1.04931640625	0.525390625	-0.07275390625	-7.5	-21.875	-8.25
18	12	13	15	17	27	-0.431935472188	-0.614731394076	-0.256036358037	-1.14404296875	0.49462890625	-0.05126953125	-9.625	-12.375	1.875
18	12	13	15	17	27	-0.434508243015	-0.616514645694	-0.254882205764	-1.1884765625	0.466796875	-0.02099609375	-9.125	-0.0625	10.6875
18	12	13	15	17	27	-0.436710814349	-0.619879109787	-0.25390873343	-1.193359375	0.42529296875	-0.009765625	-6.0625	13.0	18.375
18	12	13	15	17	27	-0.438638090813	-0.62509132129	-0.252245892491	-1.140625	0.36376953125	0.03271484375	0.9375	27.5	30.875
18	12	13	15	17	27	-0.440174820391	-0.632980180571	-0.248834268266	-1.02734375	0.326171875	0.04931640625	13.4375	43.0	46.125
18	12	13	15	17	27	-0.442130876381	-0.643055068132	-0.244563559036	-1.03369140625	0.322265625	0.0322265625	16.75	57.75	62.75
18	12	13	15	17	27	-0.444517037612	-0.654415993035	-0.240721570279	-1.04638671875	0.322265625	0.01416015625	14.0	71.6875	72.4375
18	12	13	15	17	27	-0.447319033139	-0.66667564456	-0.237178573172	-1.01513671875	0.33984375	-0.01904296875	10.625	82.875	79.625
18	12	13	15	17	27	-0.451520398744	-0.678867450018	-0.234670983127	-1.00439453125	0.3720703125	-0.0537109375	-1.75	92.25	86.0625
18	12	13	15	17	27	-0.457696122618	-0.690175724039	-0.234127527185	-1.01611328125	0.40673828125	-0.11279296875	-21.0625	99.6875	89.75
18	12	13	15	17	27	-0.466186776125	-0.699646375323	-0.234741338174	-1.0693359375	0.42431640625	-0.16064453125	-39.75	101.5625	92.125
18	12	13	15	17	27	-0.475934904594	-0.707615963563	-0.236685760453	-1.10791015625	0.4140625	-0.185546875	-54.25	103.375	92.4375
18	12	13	15	17	27	-0.485709984892	-0.714649184857	-0.239009839261	-1.076171875	0.37548828125	-0.17138671875	-57.5	103.375	90.9375
18	12	13	15	17	27	-0.494009252838	-0.721849201052	-0.240718123696	-0.982421875	0.31396484375	-0.13671875	-49.375	103.875	90.3125
18	12	13	15	17	27	-0.500656068043	-0.729530901051	-0.241630790367	-0.8896484375	0.27978515625	-0.1162109375	-38.625	104.8125	89.9375
18	12	13	15	17	27	-0.505964943577	-0.737280641546	-0.241996501964	-0.83154296875	0.271484375	-0.11962890625	-31.375	103.8125	88.125
18	12	13	15	17	27	-0.510796712042	-0.74431424344	-0.242428550631	-0.80810546875	0.28466796875	-0.140625	-30.5625	100.6875	84.4375
18	12	13	15	17	27	-0.514635425856	-0.749797937221	-0.244744788625	-0.79541015625	0.29443359375	-0.17919921875	-33.875	98.625	79.75
18	12	13	15	17	27	-0.518456196128	-0.754156941207	-0.247601740753	-0.7998046875	0.291015625	-0.20263671875	-38.125	93.875	74.875
18	12	13	15	17	27	-0.522018092477	-0.757606755749	-0.250541829723	-0.806640625	0.28662109375	-0.22119140625	-38.625	86.75	70.125
18	12	13	15	17	27	-0.524948513733	-0.760476512163	-0.253105625677	-0.802734375	0.29296875	-0.23681640625	-34.3125	77.625	64.8125
18	12	13	15	17	27	-0.527570280378	-0.762669854651	-0.25542360289	-0.794921875	0.31591796875	-0.2353515625	-32.0	68.3125	58.25
18	12	13	15	17	27	-0.530063928763	-0.764000029966	-0.257616562269	-0.7890625	0.31787109375	-0.23388671875	-30.25	57.75	51.3125
18	12	13	15	17	27	-0.53192030578	-0.764952058789	-0.25921578183	-0.77587890625	0.3076171875	-0.22216796875	-23.6875	45.9375	44.875
18	12	13	15	17	27	-0.532647862768	-0.765982660449	-0.260128932178	-0.7587890625	0.3056640625	-0.193359375	-12.25	35.25	38.0625
18	12	13	15	17	27	-0.53183175331	-0.767536852149	-0.260300944212	-0.73681640625	0.31884765625	-0.17919921875	1.625	26.0625	31.125
18	12	13	15	17	27	-0.530069833441	-0.769074262658	-0.259755579864	-0.7919921875	0.37939453125	-0.2255859375	10.25	12.3125	24.25
18	12	13	15	17	27	-0.528489161273	-0.769327390905	-0.259209316079	-0.892578125	0.4541015625	-0.255859375	10.875	-4.5	13.0
18	12	13	15	17	27	-0.527096418555	-0.768122791515	-0.259214739417	-0.98193359375	0.52880859375	-0.2783203125	10.5	-20.3125	-1.8125
18	12	13	15	17	27	-0.525497647216	-0.765542042861	-0.260002320225	-1.00439453125	0.54541015625	-0.27099609375	11.9375	-34.5625	-18.875
18	12	13	15	17	27	-0.522806050466	-0.762298338818	-0.260670632914	-1.05224609375	0.53466796875	-0.28759765625	19.4375	-51.125	-30.8125
18	12	13	15	17	27	-0.518892636438	-0.758442577396	-0.260361795701	-1.1083984375	0.5546875	-0.29736328125	29.8125	-70.5625	-41.875
18	12	13	15	17	27	-0.513939627003	-0.753546202898	-0.259380526631	-1.17578125	0.60986328125	-0.30712890625	38.625	-90.1875	-56.125
18	12	13	15	17	27	-0.508708065855	-0.747956490349	-0.257069990808	-1.15576171875	0.64404296875	-0.2548828125	44.3125	-105.6875	-71.5
18	12	13	15	17	27	-0.501925339345	-0.741475066598	-0.255112830552	-1.10302734375	0.607421875	-0.18017578125	51.1875	-112.8125	-84.625
18	12	13	15	17	27	-0.493691421856	-0.734586469707	-0.253040503772	-1.0009765625	0.55126953125	-0.07958984375	58.25	-115.375	-91.0625
18	12	13	15	17	27	-0.484280339674	-0.727610612424	-0.25071501391	-0.88037109375	0.5	0.00341796875	63.75	-113.0625	-93.375
18	12	13	15	17	27	-0.475202117169	-0.720371254681	-0.248098716452	-0.79638671875	0.47900390625	0.05322265625	60.0625	-108.375	-88.3125
18	12	13	15	17	27	-0.468254863366	-0.71239191413	-0.24584601012	-0.7919921875	0.46728515625	0.08056640625	44.6875	-100.9375	-78.5
18	12	13	15	17	27	-0.465433582469	-0.702239548896	-0.244923284349	-0.8642578125	0.47265625	0.06396484375	18.125	-90.5	-72.1875
18	12	13	15	17	27	-0.465147064749	-0.69061002987	-0.247984847668	-0.9580078125	0.458984375	0.04052734375	-13.0625	-77.3125	-73.0625
18	12	13	15	17	28	-0.465928045141	-0.678323852986	-0.254813936136	-0.9892578125	0.42333984375	0.0126953125	-35.3125	-63.75	-77.625
18	12	13	15	17	28	-0.466232137357	-0.666481861492	-0.263480054584	-0.939453125	0.37158203125	-0.00732421875	-41.75	-52.5	-80.5
18	12	13	15	17	28	-0.465074295608	-0.656352883854	-0.271781606082	-0.86181640625	0.333984375	-0.04345703125	-33.625	-45.125	-78.9375
18	12	13	15	17	28	-0.461905371166	-0.648547367074	-0.278131973627	-0.81396484375	0.322265625	-0.07861328125	-15.75	-41.0625	-74.3125
18	12	13	15	17	28	-0.456838489153	-0.643113849059	-0.281976462243	-0.7978515625	0.33935546875	-0.1201171875	3.75	-40.25	-69.0
18	12	13	15	17	28	-0.450798468923	-0.639272023219	-0.283625844176	-0.80517578125	0.380859375	-0.150390625	17.6875	-40.875	-65.0
18	12	13	15	17	28	-0.444451906554	-0.636343803589	-0.28374854622	-0.80615234375	0.4228515625	-0.15869140625	25.1875	-41.8125	-61.6875
18	12	13	15	17	28	-0.438826145844	-0.633459884244	-0.283375493067	-0.794921875	0.46044921875	-0.18505859375	22.8125	-44.125	-59.9375
18	12	13	15	17	28	-0.434744670867	-0.629748071599	-0.283319494899	-0.7861328125	0.4912109375	-0.1806640625	12.8125	-46.625	-59.0625
18	12	13	15	17	28	-0.431943939037	-0.625119375953	-0.284056392861	-0.7861328125	0.49072265625	-0.17138671875	2.6875	-48.125	-58.375
18	12	13	15	17	28	-0.42966855044	-0.620272937233	-0.284533349737	-0.8037109375	0.4658203125	-0.12939453125	1.0	-47.625	-54.75
18	12	13	15	17	28	-0.427041841572	-0.616180424826	-0.283738390948	-0.81396484375	0.439453125	-0.0888671875	9.1875	-45.25	-48.5
18	12	13	15	17	28	-0.423871949693	-0.613683578713	-0.280689286773	-0.83447265625	0.44921875	-0.060546875	22.0625	-42.3125	-39.8125
18	12	13	15	17	28	-0.420949738416	-0.612656731074	-0.276055628078	-0.8720703125	0.49560546875	-0.0634765625	28.375	-38.6875	-31.375
18	12	13	15	17	28	-0.419169068673	-0.612396976568	-0.271227044436	-0.90478515625	0.54248046875	-0.072265625	23.25	-33.875	-24.5
18	12	13	15	17	28	-0.419302338062	-0.612413342084	-0.267328128197	-0.97119140625	0.5703125	-0.0771484375	10.5625	-27.8125	-16.1875
18	12	13	15	17	28	-0.421437709308	-0.612473195207	-0.264947298495	-1.08056640625	0.54833984375	-0.08251953125	-5.125	-21.0	-6.1875
18	12	13	15	17	28	-0.424373417999	-0.613214401069	-0.263181098578	-1.19873046875	0.51513671875	-0.064453125	-10.0	-12.9375	3.5
18	12	13	15	17	28	-0.42699097688	-0.61521856017	-0.261223753723	-1.2373046875	0.47265625	-0.0361328125	-6.1875	-2.75	11.875
18	12	13	15	17	28	-0.428831395916	-0.618833123142	-0.258849124691	-1.20068359375	0.41162109375	-0.0126953125	1.5	8.5	20.1875
18	12	13	15	17	28	-0.43004238071	-0.624495265318	-0.25518126508	-1.13232421875	0.34423828125	0.03515625	12.9375	21.9375	33.0
18	12	13	15	17	28	-0.430712603366	-0.632794143645	-0.249382414249	-1.0400390625	0.3193359375	0.0576171875	27.625	36.25	48.25
18	12	13	15	17	28	-0.431762211172	-0.643370860612	-0.242553438959	-1.0390625	0.33154296875	0.029296875	31.125	49.625	64.0
18	12	13	15	17	28	-0.433879460792	-0.654938879415	-0.236439588003	-1.08642578125	0.3623046875	0.013671875	24.0	63.4375	73.75
18	12	13	15	17	28	-0.437189242847	-0.666739534952	-0.231808564056	-1.09326171875	0.38916015625	-0.00927734375	12.3125	76.0625	79.125
18	12	13	15	17	28	-0.442066778498	-0.678205997883	-0.229181382474	-1.08642578125	0.37890625	-0.03125	-4.1875	87.625	84.875
18	12	13	15	17	28	-0.448121366722	-0.689271941486	-0.228211085559	-1.06689453125	0.3779296875	-0.068359375	-17.4375	96.9375	89.125
18	12	13	15	17	28	-0.455604859917	-0.699672352858	-0.228016042418	-1.0791015625	0.40185546875	-0.1123046875	-29.625	102.25	91.125
18	12	13	15	17	28	-0.464404707762	-0.708722232427	-0.229364291204	-1.07763671875	0.427734375	-0.150390625	-44.3125	105.6875	90.25
18	12	13	15	17	28	-0.474159948065	-0.716336119248	-0.232166873785	-1.04736328125	0.4033203125	-0.1572265625	-57.4375	107.875	88.375
18	12	13	15	17	28	-0.484120072835	-0.723067385637	-0.235346318816	-0.97216796875	0.3583984375	-0.1494140625	-62.375	109.0625	88.25
18	12	13	15	17	28	-0.493888906889	-0.729114790126	-0.238521731108	-0.89697265625	0.3125	-0.14013671875	-63.4375	109.25	88.3125
18	12	13	15	17	28	-0.502977525161	-0.734660899206	-0.241570809924	-0.84716796875	0.28173828125	-0.14111328125	-62.0625	107.8125	86.5625
18	12	13	15	17	28	-0.511326202491	-0.739524898016	-0.244494242919	-0.8212890625	0.2666015625	-0.15576171875	-59.5625	104.5	83.125
18	12	13	15	17	28	-0.518967736559	-0.74369303422	-0.24736872119	-0.8134765625	0.26025390625	-0.1767578125	-57.5	100.5	78.9375
18	12	13	15	17	28	-0.524384927064	-0.746845711416	-0.251633968143	-0.8154296875	0.25341796875	-0.19921875	-52.9375	94.8125	75.25
18	12	13	15	17	28	-0.528614902716	-0.74986291361	-0.255304946087	-0.82275390625	0.248046875	-0.21044921875	-45.375	88.4375	72.0625
18	12	13	15	17	28	-0.531532938571	-0.752898189253	-0.258289975431	-0.81201171875	0.2548828125	-0.216796875	-35.8125	81.0625	68.1875
18	12	13	15	17	28	-0.533598715163	-0.755814536037	-0.260543625189	-0.79443359375	0.2802734375	-0.2041015625	-28.1875	73.375	63.0
18	12	13	15	17	28	-0.535755223378	-0.757918473902	-0.262628699726	-0.78125	0.3095703125	-0.19921875	-27.1875	65.6875	56.8125
18	12	13	15	17	28	-0.538302332058	-0.758933049789	-0.264878925298	-0.7744140625	0.3291015625	-0.1982421875	-29.9375	56.9375	49.625
18	12	13	15	17	28	-0.541294370432	-0.758874078471	-0.267137835087	-0.76708984375	0.3466796875	-0.19140625	-31.8125	47.6875	42.375
18	12	13	15	17	28	-0.544465590619	-0.75789414912	-0.269577907607	-0.7822265625	0.36474609375	-0.19140625	-32.375	38.125	34.5625
18	12	13	15	17	28	-0.547449493821	-0.755992963206	-0.272382061418	-0.82861328125	0.36865234375	-0.21630859375	-31.875	26.25	25.4375
18	12	13	15	17	28	-0.549535434704	-0.753688703149	-0.275072879188	-0.9287109375	0.39208984375	-0.2490234375	-25.0	11.9375	17.1875
18	12	13	15	17	28	-0.549788407224	-0.751625692158	-0.277335537569	-1.01611328125	0.43359375	-0.23876953125	-8.4375	-1.1875	6.0
18	12	13	15	17	28	-0.547038168272	-0.750644028962	-0.279408762061	-1.01171875	0.4697265625	-0.2314453125	15.375	-11.375	-9.3125
18	12	13	15	17	28	-0.541599491974	-0.75118396971	-0.280320764777	-0.962890625	0.5048828125	-0.2841796875	34.8125	-22.0625	-18.4375
18	12	13	15	17	28	-0.535623856785	-0.751618937592	-0.279713324481	-1.04443359375	0.58642578125	-0.353515625	42.375	-38.9375	-22.5625
18	12	13	15	17	28	-0.530974920831	-0.749895270373	-0.279097507237	-1.07275390625	0.66162109375	-0.3447265625	36.375	-56.0	-36.5
18	12	13	15	17	28	-0.526947990337	-0.746173978441	-0.279098119042	-1.0673828125	0.68896484375	-0.33935546875	31.375	-70.4375	-53.5625
18	12	13	15	17	29	-0.522747006869	-0.741366945994	-0.278676337812	-1.01708984375	0.654296875	-0.28662109375	34.5625	-82.1875	-63.25
18	12	13	15	17	29	-0.517549795402	-0.736165758507	-0.277694760505	-0.96630859375	0.6015625	-0.20166015625	43.625	-88.0625	-70.375
18	12	13	15	17	29	-0.510859324051	-0.731133075605	-0.275876241901	-0.8818359375	0.54736328125	-0.107421875	56.125	-89.3125	-75.1875
18	12	13	15	17	29	-0.502966291198	-0.726710305702	-0.272996993147	-0.8046875	0.5078125	-0.04638671875	66.1875	-87.3125	-74.5
18	12	13	15	17	29	-0.495408992508	-0.722392612458	-0.26946294221	-0.767578125	0.5	-0.0205078125	64.0625	-83.0	-69.3125
18	12	13	15	17	29	-0.489983607555	-0.71697028375	-0.266597956876	-0.79296875	0.52978515625	-0.03564453125	46.8125	-79.0625	-65.3125
18	12	13	15	17	29	-0.487223735301	-0.709626753144	-0.266163436008	-0.869140625	0.5546875	-0.0712890625	19.4375	-74.6875	-65.9375
18	12	13	15	17	29	-0.486870902934	-0.700185909296	-0.269039355664	-0.92041015625	0.541015625	-0.083984375	-8.9375	-68.0	-70.875
18	12	13	15	17	29	-0.487357353961	-0.689502320313	-0.274897623324	-0.88427734375	0.46728515625	-0.0869140625	-26.8125	-60.3125	-76.75
18	12	13	15	17	29	-0.487174377766	-0.679187731869	-0.281489379887	-0.8095703125	0.3818359375	-0.087890625	-28.0	-54.8125	-76.8125
18	12	13	15	17	29	-0.485513316994	-0.670136545643	-0.287096749609	-0.76123046875	0.3330078125	-0.10107421875	-17.0625	-52.75	-73.5625
18	12	13	15	17	29	-0.482290824099	-0.662707386494	-0.290949172169	-0.7431640625	0.34033203125	-0.1357421875	-3.0	-53.3125	-70.75
18	12	13	15	17	29	-0.478256428829	-0.656351408324	-0.293386760258	-0.76025390625	0.3837890625	-0.169921875	5.75	-55.125	-69.1875
18	12	13	15	17	29	-0.474174039582	-0.650257461411	-0.295222014346	-0.7841796875	0.416015625	-0.1845703125	7.625	-56.5625	-68.625
18	12	13	15	17	29	-0.470328817625	-0.644153950327	-0.296686787241	-0.798828125	0.4326171875	-0.18994140625	7.125	-58.375	-67.6875
18	12	13	15	17	29	-0.466616217906	-0.638003835942	-0.297486912502	-0.80908203125	0.43115234375	-0.18359375	8.0625	-60.75	-65.625
18	12	13	15	17	29	-0.463128219932	-0.631949076064	-0.29735907848	-0.8212890625	0.4365234375	-0.1640625	10.375	-62.75	-62.5625
18	12	13	15	17	29	-0.459634141386	-0.626069183686	-0.296372777927	-0.8388671875	0.43310546875	-0.14013671875	13.9375	-63.625	-59.4375
18	12	13	15	17	29	-0.455669289271	-0.620762435196	-0.294238098523	-0.8388671875	0.42236328125	-0.0908203125	21.25	-62.0625	-56.3125
18	12	13	15	17	29	-0.450608295358	-0.61698486493	-0.290151948549	-0.82421875	0.41650390625	-0.06298828125	35.75	-59.0625	-50.8125
18	12	13	15	17	29	-0.44518477858	-0.614921393501	-0.283870908305	-0.83251953125	0.4541015625	-0.056640625	46.875	-55.8125	-41.875
18	12	13	15	17	29	-0.440310340887	-0.614200576705	-0.276429932614	-0.861328125	0.5087890625	-0.05419921875	49.25	-50.8125	-33.9375
18	12	13	15	17	29	-0.436812716111	-0.614235458284	-0.26921627648	-0.91845703125	0.578125	-0.0869140625	40.9375	-45.3125	-27.0625
18	12	13	15	17	29	-0.435845148701	-0.613881880078	-0.264155973054	-1.01708984375	0.607421875	-0.08203125	19.25	-37.5625	-20.5
18	12	13	15	17	29	-0.436508921346	-0.613199822814	-0.26158798055	-1.0966796875	0.5673828125	-0.06787109375	1.5	-27.4375	-15.0
18	12	13	15	17	29	-0.437801716574	-0.613398473661	-0.260190815246	-1.173828125	0.52392578125	-0.05322265625	-5.0625	-16.125	-6.4375
18	12	13	15	17	29	-0.43925542186	-0.614603598462	-0.259879058813	-1.2021484375	0.47607421875	-0.0322265625	-8.3125	-2.6875	-0.125
18	12	13	15	17	29	-0.439818172639	-0.617552077542	-0.259642867944	-1.1845703125	0.42724609375	-0.037109375	-2.6875	9.3125	5.8125
18	12	13	15	17	29	-0.440357009349	-0.622481100257	-0.258049817814	-1.13916015625	0.40185546875	-0.01025390625	6.0625	21.0	18.875
18	12	13	15	17	29	-0.441147277924	-0.629556470917	-0.254874243582	-1.01025390625	0.3681640625	0.02099609375	14.0625	35.0	34.625
18	12	13	15	17	29	-0.443123815959	-0.63862320749	-0.250798314019	-1.00390625	0.36328125	0.03173828125	14.5625	49.8125	53.875
18	12	13	15	17	29	-0.446341967698	-0.648608791292	-0.247554084641	-1.05712890625	0.35009765625	0.0361328125	6.3125	65.0	66.875
18	12	13	15	17	29	-0.450051251136	-0.659269543635	-0.245410371687	-1.07666015625	0.3525390625	0.01025390625	-0.125	77.8125	73.5
18	12	13	15	17	29	-0.454693642699	-0.670139086824	-0.244313912983	-1.0869140625	0.3671875	-0.00927734375	-9.375	88.625	79.5625
18	12	13	15	17	29	-0.460500288691	-0.680710367099	-0.244379477259	-1.09814453125	0.39111328125	-0.05322265625	-21.125	96.4375	84.375
18	12	13	15	17	29	-0.467751500683	-0.690702470411	-0.245044660131	-1.14013671875	0.396484375	-0.0859375	-32.9375	101.5	88.8125
18	12	13	15	17	29	-0.4749016698	-0.700664589294	-0.245598807258	-1.14453125	0.376953125	-0.0966796875	-33.75	105.6875	92.5625
18	12	13	15	17	29	-0.480813919612	-0.711089486849	-0.245655753546	-1.05615234375	0.3486328125	-0.0810546875	-26.25	110.0	93.5625
18	12	13	15	17	29	-0.48551559484	-0.721834436225	-0.245534787937	-0.9375	0.3408203125	-0.078125	-20.75	114.5625	93.125
18	12	13	15	17	29	-0.489797004106	-0.732162599533	-0.245844527419	-0.8359375	0.345703125	-0.09228515625	-22.4375	117.9375	91.0625
18	12	13	15	17	29	-0.494741103419	-0.741074078179	-0.247248483833	-0.7724609375	0.36669921875	-0.123046875	-31.875	118.5	87.125
18	12	13	15	17	29	-0.501002509079	-0.747872426148	-0.24986043028	-0.7470703125	0.37548828125	-0.16796875	-47.25	116.0625	82.25
18	12	13	15	17	29	-0.508700460698	-0.752400633412	-0.253526300389	-0.75	0.369140625	-0.19970703125	-61.75	111.625	77.8125
18	12	13	15	17	29	-0.517198074668	-0.755045714152	-0.257744568011	-0.7509765625	0.3505859375	-0.23583984375	-71.3125	105.0	72.75
18	12	13	15	17	29	-0.524877806985	-0.755763009756	-0.263415420343	-0.75634765625	0.33642578125	-0.25146484375	-75.4375	96.25	66.875
18	12	13	15	17	29	-0.532198813831	-0.755331711007	-0.269028941671	-0.76220703125	0.3115234375	-0.2626953125	-75.125	85.4375	60.6875
18	12	13	15	17	29	-0.538615932654	-0.75418437165	-0.274343186094	-0.7646484375	0.28857421875	-0.26513671875	-69.5	73.125	53.875
18	12	13	15	17	29	-0.543927852247	-0.752722419407	-0.278982743786	-0.7724609375	0.28369140625	-0.26318359375	-60.0625	60.125	46.875
18	12	13	15	17	29	-0.548014599238	-0.751193193832	-0.282948622571	-0.77490234375	0.27783203125	-0.26806640625	-49.625	46.5625	39.0625
18	12	13	15	17	29	-0.551018023526	-0.749562732269	-0.286373124323	-0.7802734375	0.29443359375	-0.25146484375	-38.75	33.6875	30.125
18	12	13	15	17	30	-0.553069840253	-0.747822197376	-0.289290558685	-0.80322265625	0.31005859375	-0.24951171875	-29.0625	20.875	21.4375
18	12	13	15	17	30	-0.554530071797	-0.74567999309	-0.291729445652	-0.85986328125	0.33642578125	-0.26611328125	-21.9375	5.875	13.0625
18	12	13	15	17	30	-0.555557243204	-0.742858701997	-0.293860059983	-0.9423828125	0.37890625	-0.2783203125	-15.625	-10.3125	2.75
18	12	13	15	17	30	-0.555762744249	-0.73953186603	-0.295763920342	-0.99755859375	0.42138671875	-0.2607421875	-5.5625	-24.875	-10.25
18	12	13	15	17	30	-0.55472531837	-0.735931113314	-0.297839097112	-0.982421875	0.4375	-0.2373046875	5.0	-35.625	-25.8125
18	12	13	15	17	30	-0.552161172655	-0.732390192534	-0.299425523714	-1.02294921875	0.4384765625	-0.2900390625	15.1875	-50.5625	-35.8125
18	12	13	15	17	30	-0.548803835384	-0.728483382912	-0.299242126878	-1.1357421875	0.54345703125	-0.34912109375	25.125	-73.125	-44.0
18	12	13	15	17	30	-0.545519948026	-0.722639984855	-0.299065534273	-1.1865234375	0.61376953125	-0.3408203125	26.3125	-91.5	-62.375
18	12	13	15	17	30	-0.54214862804	-0.715968203933	-0.296982463587	-1.2509765625	0.6708984375	-0.3525390625	35.1875	-108.75	-77.75
18	12	13	15	17	30	-0.536918141878	-0.708424334748	-0.294795342193	-1.216796875	0.673828125	-0.22265625	46.625	-119.0	-92.75
18	12	13	15	17	30	-0.528468587911	-0.701125665541	-0.293193566962	-1.052734375	0.5556640625	-0.0322265625	63.125	-115.5625	-106.8125
18	12	13	15	17	30	-0.516826039171	-0.695713275923	-0.290333191821	-0.853515625	0.4375	0.0947265625	84.375	-107.0625	-104.8125
18	12	13	15	17	30	-0.505555842438	-0.69049296698	-0.284607858661	-0.732421875	0.39794921875	0.1572265625	94.875	-99.8125	-91.25
18	12	13	15	17	30	-0.496387313948	-0.684981535035	-0.278252768264	-0.7353515625	0.4599609375	0.1279296875	80.6875	-95.0625	-79.6875
18	12	13	15	17	30	-0.490469641278	-0.677783146639	-0.274348063408	-0.830078125	0.521484375	0.0625	48.0	-87.75	-76.1875
18	12	13	15	17	30	-0.487533073733	-0.668557497456	-0.274893460703	-0.91357421875	0.53076171875	0.00830078125	10.5625	-75.75	-78.0625
18	12	13	15	17	30	-0.486676990244	-0.657996567823	-0.279836217741	-0.92431640625	0.5029296875	-0.029296875	-20.8125	-62.0	-82.0625
18	12	13	15	17	30	-0.486756329428	-0.646790824195	-0.287659257755	-0.86474609375	0.42431640625	-0.06396484375	-39.625	-52.0625	-82.625
18	12	13	15	17	30	-0.486499839963	-0.636093505469	-0.296074610922	-0.80517578125	0.3388671875	-0.08837890625	-41.3125	-46.875	-79.25
18	12	13	15	17	30	-0.484534794031	-0.62716709201	-0.302597746417	-0.771484375	0.29638671875	-0.1005859375	-25.0625	-45.625	-73.875
18	12	13	15	17	30	-0.48038778824	-0.620701792199	-0.306139645002	-0.76318359375	0.30419921875	-0.12060546875	-1.0	-46.3125	-68.5625
18	12	13	15	17	30	-0.474347575366	-0.616615228245	-0.306690242693	-0.77978515625	0.337890625	-0.12451171875	21.9375	-46.3125	-63.75
18	12	13	15	17	30	-0.46698113994	-0.614686584805	-0.304199974051	-0.79833984375	0.392578125	-0.12841796875	42.25	-46.25	-58.1875
18	12	13	15	17	30	-0.459815984484	-0.613983117057	-0.299850800607	-0.83642578125	0.46923828125	-0.154296875	48.0625	-47.375	-51.9375
18	12	13	15	17	30	-0.454449023506	-0.612950784727	-0.295459001181	-0.88818359375	0.54443359375	-0.15771484375	38.5625	-48.125	-48.0
18	12	13	15	17	30	-0.450922470699	-0.610893747865	-0.292171882409	-0.90771484375	0.56201171875	-0.134765625	23.8125	-46.8125	-46.0625
18	12	13	15	17	30	-0.448474835534	-0.608199746339	-0.289970596574	-0.89111328125	0.52587890625	-0.0771484375	14.25	-41.9375	-43.1875
18	12	13	15	17	30	-0.446323862074	-0.606104508992	-0.287275593981	-0.8427734375	0.48681640625	-0.009765625	16.0	-34.6875	-36.1875
18	12	13	15	17	30	-0.444369132944	-0.60549185111	-0.283368477442	-0.80029296875	0.49462890625	0.02978515625	21.8125	-26.5	-26.8125
18	12	13	15	17	30	-0.44311884127	-0.606145070614	-0.279177077131	-0.77392578125	0.5087890625	0.052734375	20.8125	-16.4375	-18.1875
18	12	13	15	17	30	-0.442995713764	-0.607974690659	-0.275636352075	-0.77978515625	0.5341796875	0.02685546875	13.375	-6.3125	-9.9375
18	12	13	15	17	30	-0.4449993389	-0.610218542083	-0.273554661494	-0.84716796875	0.54150390625	-0.01123046875	-2.8125	2.1875	0.625
18	12	13	15	17	30	-0.448779655772	-0.612593690328	-0.273064079957	-0.95068359375	0.51513671875	-0.04345703125	-17.9375	8.8125	11.375
18	12	13	15	17	30	-0.45311820502	-0.615896525708	-0.27276202293	-1.09228515625	0.50048828125	-0.09375	-21.0	13.1875	22.25
18	12	13	15	17	30	-0.457613888369	-0.619713446586	-0.272505469668	-1.22802734375	0.4833984375	-0.11181640625	-21.5	16.5	30.4375
18	12	13	15	17	30	-0.460872364086	-0.624628231235	-0.270993682498	-1.28076171875	0.44775390625	-0.10009765625	-9.0625	19.3125	36.5
18	12	13	15	17	30	-0.463067710043	-0.631400482456	-0.266170855871	-1.22119140625	0.39013671875	-0.02001953125	12.75	24.5	51.5625
18	12	13	15	17	30	-0.464401884502	-0.640848966655	-0.25792645077	-1.10302734375	0.35107421875	0.0400390625	34.25	34.4375	70.125
18	12	13	15	17	30	-0.465812030926	-0.652332152324	-0.248225567319	-1.11474609375	0.36669921875	0.04150390625	41.3125	47.0625	86.8125
18	12	13	15	17	30	-0.46837259964	-0.664107669623	-0.23980140005	-1.16064453125	0.4013671875	0.0390625	30.875	60.8125	93.6875
18	12	13	15	17	30	-0.472159064253	-0.67540230158	-0.234065409955	-1.158203125	0.41748046875	0.02587890625	13.5625	75.0625	95.125
18	12	13	15	17	30	-0.477412974569	-0.685785244471	-0.231138191599	-1.13427734375	0.41357421875	-0.0078125	-5.875	86.875	95.8125
18	12	13	15	17	30	-0.484049517627	-0.695283331837	-0.230275984114	-1.15283203125	0.41162109375	-0.03662109375	-22.3125	96.6875	99.25
18	12	13	15	17	30	-0.491672587671	-0.704917873337	-0.229601821601	-1.17041015625	0.404296875	-0.07958984375	-30.8125	102.9375	101.25
18	12	13	15	17	30	-0.498758916651	-0.714387312702	-0.229543843065	-1.1337890625	0.37060546875	-0.068359375	-31.875	109.4375	100.5
18	12	13	15	17	30	-0.504511100441	-0.724174232608	-0.229489685175	-1.01220703125	0.33544921875	-0.05712890625	-25.6875	114.6875	99.25
18	12	13	15	17	30	-0.508900866192	-0.734421218865	-0.229182388169	-0.8857421875	0.3115234375	-0.0595703125	-19.375	120.0	99.25
18	12	13	15	17	30	-0.512433349152	-0.744480942467	-0.229179040742	-0.798828125	0.31103515625	-0.07470703125	-17.5625	123.6875	97.1875
18	12	13	15	17	30	-0.515803506336	-0.753594354838	-0.229917383549	-0.74267578125	0.326171875	-0.09912109375	-21.75	124.8125	93.1875
18	12	13	15	17	30	-0.519819521566	-0.761022615288	-0.231498819455	-0.71337890625	0.33447265625	-0.150390625	-31.3125	122.875	88.1875
18	12	13	15	17	31	-0.524434811558	-0.766786800002	-0.233563601051	-0.7099609375	0.33056640625	-0.1806640625	-39.375	117.9375	83.625
18	12	13	15	17	31	-0.529037379956	-0.771400951231	-0.235466798785	-0.708984375	0.32177734375	-0.2041015625	-41.5625	110.9375	80.0625
18	12	13	15	17	31	-0.533135362027	-0.775319805819	-0.236752383435	-0.697265625	0.31640625	-0.21728515625	-38.5	102.125	77.0625
18	12	13	15	17	31	-0.535503004991	-0.77823100258	-0.238882922445	-0.69775390625	0.31396484375	-0.2412109375	-32.6875	89.625	72.6875
18	12	13	15	17	31	-0.537210046229	-0.780669586608	-0.240102740498	-0.7021484375	0.3310546875	-0.25634765625	-26.5625	74.125	66.5625
18	12	13	15	17	31	-0.538677582647	-0.782443531558	-0.240470164925	-0.70361328125	0.3544921875	-0.26025390625	-22.0	57.3125	59.125
18	12	13	15	17	31	-0.540015054247	-0.783534501178	-0.240223695018	-0.70263671875	0.365234375	-0.25732421875	-17.4375	40.125	51.0
18	12	13	15	17	31	-0.540813832611	-0.784274658509	-0.239188512583	-0.71142578125	0.38037109375	-0.2646484375	-10.6875	21.1875	41.8125
18	12	13	15	17	31	-0.540828050853	-0.784722520011	-0.237485830704	-0.732421875	0.40478515625	-0.267578125	-0.9375	1.5625	30.6875
18	12	13	15	17	31	-0.539661080833	-0.784894989766	-0.235651598405	-0.76953125	0.42333984375	-0.27587890625	9.875	-18.0	16.375
18	12	13	15	17	31	-0.536853644873	-0.785017232873	-0.233454432883	-0.83935546875	0.48828125	-0.30517578125	24.125	-39.1875	1.375
18	12	13	15	17	31	-0.532565839846	-0.784750351677	-0.230823287451	-0.92626953125	0.580078125	-0.3408203125	37.25	-61.375	-15.0
18	12	13	15	17	31	-0.526897172201	-0.78354058806	-0.22820207655	-1.0458984375	0.65478515625	-0.404296875	45.875	-85.3125	-33.1875
18	12	13	15	17	31	-0.521912520322	-0.781068240271	-0.223389056763	-1.1552734375	0.7568359375	-0.4697265625	49.5625	-112.125	-51.375
18	12	13	15	17	31	-0.516333226847	-0.77614771227	-0.219350072965	-1.22509765625	0.8486328125	-0.462890625	50.75	-135.6875	-75.25
18	12	13	15	17	31	-0.509060067311	-0.769052380792	-0.217392633948	-1.12255859375	0.8330078125	-0.32373046875	54.6875	-148.25	-103.9375
18	12	13	15	17	31	-0.499931802139	-0.760670253944	-0.216488597508	-0.98095703125	0.73876953125	-0.2119140625	60.0625	-152.1875	-119.875
18	12	13	15	17	31	-0.489548189105	-0.751564194071	-0.215569655145	-0.8115234375	0.63916015625	-0.0673828125	63.6875	-150.25	-124.0
18	12	13	15	17	31	-0.479485568697	-0.741505877558	-0.214779750031	-0.72265625	0.57958984375	0.0263671875	58.125	-144.125	-120.625
18	12	13	15	17	31	-0.472148259927	-0.7296448355	-0.214285488703	-0.7490234375	0.57568359375	0.0478515625	36.8125	-139.3125	-110.6875
18	12	13	15	17	31	-0.469229334118	-0.715013221799	-0.216060333348	-0.85888671875	0.5498046875	0.044921875	0.6875	-132.125	-102.1875
18	12	13	15	17	31	-0.470319733504	-0.697606352706	-0.221793655795	-0.98291015625	0.48291015625	0.01220703125	-39.0625	-121.0625	-101.0
18	12	13	15	17	31	-0.472640272596	-0.679115226392	-0.231193356482	-1.0556640625	0.41796875	-0.009765625	-61.6875	-105.25	-104.9375
18	12	13	15	17	31	-0.473192198566	-0.661663436689	-0.241814457722	-1.0205078125	0.3447265625	-0.01806640625	-58.0625	-90.375	-108.0625
18	12	13	15	17	31	-0.470820657882	-0.64678331755	-0.25073000552	-0.91748046875	0.291015625	-0.00634765625	-36.375	-79.5	-105.0
18	12	13	15	17	31	-0.464334271645	-0.636323490559	-0.255542533567	-0.81591796875	0.2666015625	-0.0009765625	1.75	-71.0625	-95.125
18	12	13	15	17	31	-0.45457611195	-0.630352052124	-0.255180279815	-0.76025390625	0.298828125	-0.02099609375	40.5	-64.8125	-83.125
18	12	13	15	17	31	-0.443660543672	-0.627313670087	-0.251340503349	-0.744140625	0.3740234375	-0.04736328125	60.375	-60.0	-73.5
18	12	13	15	17	31	-0.433044928045	-0.625733136338	-0.246155066217	-0.7197265625	0.42431640625	-0.083984375	64.3125	-55.4375	-65.5
18	12	13	15	17	31	-0.423999192327	-0.624677088451	-0.241020988988	-0.70166015625	0.46826171875	-0.11767578125	55.6875	-50.6875	-58.3125
18	12	13	15	17	31	-0.417287132362	-0.623336767999	-0.237054734839	-0.70166015625	0.49658203125	-0.125	39.125	-45.6875	-52.0
18	12	13	15	17	31	-0.41270546775	-0.621438490481	-0.234733101001	-0.71875	0.50439453125	-0.15185546875	21.5	-43.25	-47.9375
18	12	13	15	17	31	-0.409904143795	-0.618945491695	-0.234004241708	-0.78515625	0.5244140625	-0.16015625	5.75	-40.75	-45.6875
18	12	13	15	17	31	-0.407891501211	-0.616262230694	-0.234249226642	-0.84716796875	0.5234375	-0.14306640625	-1.75	-37.5	-44.125
18	12	13	15	17	31	-0.405381609255	-0.614419852509	-0.233573534872	-0.861328125	0.5068359375	-0.10498046875	5.625	-33.125	-40.125
18	12	13	15	17	31	-0.402272671469	-0.614181443331	-0.230890231553	-0.8642578125	0.5048828125	-0.07177734375	18.25	-27.25	-32.125
18	12	13	15	17	31	-0.399529476907	-0.615346194039	-0.226924930514	-0.8671875	0.53125	-0.04248046875	23.8125	-20.0	-23.25
18	12	13	15	17	31	-0.39800515721	-0.617484768516	-0.222714433164	-0.89013671875	0.552734375	-0.0263671875	20.375	-11.3125	-13.875
18	12	13	15	17	31	-0.398381547874	-0.620247171671	-0.219912473876	-0.96337890625	0.55810546875	-0.0302734375	6.9375	-1.125	-4.3125
18	12	13	15	17	31	-0.400807101344	-0.62339633518	-0.218866189343	-1.07861328125	0.55615234375	-0.017578125	-8.0	10.4375	5.1875
18	12	13	15	17	31	-0.404407123713	-0.627484098838	-0.21923187268	-1.208984375	0.525390625	-0.00830078125	-17.875	23.4375	15.625
18	12	13	15	17	31	-0.408010308643	-0.632797439043	-0.22020960263	-1.26806640625	0.474609375	0.00439453125	-17.625	36.875	24.1875
18	12	13	15	17	31	-0.410826312119	-0.63970741009	-0.220397238607	-1.25634765625	0.419921875	0.0341796875	-7.8125	49.1875	33.4375
18	12	13	15	17	31	-0.412521280657	-0.648779584759	-0.218619799869	-1.158203125	0.359375	0.06640625	7.8125	62.1875	45.5
18	12	13	15	17	31	-0.413753779893	-0.660211629606	-0.214536736439	-1.01318359375	0.34228515625	0.0751953125	22.125	75.125	59.9375
18	12	13	15	17	31	-0.415940580281	-0.673378198421	-0.209404568003	-0.98193359375	0.369140625	0.03271484375	22.5625	87.0625	75.3125
18	12	13	15	17	31	-0.420095796491	-0.686752564596	-0.205073641757	-1.0322265625	0.42626953125	-0.0322265625	9.375	96.3125	85.5
18	12	13	15	17	31	-0.426803805233	-0.698705843316	-0.202934742228	-1.095703125	0.44091796875	-0.072265625	-14.1875	102.0625	91.1875
18	12	13	15	17	31	-0.435846820205	-0.709647245277	-0.201901873861	-1.1640625	0.40283203125	-0.0869140625	-31.4375	107.6875	99.4375
18	12	13	15	17	31	-0.445420919278	-0.720131738361	-0.200738476775	-1.18896484375	0.37646484375	-0.11328125	-35.4375	110.1875	105.3125
18	12	13	15	17	32	-0.454828179511	-0.730093221056	-0.199216207451	-1.205078125	0.3828125	-0.15087890625	-36.25	109.9375	107.625
18	12	13	15	17	32	-0.463911129309	-0.739108508872	-0.197807652952	-1.205078125	0.4013671875	-0.18359375	-37.1875	107.1875	105.1875
18	12	13	15	17	32	-0.472269385736	-0.747220740445	-0.19658564118	-1.158203125	0.38818359375	-0.18603515625	-36.5625	103.875	100.3125
18	12	13	15	17	32	-0.479647478253	-0.754778007833	-0.195423237736	-1.056640625	0.34326171875	-0.16552734375	-32.8125	101.25	95.625
18	12	13	15	17	32	-0.485885972334	-0.762366747949	-0.193719642782	-0.94482421875	0.298828125	-0.1328125	-26.625	100.9375	95.0625
18	12	13	15	17	32	-0.490943455091	-0.769860858096	-0.191946440361	-0.85546875	0.26953125	-0.11865234375	-20.9375	101.0625	91.9375
18	12	13	15	17	32	-0.495225490746	-0.776955940004	-0.190546460699	-0.79736328125	0.27783203125	-0.12060546875	-19.0625	100.875	87.1875
18	12	13	15	17	32	-0.499557484662	-0.782996086833	-0.190179733929	-0.7744140625	0.2890625	-0.14111328125	-23.9375	100.5	81.0
18	12	13	15	17	32	-0.503763783552	-0.78671131209	-0.192619154457	-0.77392578125	0.3046875	-0.17431640625	-33.3125	97.875	73.9375
18	12	13	15	17	32	-0.508338480773	-0.789148343906	-0.196219019773	-0.76953125	0.30126953125	-0.1982421875	-41.1875	94.125	66.625
18	12	13	15	17	32	-0.513235892313	-0.790330784821	-0.200680177658	-0.765625	0.30029296875	-0.224609375	-47.3125	88.25	59.25
18	12	13	15	17	32	-0.518292535812	-0.790377807203	-0.205681328979	-0.7626953125	0.29736328125	-0.2451171875	-51.6875	79.9375	51.5
18	12	13	15	17	32	-0.522993103293	-0.789646956518	-0.210930582913	-0.75390625	0.29541015625	-0.2578125	-51.0625	70.125	43.6875
18	12	13	15	17	32	-0.527323129763	-0.788238220011	-0.216056004556	-0.75830078125	0.30615234375	-0.26708984375	-48.6875	58.4375	35.625
18	12	13	15	17	32	-0.531296346481	-0.786111078997	-0.22124632464	-0.76416015625	0.30322265625	-0.2646484375	-46.0	45.875	26.5
18	12	13	15	17	32	-0.534381759743	-0.783690746558	-0.226300544213	-0.751953125	0.306640625	-0.25	-38.625	33.0625	16.4375
18	12	13	15	17	32	-0.536244073557	-0.781295286319	-0.230952375864	-0.76513671875	0.326171875	-0.25830078125	-28.3125	19.3125	6.6875
18	12	13	15	17	32	-0.536959143799	-0.778767751179	-0.235156124239	-0.80224609375	0.3623046875	-0.265625	-18.25	3.5	-3.9375
18	12	13	15	17	32	-0.536736163866	-0.775746718528	-0.239193657743	-0.857421875	0.39501953125	-0.26123046875	-9.0	-12.75	-16.5625
18	12	13	15	17	32	-0.534953323948	-0.772615416756	-0.242971954665	-0.90966796875	0.44580078125	-0.26904296875	3.8125	-28.75	-30.125
18	12	13	15	17	32	-0.531772191186	-0.769125806648	-0.246447389878	-0.9541015625	0.486328125	-0.29296875	14.6875	-46.125	-44.25
18	12	13	15	17	32	-0.527397716178	-0.764943360359	-0.24895906542	-1.064453125	0.55419921875	-0.3427734375	24.1875	-68.5	-56.25
18	12	13	15	17	32	-0.522503740314	-0.759372916363	-0.250296441891	-1.18017578125	0.63671875	-0.36962890625	30.1875	-92.875	-68.3125
18	12	13	15	17	32	-0.51824083279	-0.752489839532	-0.24962960854	-1.275390625	0.6708984375	-0.33544921875	33.8125	-113.25	-83.1875
18	12	13	15	17	32	-0.511094125496	-0.745096379753	-0.2488944165	-1.22509765625	0.63623046875	-0.23193359375	50.5	-124.75	-99.8125
18	12	13	15	17	32	-0.50004502081	-0.738562772712	-0.246818267321	-1.10546875	0.60107421875	-0.1376953125	75.875	-130.0625	-108.625
18	12	13	15	17	32	-0.486733592042	-0.732267039162	-0.243336279808	-0.9560546875	0.60107421875	-0.033203125	90.875	-131.75	-110.9375
18	12	13	15	17	32	-0.473375938081	-0.72526125222	-0.239678611249	-0.8466796875	0.60791015625	0.05810546875	88.0625	-127.1875	-109.1875
18	12	13	15	17	32	-0.462810606125	-0.716767474395	-0.236379464265	-0.80517578125	0.62890625	0.07275390625	67.625	-121.8125	-99.25
18	12	13	15	17	32	-0.45732075415	-0.705664294606	-0.235343497665	-0.81396484375	0.62646484375	0.06396484375	27.875	-114.375	-88.6875
18	12	13	15	17	32	-0.456900175742	-0.691880896636	-0.238032418567	-0.9208984375	0.564453125	0.00634765625	-16.4375	-104.875	-82.125
18	12	13	15	17	32	-0.459268223104	-0.676665354094	-0.243335867843	-1.04345703125	0.47119140625	-0.046875	-43.0625	-96.25	-79.6875
18	12	13	15	17	32	-0.460189976741	-0.66202661508	-0.250052829537	-1.06640625	0.3876953125	-0.0556640625	-43.3125	-87.4375	-82.4375
18	12	13	15	17	32	-0.457821269574	-0.649592290639	-0.255491245759	-0.97216796875	0.31787109375	-0.05712890625	-21.6875	-80.75	-83.4375
18	12	13	15	17	32	-0.452375731185	-0.640295978935	-0.25737566897	-0.85205078125	0.29248046875	-0.0537109375	8.8125	-76.5	-78.0625
18	12	13	15	17	32	-0.445242502378	-0.633715271033	-0.255426987313	-0.7607421875	0.30419921875	-0.0439453125	33.625	-72.75	-67.875
18	12	13	15	17	32	-0.437540300052	-0.629425737821	-0.250537443397	-0.720703125	0.361328125	-0.0673828125	48.3125	-69.5	-57.6875
18	12	13	15	17	32	-0.430422871432	-0.626224994454	-0.244569547054	-0.7138671875	0.40625	-0.0751953125	49.5625	-65.1875	-50.1875
18	12	13	15	17	32	-0.424614405411	-0.6234025495	-0.239192734628	-0.72021484375	0.4306640625	-0.0986328125	40.5625	-59.5625	-44.5625
18	12	13	15	17	32	-0.420276536281	-0.620649447784	-0.235161994524	-0.73876953125	0.443359375	-0.123046875	27.3125	-54.375	-40.8125
18	12	13	15	17	32	-0.417277673142	-0.617646636272	-0.232777101852	-0.76220703125	0.43798828125	-0.13916015625	13.5625	-49.1875	-38.375
18	12	13	15	17	32	-0.414731079475	-0.614741932667	-0.231626850126	-0.78759765625	0.40234375	-0.123046875	7.1875	-43.3125	-36.1875
18	12	13	15	17	32	-0.411237380329	-0.613072051856	-0.229848615957	-0.802734375	0.3623046875	-0.08984375	15.75	-35.8125	-32.0
18	12	13	15	17	32	-0.406417255479	-0.613379398943	-0.226248500685	-0.79443359375	0.35302734375	-0.05078125	31.5625	-26.875	-26.25
18	12	13	15	17	32	-0.400868159499	-0.615706149973	-0.220941342477	-0.78857421875	0.37109375	-0.01708984375	44.375	-16.5625	-19.8125
18	12	13	15	17	32	-0.39518926132	-0.619852067639	-0.214897511831	-0.802734375	0.40625	-0.0166015625	49.75	-5.9375	-13.5625
18	12	13	15	17	32	-0.390311316823	-0.625169479002	-0.209223955288	-0.83544921875	0.443359375	-0.01708984375	45.125	5.1875	-8.0
18	12	13	15	17	32	-0.386835465317	-0.631338916573	-0.204953217503	-0.880859375	0.4755859375	-0.04052734375	34.375	16.4375	-3.0
18	12	13	15	17	32	-0.384825537659	-0.637937592326	-0.202514057725	-0.94580078125	0.48388671875	-0.04052734375	21.25	28.125	1.8125
18	12	13	15	17	32	-0.383419344983	-0.645013632248	-0.201841415769	-0.97265625	0.4521484375	-0.041015625	12.5	39.5625	4.75
18	12	13	15	17	33	-0.38196145698	-0.652959997886	-0.201539905872	-0.98779296875	0.4189453125	-0.03515625	12.8125	49.4375	9.75
18	12	13	15	17	33	-0.380667344846	-0.662154886041	-0.20061785514	-1.09033203125	0.4501953125	-0.08349609375	15.375	55.75	17.375
18	12	13	15	17	33	-0.380302034997	-0.671677723502	-0.199824885665	-1.26611328125	0.4970703125	-0.123046875	10.25	59.625	24.625
18	12	13	15	17	33	-0.380053089548	-0.681007286523	-0.198540661683	-1.37060546875	0.482421875	-0.09619140625	12.5	62.4375	30.875
18	12	13	15	17	33	-0.378788539298	-0.691231100152	-0.195558891381	-1.23193359375	0.427734375	-0.04443359375	25.875	68.75	37.75
18	12	13	15	17	33	-0.378217839769	-0.702238900175	-0.191031440774	-1.06005859375	0.3486328125	0.0341796875	30.75	79.5	53.0625
18	12	13	15	17	33	-0.378774636907	-0.714032303767	-0.185298066009	-0.994140625	0.2802734375	0.09619140625	31.5625	91.1875	71.125
18	12	13	15	17	33	-0.379556996292	-0.728170851063	-0.178273996811	-0.978515625	0.2470703125	0.10546875	33.5625	101.625	84.8125
18	12	13	15	17	33	-0.380971112763	-0.742838739737	-0.17052760158	-1.01513671875	0.24951171875	0.07666015625	31.9375	109.625	95.1875
18	12	13	15	17	33	-0.382742450873	-0.757855686891	-0.16216659097	-1.0966796875	0.271484375	0.04150390625	31.4375	117.0625	104.3125
18	12	13	15	17	33	-0.384377487732	-0.773027192698	-0.15312847201	-1.17578125	0.30224609375	-0.00830078125	32.9375	122.6875	110.75
18	12	13	15	17	33	-0.386088811542	-0.787923894564	-0.143669469233	-1.20849609375	0.35107421875	-0.06494140625	32.25	126.25	115.625
18	12	13	15	17	33	-0.386648022674	-0.802653219604	-0.133541574366	-1.22705078125	0.376953125	-0.13818359375	37.9375	127.3125	117.25
18	12	13	15	17	33	-0.387082952963	-0.816279945273	-0.124205898656	-1.17333984375	0.43701171875	-0.17431640625	34.5	127.0	111.9375
18	12	13	15	17	33	-0.387749047334	-0.82853664687	-0.11614771558	-1.0693359375	0.45556640625	-0.19482421875	27.5625	125.3125	104.4375
18	12	13	15	17	33	-0.389572859419	-0.838957939146	-0.109431950014	-0.97509765625	0.45361328125	-0.22314453125	15.4375	120.8125	98.1875
18	12	13	15	17	33	-0.392810744965	-0.847326223174	-0.103695689201	-0.92578125	0.439453125	-0.24560546875	2.0	112.25	92.75
18	12	13	15	17	33	-0.397083758798	-0.852393448413	-0.100216958492	-0.90234375	0.4287109375	-0.279296875	-10.125	99.375	86.0625
18	12	13	15	17	33	-0.402270886759	-0.855565663872	-0.0975923453083	-0.88818359375	0.4140625	-0.287109375	-19.875	84.1875	77.8125
18	12	13	15	17	33	-0.40776872573	-0.857223731908	-0.0957014461824	-0.87060546875	0.390625	-0.296875	-25.875	68.6875	69.0625
18	12	13	15	17	33	-0.412950618267	-0.857760565935	-0.0942962910467	-0.85400390625	0.3544921875	-0.30419921875	-28.375	52.8125	60.0625
18	12	13	15	17	33	-0.417473800058	-0.857408178833	-0.0932602290188	-0.837890625	0.310546875	-0.30126953125	-27.5	36.3125	51.1875
18	12	13	15	17	33	-0.421138484981	-0.856375954024	-0.0920401210654	-0.82470703125	0.2890625	-0.30517578125	-23.8125	18.5	43.0625
18	12	13	15	17	33	-0.423942335168	-0.854659447072	-0.0903913904958	-0.82666015625	0.28466796875	-0.30712890625	-19.4375	-0.0625	35.4375
18	12	13	15	17	33	-0.425779351381	-0.85229112137	-0.0883174772718	-0.84033203125	0.28466796875	-0.3193359375	-15.0	-19.0625	28.3125
18	12	13	15	17	33	-0.426808999388	-0.849162535175	-0.0857524158644	-0.85546875	0.28466796875	-0.31982421875	-10.1875	-38.1875	21.125
18	12	13	15	17	33	-0.426315729374	-0.845551627023	-0.0823945933651	-0.8720703125	0.2744140625	-0.32568359375	-2.125	-57.3125	14.5
18	12	13	15	17	33	-0.423807300281	-0.84157241699	-0.0779990970276	-0.8974609375	0.263671875	-0.33203125	9.0625	-76.9375	8.625
18	12	13	15	17	33	-0.41911270049	-0.837187842235	-0.072262915011	-0.9150390625	0.2568359375	-0.33642578125	22.5625	-96.6875	3.125
18	12	13	15	17	33	-0.413811130262	-0.832810158174	-0.0623158058993	-0.92822265625	0.2451171875	-0.33935546875	39.75	-116.375	-1.5625
18	12	13	15	17	33	-0.405335853548	-0.828188856617	-0.0501100339953	-0.93359375	0.2392578125	-0.349609375	60.1875	-136.25	-4.4375
18	12	13	15	17	33	-0.393294379434	-0.823147314623	-0.0350937722183	-0.93505859375	0.2421875	-0.37451171875	82.75	-156.6875	-6.0625
18	12	13	15	17	33	-0.377857739148	-0.817176105548	-0.0169672833925	-0.9501953125	0.259765625	-0.40966796875	104.125	-178.0	-5.875
18	12	13	15	17	33	-0.358942067664	-0.809923692892	0.00427239325565	-0.9501953125	0.28125	-0.447265625	125.3125	-199.0	-5.1875
18	12	13	15	17	33	-0.336845174609	-0.800701548413	0.0287468884292	-0.95751953125	0.3115234375	-0.48828125	144.6875	-219.9375	-2.875
18	12	13	15	17	33	-0.312427934321	-0.788607411478	0.0564555263229	-1.00048828125	0.34765625	-0.55126953125	158.1875	-242.4375	2.1875
18	12	13	15	17	33	-0.285637085972	-0.77299010552	0.086728696403	-1.0625	0.37744140625	-0.5849609375	169.4375	-265.0	5.875
18	12	13	15	17	33	-0.255614854432	-0.753783059272	0.11956769337	-1.11767578125	0.3818359375	-0.62255859375	185.875	-285.5625	7.8125
18	12	13	15	17	33	-0.221621506064	-0.731027479517	0.155458544738	-1.1591796875	0.35693359375	-0.63525390625	208.0625	-303.4375	11.625
18	12	13	15	17	33	-0.182674108655	-0.704879144956	0.19536913525	-1.21484375	0.349609375	-0.62646484375	241.25	-316.0625	16.75
18	12	13	15	17	33	-0.138978264097	-0.675665078417	0.239137829922	-1.24560546875	0.3857421875	-0.6025390625	276.0	-320.75	22.0625
18	12	13	15	17	33	-0.0930152296917	-0.643599473162	0.284843882527	-1.23193359375	0.4462890625	-0.52783203125	298.625	-315.125	28.25
18	12	13	15	17	33	-0.0460810249719	-0.610161598205	0.330135449104	-1.17236328125	0.5029296875	-0.4638671875	310.5	-297.75	27.125
18	12	13	15	17	33	0.0	-0.576477263388	0.372802871866	-1.0927734375	0.51513671875	-0.4169921875	308.5	-274.25	23.125
18	12	13	15	17	33	0.0426030001927	-0.543218770365	0.411381405872	-1.01953125	0.5673828125	-0.36572265625	290.1875	-248.5625	22.25
18	12	13	15	17	33	0.0798344176973	-0.510928066165	0.444277313776	-0.9384765625	0.6484375	-0.318359375	255.625	-224.25	22.1875
18	12	13	15	17	33	0.10937743808	-0.480784642722	0.468150083748	-0.85986328125	0.7138671875	-0.2744140625	192.3125	-200.9375	21.75
18	12	13	15	17	33	0.130864250164	-0.454850929208	0.479754200695	-0.81005859375	0.7314453125	-0.21484375	105.8125	-179.25	12.8125
