18	12	13	14	56	22	-0.276853272996	-0.560786567964	-0.243711446004	-1.00244140625	0.16455078125	0.3076171875	21.25	38.4375	-66.625
18	12	13	14	56	22	-0.267144299786	-0.564195089609	-0.2479797327	-1.0673828125	0.12158203125	0.27099609375	14.5625	36.625	-62.6875
18	12	13	14	56	22	-0.258419536087	-0.567497601922	-0.251461617543	-1.1123046875	0.08837890625	0.2900390625	14.5	35.75	-55.0625
18	12	13	14	56	22	-0.250554597575	-0.57270494252	-0.252385690858	-1.3798828125	0.08837890625	0.2841796875	23.6875	38.4375	-41.0625
18	12	13	14	56	22	-0.242010547753	-0.578383846283	-0.250433613476	-1.4404296875	0.0126953125	0.2099609375	41.5	30.125	-30.4375
18	12	13	14	56	22	-0.234068364541	-0.58269900294	-0.246031180565	-1.314453125	-0.025390625	0.18408203125	50.875	15.6875	-20.3125
18	12	13	14	56	22	-0.228943525254	-0.585145714907	-0.239624708118	-1.0849609375	-0.06787109375	0.16015625	49.9375	-1.5625	-1.5625
18	12	13	14	56	22	-0.227842820822	-0.586116959109	-0.232359394286	-0.87890625	-0.08984375	0.19677734375	38.6875	-9.3125	20.0625
18	12	13	14	56	22	-0.231813020874	-0.588138564809	-0.224122541509	-0.86181640625	0.02197265625	0.19287109375	22.6875	-5.6875	42.5625
18	12	13	14	56	22	-0.240360417394	-0.590708003947	-0.218753615018	-0.966796875	0.138671875	0.1494140625	-9.0625	-0.4375	49.25
18	12	13	14	56	22	-0.253540617105	-0.591554083047	-0.218872569316	-0.9951171875	0.18701171875	0.17236328125	-53.3125	2.125	49.1875
18	12	13	14	56	22	-0.270872896297	-0.591184063437	-0.223692916839	-1.037109375	0.21240234375	0.18505859375	-91.875	6.3125	51.875
18	12	13	14	56	22	-0.290158673177	-0.588434953324	-0.232969216558	-1.095703125	0.20703125	0.18408203125	-119.4375	5.375	54.6875
18	12	13	14	56	22	-0.312004742654	-0.583849250436	-0.243891031229	-1.09326171875	0.18359375	0.18896484375	-139.125	0.0625	59.3125
18	12	13	14	56	22	-0.335991386345	-0.577563394911	-0.254755321817	-1.0380859375	0.14306640625	0.21240234375	-149.75	-7.0625	67.6875
18	12	13	14	56	22	-0.361510951022	-0.570189988932	-0.2644651276	-0.962890625	0.087890625	0.2275390625	-152.4375	-13.625	78.5625
18	12	13	14	56	22	-0.387563989058	-0.562120368382	-0.272515466322	-0.89013671875	0.046875	0.234375	-150.125	-19.0625	87.0
18	12	13	14	56	22	-0.413980895504	-0.553378266186	-0.279221966229	-0.85400390625	0.02978515625	0.22705078125	-147.875	-23.625	92.875
18	12	13	14	56	22	-0.440176474857	-0.543873068144	-0.285028305267	-0.86083984375	0.02197265625	0.19873046875	-146.125	-28.4375	95.0625
18	12	13	14	56	22	-0.465883314039	-0.533571588017	-0.289979251277	-0.89404296875	0.01953125	0.177734375	-143.5625	-33.0	94.875
18	12	13	14	56	22	-0.490889758052	-0.522504938292	-0.293874696633	-0.94287109375	-0.0009765625	0.15234375	-138.875	-39.0	94.75
18	12	13	14	56	22	-0.514520374542	-0.511346583382	-0.295956025641	-0.9755859375	0.01025390625	0.14306640625	-127.4375	-45.1875	93.5625
18	12	13	14	56	22	-0.536243055791	-0.500660344486	-0.295769843884	-0.99072265625	0.03271484375	0.13916015625	-110.75	-50.625	90.5625
18	12	13	14	56	22	-0.554439442267	-0.491695744925	-0.295163930295	-1.00390625	0.06689453125	0.14013671875	-91.8125	-54.125	86.375
18	12	13	14	56	22	-0.57000065354	-0.484125193691	-0.292660149237	-1.01708984375	0.087890625	0.14794921875	-71.6875	-56.25	80.0
18	12	13	14	56	22	-0.582753542422	-0.478019034798	-0.288569202825	-1.00439453125	0.09130859375	0.14013671875	-50.3125	-58.1875	71.875
18	12	13	14	56	22	-0.593067016533	-0.473318381519	-0.282465179841	-0.9697265625	0.10205078125	0.16748046875	-29.5	-59.75	64.875
18	12	13	14	56	22	-0.60076398954	-0.470516061705	-0.275205204596	-0.97314453125	0.15673828125	0.2001953125	-10.5	-56.4375	55.375
18	12	13	14	56	22	-0.605284576856	-0.46972573394	-0.268371108645	-1.0537109375	0.22216796875	0.2060546875	3.875	-49.0	40.3125
18	12	13	14	56	22	-0.606563760643	-0.470456174988	-0.263365126502	-1.17724609375	0.25244140625	0.21533203125	13.1875	-39.375	23.8125
18	12	13	14	56	22	-0.604362698783	-0.472894585959	-0.2608000214	-1.30908203125	0.2744140625	0.21875	21.0625	-26.625	5.8125
18	12	13	14	56	22	-0.599529246636	-0.476425256973	-0.260611817483	-1.30517578125	0.22216796875	0.240234375	27.0625	-10.8125	-7.625
18	12	13	14	56	22	-0.591800223839	-0.482180462905	-0.261292982493	-1.30810546875	0.21533203125	0.3046875	42.4375	7.5	-18.125
18	12	13	14	56	22	-0.580544032519	-0.489910318443	-0.263356549655	-1.1943359375	0.15478515625	0.24658203125	56.4375	22.5	-33.625
18	12	13	14	56	22	-0.56907575209	-0.497544565749	-0.265068210138	-0.91943359375	-0.0556640625	0.23095703125	63.0625	28.5625	-26.25
18	12	13	14	56	22	-0.558704542704	-0.504506417958	-0.263300349271	-0.65771484375	-0.18115234375	0.24951171875	74.4375	19.625	-12.6875
18	12	13	14	56	22	-0.548681210469	-0.511390418523	-0.259448701413	-0.52099609375	-0.10205078125	0.2451171875	78.4375	14.75	-14.0
18	12	13	14	56	22	-0.538300539484	-0.517427661422	-0.257737321796	-0.65087890625	-0.005859375	0.21337890625	66.375	15.0625	-26.25
18	12	13	14	56	22	-0.528490551159	-0.521044443382	-0.25933206512	-0.87060546875	0.00927734375	0.1494140625	43.8125	8.0	-35.3125
18	12	13	14	56	22	-0.519284081916	-0.522030647935	-0.263182059382	-0.97314453125	0.01171875	0.130859375	26.125	-0.5	-45.0625
18	12	13	14	56	22	-0.508452750002	-0.522856164838	-0.267195551495	-1.0078125	0.0458984375	0.17626953125	31.8125	1.25	-58.0
18	12	13	14	56	22	-0.493951921935	-0.526300188169	-0.270321643674	-1.06982421875	0.0849609375	0.23193359375	54.1875	14.5	-70.4375
18	12	13	14	56	22	-0.476078306754	-0.532780453802	-0.272585348457	-1.1083984375	0.099609375	0.25732421875	76.125	30.9375	-77.0
18	12	13	14	56	22	-0.456467462791	-0.541181574083	-0.273978130829	-1.06689453125	0.13232421875	0.2568359375	87.625	42.625	-80.0
18	12	13	14	56	22	-0.437132622283	-0.548704590103	-0.275634029912	-0.9833984375	0.208984375	0.27783203125	81.875	45.375	-87.8125
18	12	13	14	56	22	-0.419299586706	-0.55369517476	-0.279777191479	-0.90234375	0.24609375	0.3046875	59.9375	45.5625	-97.25
18	12	13	14	56	22	-0.402642845733	-0.555838774609	-0.289363306294	-0.8447265625	0.21875	0.32666015625	28.1875	46.25	-103.75
18	12	13	14	56	22	-0.387617657395	-0.555701270757	-0.302416232466	-0.8310546875	0.15771484375	0.3349609375	2.75	47.1875	-109.0625
18	12	13	14	56	23	-0.37266430351	-0.554724181887	-0.316575457305	-0.857421875	0.07275390625	0.33642578125	-4.5625	48.0	-111.625
18	12	13	14	56	23	-0.3564881675	-0.5544761174	-0.328779619641	-0.9072265625	-0.00732421875	0.333984375	9.0625	47.625	-109.1875
18	12	13	14	56	23	-0.338070505133	-0.555902899576	-0.336727744506	-0.94970703125	-0.03759765625	0.3193359375	38.5	45.375	-103.625
18	12	13	14	56	23	-0.318783418258	-0.558038826946	-0.339107921088	-0.99853515625	-0.03857421875	0.2744140625	66.875	39.0	-95.9375
18	12	13	14	56	23	-0.299439454299	-0.560975952805	-0.337830692936	-1.0224609375	-0.01708984375	0.23974609375	83.6875	30.8125	-87.375
18	12	13	14	56	23	-0.281114782494	-0.563450211025	-0.334518046645	-0.978515625	-0.0166015625	0.21533203125	88.1875	21.6875	-79.125
18	12	13	14	56	23	-0.265011061807	-0.56499479483	-0.33019572648	-0.89013671875	-0.0078125	0.22802734375	82.8125	14.125	-69.1875
18	12	13	14	56	23	-0.252137930584	-0.566593175892	-0.325380611945	-0.88427734375	0.05322265625	0.2431640625	70.5625	13.25	-56.75
18	12	13	14	56	23	-0.242543135642	-0.568822854601	-0.321458151844	-0.9736328125	0.08984375	0.22265625	52.625	15.875	-45.875
18	12	13	14	56	23	-0.236021961383	-0.570737357355	-0.319029426467	-1.00927734375	0.08251953125	0.2041015625	33.625	14.5625	-36.875
18	12	13	14	56	23	-0.232297299873	-0.572076350949	-0.316891114278	-0.99169921875	0.0625	0.22607421875	21.0	11.4375	-24.9375
18	12	13	14	56	23	-0.232110770184	-0.575363720884	-0.312736152096	-1.2314453125	0.1005859375	0.2958984375	15.75	18.75	-3.0625
18	12	13	14	56	23	-0.23381664983	-0.581215337074	-0.305774318885	-1.5302734375	0.11865234375	0.1875	23.375	17.3125	16.9375
18	12	13	14	56	23	-0.2356528761	-0.584829282256	-0.297907715163	-1.3955078125	0.0673828125	0.1552734375	28.125	-0.9375	20.4375
18	12	13	14	56	23	-0.240840681115	-0.586721101764	-0.28887454225	-1.17626953125	0.0673828125	0.1591796875	20.8125	-15.75	38.4375
18	12	13	14	56	23	-0.249019846974	-0.587088702953	-0.280147327846	-0.9970703125	0.02490234375	0.18310546875	7.875	-23.375	53.5625
18	12	13	14	56	23	-0.26006704322	-0.587393856829	-0.271846658179	-0.9111328125	0.04296875	0.1865234375	-5.875	-22.625	66.75
18	12	13	14	56	23	-0.273917754209	-0.58799546436	-0.264579648952	-0.953125	0.1064453125	0.169921875	-22.3125	-19.625	75.5625
18	12	13	14	56	23	-0.291074286012	-0.587946864574	-0.260068679534	-1.0185546875	0.16943359375	0.1630859375	-49.4375	-17.4375	79.5
18	12	13	14	56	23	-0.311764836037	-0.586603727321	-0.258969890232	-1.09912109375	0.20654296875	0.17919921875	-81.0	-14.875	84.0625
18	12	13	14	56	23	-0.334535496592	-0.582949922998	-0.261598091296	-1.171875	0.2041015625	0.18994140625	-106.8125	-16.0	89.1875
18	12	13	14	56	23	-0.359553062514	-0.57726241135	-0.265743343097	-1.15234375	0.166015625	0.20458984375	-125.5	-21.25	93.1875
18	12	13	14	56	23	-0.386225061056	-0.569633137617	-0.270137819253	-1.044921875	0.0771484375	0.21923828125	-136.4375	-28.3125	98.875
18	12	13	14	56	23	-0.413755738162	-0.560910935788	-0.273253347065	-0.92626953125	0.0068359375	0.240234375	-136.875	-35.1875	107.0625
18	12	13	14	56	23	-0.441271659367	-0.551620090921	-0.274711443819	-0.81689453125	-0.01025390625	0.23291015625	-132.0625	-40.375	112.375
18	12	13	14	56	23	-0.468316903372	-0.542046451042	-0.274837875131	-0.7666015625	0.01220703125	0.22412109375	-127.0625	-43.0625	115.375
18	12	13	14	56	23	-0.494643400143	-0.531936973376	-0.274666251313	-0.77978515625	0.0439453125	0.20556640625	-125.8125	-44.3125	113.5
18	12	13	14	56	23	-0.520131702246	-0.520925144176	-0.274836077824	-0.849609375	0.08203125	0.1943359375	-127.5625	-45.625	108.4375
18	12	13	14	56	23	-0.544538516881	-0.508895108019	-0.275565053095	-0.9638671875	0.11181640625	0.18603515625	-129.0	-47.5625	101.5
18	12	13	14	56	23	-0.567356928208	-0.496010085579	-0.276232514745	-1.08251953125	0.1064453125	0.169921875	-125.875	-51.5625	92.875
18	12	13	14	56	23	-0.58812658799	-0.48278137308	-0.275936104639	-1.1142578125	0.060546875	0.17041015625	-115.5	-57.625	84.625
18	12	13	14	56	23	-0.604769972612	-0.471109034069	-0.276049509146	-1.04248046875	0.0234375	0.1904296875	-94.8125	-61.875	79.875
18	12	13	14	56	23	-0.618562875013	-0.461770765895	-0.273241834379	-0.958984375	0.04345703125	0.2080078125	-66.875	-62.875	73.25
18	12	13	14	56	23	-0.628867211072	-0.455477095908	-0.26804976621	-0.91943359375	0.10400390625	0.2333984375	-37.3125	-59.75	62.0625
18	12	13	14	56	23	-0.635357119832	-0.452318118643	-0.262138216107	-0.95947265625	0.1962890625	0.24462890625	-13.375	-52.5625	45.8125
18	12	13	14	56	23	-0.637917090157	-0.451522257269	-0.257254165233	-1.044921875	0.2548828125	0.224609375	2.6875	-45.0	25.375
18	12	13	14	56	23	-0.637690177702	-0.451351346105	-0.253599032193	-1.0625	0.2158203125	0.22705078125	12.0625	-40.25	9.5625
18	12	13	14	56	23	-0.634745903254	-0.453049888447	-0.250114299186	-1.1064453125	0.24365234375	0.30078125	28.125	-30.3125	-2.8125
18	12	13	14	56	23	-0.625537304949	-0.459219697769	-0.248530384013	-1.33544921875	0.3046875	0.23779296875	54.875	-16.375	-30.25
18	12	13	14	56	23	-0.612643901985	-0.466898371208	-0.248463172443	-1.30712890625	0.18408203125	0.240234375	71.125	-2.875	-44.4375
18	12	13	14	56	23	-0.598864003761	-0.476063924718	-0.247797376199	-1.06787109375	0.10400390625	0.29541015625	83.9375	14.8125	-42.3125
18	12	13	14	56	23	-0.583317705944	-0.486881379127	-0.246584025532	-0.88427734375	0.02001953125	0.26318359375	98.5625	26.0625	-43.5625
18	12	13	14	56	23	-0.568029590856	-0.499184917117	-0.242909398475	-0.74853515625	-0.00634765625	0.28564453125	106.25	34.25	-41.5
18	12	13	14	56	23	-0.551916305561	-0.511573866329	-0.240467792095	-0.7099609375	0.0546875	0.2822265625	103.5	41.75	-47.4375
18	12	13	14	56	23	-0.535984092944	-0.521702576461	-0.241626169889	-0.75634765625	0.09130859375	0.27734375	84.625	45.75	-53.625
18	12	13	14	56	23	-0.522252164168	-0.528843637082	-0.246875073514	-0.86376953125	0.13232421875	0.24365234375	50.625	45.8125	-59.125
18	12	13	14	56	23	-0.510674901055	-0.532281081882	-0.256527621505	-0.9765625	0.1328125	0.1689453125	14.625	39.25	-67.4375
18	12	13	14	56	23	-0.499814564301	-0.532651325272	-0.268370330838	-1.02197265625	0.0908203125	0.138671875	-3.3125	29.8125	-76.5
18	12	13	14	56	23	-0.486934328934	-0.532832375482	-0.27886725356	-0.9951171875	0.01953125	0.19287109375	12.1875	27.5	-83.4375
18	12	13	14	56	23	-0.470515776003	-0.536433150251	-0.28503160902	-0.94384765625	-0.03515625	0.22900390625	51.25	33.9375	-79.4375
18	12	13	14	56	24	-0.450364869584	-0.544478249297	-0.285819038388	-0.9267578125	-0.0029296875	0.20849609375	94.25	40.1875	-74.875
18	12	13	14	56	24	-0.428038004852	-0.55444135692	-0.283263137105	-0.94140625	0.0732421875	0.16796875	117.8125	41.875	-78.125
18	12	13	14	56	24	-0.404780215568	-0.563774856936	-0.281002429505	-0.95361328125	0.162109375	0.1806640625	117.6875	42.3125	-85.625
18	12	13	14	56	24	-0.383163642216	-0.571388661744	-0.280201382831	-0.9375	0.23486328125	0.2255859375	98.875	43.5625	-94.8125
18	12	13	14	56	24	-0.361940158611	-0.576418694422	-0.284974468896	-0.90966796875	0.26220703125	0.2880859375	70.125	48.1875	-105.0
18	12	13	14	56	24	-0.342263480137	-0.579614170982	-0.294353916673	-0.908203125	0.2412109375	0.32861328125	40.5625	55.6875	-113.125
18	12	13	14	56	24	-0.324158203915	-0.581665916647	-0.306641087643	-0.92578125	0.19140625	0.34765625	18.375	60.8125	-115.0625
18	12	13	14	56	24	-0.307117371065	-0.583046948685	-0.319323943841	-0.93994140625	0.11865234375	0.36474609375	11.0625	60.5	-111.0625
18	12	13	14	56	24	-0.290209697571	-0.584447542364	-0.330186007121	-0.97216796875	0.05908203125	0.35888671875	17.4375	56.375	-104.5
18	12	13	14	56	24	-0.274895475429	-0.584824255231	-0.336722543948	-0.974609375	0.00390625	0.318359375	28.875	48.0625	-95.4375
18	12	13	14	56	24	-0.260375655986	-0.585204357617	-0.340331612231	-0.94189453125	-0.03125	0.31201171875	38.5625	39.25	-82.9375
18	12	13	14	56	24	-0.247369717765	-0.586229000527	-0.340873395934	-0.97216796875	-0.00244140625	0.3115234375	46.1875	34.375	-68.6875
18	12	13	14	56	24	-0.236812386563	-0.588429953313	-0.33922764034	-1.0966796875	0.06591796875	0.2724609375	46.25	31.125	-54.875
18	12	13	14	56	24	-0.229487422724	-0.590258740735	-0.337456372404	-1.16015625	0.07666015625	0.21337890625	33.875	21.6875	-43.75
18	12	13	14	56	24	-0.22588655538	-0.59044218772	-0.336663128743	-1.11328125	0.044921875	0.21484375	15.3125	10.625	-32.4375
18	12	13	14	56	24	-0.225892773599	-0.59100776189	-0.334353043441	-1.24462890625	0.0341796875	0.2783203125	6.8125	9.6875	-11.8125
18	12	13	14	56	24	-0.227231188509	-0.593315708702	-0.329219723561	-1.41552734375	0.0048828125	0.173828125	16.6875	4.125	7.3125
18	12	13	14	56	24	-0.228940690314	-0.594965035773	-0.320797725484	-1.38818359375	-0.03857421875	0.16455078125	31.8125	-11.25	21.4375
18	12	13	14	56	24	-0.232904653325	-0.596482488716	-0.309196796054	-1.26904296875	-0.013671875	0.1240234375	38.625	-25.625	41.6875
18	12	13	14	56	24	-0.238339806638	-0.595818999335	-0.29644467115	-0.99658203125	-0.0947265625	0.11669921875	39.125	-43.4375	55.625
18	12	13	14	56	24	-0.247248268772	-0.594958312512	-0.281000007264	-0.8310546875	-0.05322265625	0.15625	37.0	-50.4375	79.375
18	12	13	14	56	24	-0.259821720468	-0.595264561833	-0.26482650813	-0.9091796875	0.0703125	0.1474609375	24.625	-46.4375	95.4375
18	12	13	14	56	24	-0.275629082868	-0.595507741706	-0.2515817271	-1.0185546875	0.17041015625	0.1181640625	-3.9375	-41.5	98.25
18	12	13	14	56	24	-0.294784926101	-0.594635514493	-0.243029725825	-1.08056640625	0.244140625	0.12451171875	-40.25	-36.0	95.625
18	12	13	14	56	24	-0.317435484257	-0.592025417668	-0.239007374803	-1.16015625	0.306640625	0.14111328125	-77.3125	-33.0625	94.625
18	12	13	14	56	24	-0.341673963981	-0.585508813232	-0.240477923917	-1.18994140625	0.271484375	0.169921875	-109.6875	-36.1875	91.8125
18	12	13	14	56	24	-0.367668847345	-0.576954451187	-0.243525680761	-1.158203125	0.1865234375	0.20751953125	-126.5	-40.8125	94.4375
18	12	13	14	56	24	-0.393861086967	-0.56732353996	-0.245545196477	-1.0478515625	0.08056640625	0.234375	-124.8125	-46.5625	99.0
18	12	13	14	56	24	-0.419245610772	-0.557854838034	-0.244748129159	-0.90478515625	0.03369140625	0.26416015625	-110.4375	-51.125	105.75
18	12	13	14	56	24	-0.442986200053	-0.549307770801	-0.241451282366	-0.7978515625	0.01904296875	0.25634765625	-92.9375	-51.375	109.1875
18	12	13	14	56	24	-0.46526174591	-0.541615208344	-0.236994799865	-0.7294921875	0.04736328125	0.23583984375	-82.25	-48.375	108.375
18	12	13	14	56	24	-0.486379269979	-0.533924689895	-0.233271623775	-0.71923828125	0.09716796875	0.21435546875	-82.3125	-44.125	102.6875
18	12	13	14	56	24	-0.506464000383	-0.525933995095	-0.232358212757	-0.7626953125	0.14013671875	0.1904296875	-92.0	-39.1875	94.3125
18	12	13	14	56	24	-0.526662398528	-0.516347652283	-0.233271953549	-0.8076171875	0.1572265625	0.173828125	-104.0625	-35.1875	85.4375
18	12	13	14	56	24	-0.545960528231	-0.506043458867	-0.235962370279	-0.84765625	0.173828125	0.18017578125	-110.4375	-30.875	77.125
18	12	13	14	56	24	-0.563268418116	-0.495827568401	-0.239796469258	-0.9189453125	0.1865234375	0.16748046875	-108.0	-26.625	65.375
18	12	13	14	56	24	-0.576768177924	-0.487536952937	-0.24517225087	-0.95068359375	0.16845703125	0.1572265625	-97.0	-24.9375	54.4375
18	12	13	14	56	24	-0.588486612896	-0.4800908211	-0.249139426866	-0.87060546875	0.16259765625	0.19384765625	-82.0	-23.375	49.0
18	12	13	14	56	24	-0.598061036542	-0.474469486486	-0.251760564929	-0.80078125	0.2021484375	0.2294921875	-64.6875	-17.0	41.0
18	12	13	14	56	24	-0.603934391541	-0.471367893468	-0.255001302461	-0.8759765625	0.2783203125	0.23583984375	-48.5625	-6.625	23.25
18	12	13	14	56	24	-0.605825726997	-0.470024574209	-0.260677179126	-1.0478515625	0.3046875	0.21142578125	-38.75	3.0625	1.5625
18	12	13	14	56	24	-0.604602462529	-0.469534296814	-0.268671516258	-1.1982421875	0.26123046875	0.20751953125	-32.375	10.6875	-14.375
18	12	13	14	56	24	-0.60026509202	-0.470751871352	-0.277458577359	-1.30029296875	0.23388671875	0.24951171875	-16.9375	21.625	-26.625
18	12	13	14	56	24	-0.591341424512	-0.474525707047	-0.287217746285	-1.3837890625	0.1513671875	0.2138671875	5.625	32.3125	-42.375
18	12	13	14	56	24	-0.578337383463	-0.481785068073	-0.295271872224	-1.4296875	0.0927734375	0.27001953125	39.625	45.5625	-48.5
18	12	13	14	56	24	-0.561160363344	-0.492495428739	-0.301332250797	-1.30859375	0.00634765625	0.1953125	72.75	53.8125	-54.625
18	12	13	14	56	24	-0.54356459309	-0.503831766894	-0.304130065952	-1.00146484375	-0.12451171875	0.203125	91.4375	53.8125	-44.75
18	12	13	14	56	24	-0.528371138981	-0.516103309602	-0.301385778478	-0.7197265625	-0.1328125	0.23046875	100.75	47.1875	-32.5
18	12	13	14	56	24	-0.513603183747	-0.52690864947	-0.29888470479	-0.61181640625	-0.0361328125	0.19384765625	96.125	42.6875	-29.25
18	12	13	14	56	24	-0.500663566344	-0.534659617356	-0.300105175632	-0.79638671875	0.03955078125	0.1533203125	64.625	38.75	-38.8125
18	12	13	14	56	24	-0.491376551743	-0.537761619353	-0.305531116386	-1.025390625	0.01953125	0.15087890625	22.9375	29.125	-40.125
18	12	13	14	56	25	-0.485327139956	-0.53769266889	-0.313399756498	-1.09912109375	-0.01611328125	0.15380859375	-5.8125	22.8125	-36.75
18	12	13	14	56	25	-0.478435899096	-0.537454589545	-0.321764773573	-1.14013671875	-0.0341796875	0.1689453125	-4.5	24.875	-42.125
18	12	13	14	56	25	-0.468684401733	-0.539362424549	-0.327572494348	-1.13671875	-0.03125	0.20849609375	21.8125	30.125	-46.0625
18	12	13	14	56	25	-0.456287563665	-0.544237052596	-0.329398606354	-1.041015625	0.0107421875	0.24609375	53.75	35.625	-45.75
18	12	13	14	56	25	-0.442563127593	-0.550533638242	-0.328611209345	-0.951171875	0.08837890625	0.2509765625	71.4375	37.0	-48.0625
18	12	13	14	56	25	-0.429244450685	-0.556009803177	-0.327624656801	-0.90234375	0.14013671875	0.2314453125	68.0	32.3125	-52.8125
18	12	13	14	56	25	-0.417604181104	-0.558901123409	-0.32812629021	-0.85498046875	0.14794921875	0.24609375	51.0	25.0625	-57.6875
18	12	13	14	56	25	-0.407595816348	-0.559330347561	-0.330690945339	-0.7978515625	0.12060546875	0.27490234375	32.0	21.6875	-61.8125
18	12	13	14	56	25	-0.398082620623	-0.558670687912	-0.33478736187	-0.7890625	0.10986328125	0.2939453125	21.3125	23.125	-66.75
18	12	13	14	56	25	-0.388066573163	-0.557929623354	-0.339848172282	-0.79736328125	0.111328125	0.3095703125	18.1875	28.3125	-72.125
18	12	13	14	56	25	-0.37682603057	-0.557914924755	-0.344905069444	-0.84228515625	0.099609375	0.31640625	23.25	34.1875	-75.5
18	12	13	14	56	25	-0.363890566565	-0.558897336135	-0.348692855885	-0.90771484375	0.0859375	0.3125	36.1875	36.5	-77.875
18	12	13	14	56	25	-0.349662104272	-0.560533560068	-0.350577609868	-0.96240234375	0.08203125	0.2890625	50.375	33.1875	-78.0625
18	12	13	14	56	25	-0.335080604897	-0.56219079266	-0.350766527567	-0.96142578125	0.07080078125	0.27294921875	59.0625	27.8125	-75.6875
18	12	13	14	56	25	-0.320800108424	-0.563597450759	-0.349791746838	-0.93603515625	0.046875	0.27490234375	62.5	23.1875	-71.5625
18	12	13	14	56	25	-0.307132609912	-0.564826147084	-0.347965621842	-0.9033203125	0.03076171875	0.2783203125	63.5	20.375	-66.25
18	12	13	14	56	25	-0.294906849644	-0.56631636131	-0.345502416357	-0.90283203125	0.0654296875	0.2880859375	59.1875	20.9375	-59.875
18	12	13	14	56	25	-0.284911040571	-0.56829620796	-0.34362664062	-0.9990234375	0.12841796875	0.27294921875	45.875	23.625	-54.75
18	12	13	14	56	25	-0.277822529357	-0.569865763753	-0.343555144497	-1.130859375	0.123046875	0.244140625	25.4375	22.625	-48.4375
18	12	13	14	56	25	-0.273799546379	-0.570608996679	-0.344538216521	-1.248046875	0.06982421875	0.25244140625	8.0625	18.625	-38.25
18	12	13	14	56	25	-0.272522170117	-0.572937426852	-0.343750249071	-1.55126953125	0.048828125	0.25048828125	5.1875	19.4375	-17.875
18	12	13	14	56	25	-0.270743381693	-0.574566770798	-0.340870556077	-1.59814453125	-0.12744140625	0.1875	20.0625	3.9375	-5.0625
18	12	13	14	56	25	-0.270687366446	-0.575492937592	-0.33416309612	-1.43505859375	-0.12451171875	0.16455078125	32.625	-14.9375	12.8125
18	12	13	14	56	25	-0.273672180771	-0.575358529912	-0.32512303902	-1.1767578125	-0.10107421875	0.14013671875	31.6875	-31.8125	31.625
18	12	13	14	56	25	-0.281671057877	-0.57377889818	-0.316887569338	-0.95068359375	-0.087890625	0.1298828125	7.3125	-40.9375	51.3125
18	12	13	14	56	25	-0.295351257274	-0.571171123284	-0.310793263492	-0.85400390625	-0.07470703125	0.12451171875	-26.3125	-43.1875	70.6875
18	12	13	14	56	25	-0.31341071067	-0.567679263864	-0.307612459937	-0.89404296875	-0.05517578125	0.12744140625	-58.6875	-41.25	82.0625
18	12	13	14	56	25	-0.334585870798	-0.563339581807	-0.307059743886	-0.95068359375	-0.02685546875	0.1357421875	-85.3125	-38.3125	88.3125
18	12	13	14	56	25	-0.357603676269	-0.557859293583	-0.308409519746	-1.03759765625	0.0166015625	0.14208984375	-103.75	-35.6875	91.25
18	12	13	14	56	25	-0.381418301033	-0.551283420536	-0.31031055248	-1.10009765625	0.0390625	0.14306640625	-112.375	-38.25	92.0
18	12	13	14	56	25	-0.405695050899	-0.543266383038	-0.311763249585	-1.07421875	0.0234375	0.15185546875	-114.625	-45.75	93.3125
18	12	13	14	56	25	-0.430158916418	-0.534341843536	-0.311267093322	-0.9873046875	-0.01416015625	0.19287109375	-109.125	-55.0625	98.4375
18	12	13	14	56	25	-0.453958241147	-0.525488095762	-0.307663820062	-0.9033203125	-0.01806640625	0.22265625	-93.5625	-63.125	104.3125
18	12	13	14	56	25	-0.476126780967	-0.517446846435	-0.300897965667	-0.8486328125	0.001953125	0.234375	-73.125	-67.9375	106.75
18	12	13	14	56	25	-0.496395346635	-0.510372296639	-0.292051116888	-0.82763671875	0.0380859375	0.2255859375	-56.1875	-69.4375	105.3125
18	12	13	14	56	25	-0.51433156063	-0.503894786349	-0.283318749786	-0.8330078125	0.08544921875	0.21435546875	-47.3125	-68.875	98.75
18	12	13	14	56	25	-0.530505901353	-0.497608676223	-0.275506631236	-0.84375	0.10498046875	0.197265625	-44.75	-66.1875	89.625
18	12	13	14	56	25	-0.545090325683	-0.491441865682	-0.268852635162	-0.84326171875	0.11865234375	0.19091796875	-44.4375	-61.5625	80.6875
18	12	13	14	56	25	-0.557966177618	-0.485946916014	-0.263236504492	-0.8427734375	0.14697265625	0.19677734375	-41.5	-54.625	71.625
18	12	13	14	56	25	-0.56858919175	-0.481555251493	-0.258538408786	-0.84814453125	0.1875	0.208984375	-35.125	-45.5	59.625
18	12	13	14	56	25	-0.576605683343	-0.478398999264	-0.255251928415	-0.85400390625	0.22314453125	0.20361328125	-29.3125	-35.9375	45.0625
18	12	13	14	56	25	-0.582736697351	-0.475930117925	-0.253162109406	-0.8134765625	0.22607421875	0.2158203125	-24.8125	-26.8125	33.8125
18	12	13	14	56	25	-0.587326573949	-0.473987132213	-0.252313005996	-0.75048828125	0.22314453125	0.2255859375	-22.375	-17.9375	23.6875
18	12	13	14	56	25	-0.589723031875	-0.472840439653	-0.252930267449	-0.755859375	0.23828125	0.244140625	-17.75	-8.25	9.1875
18	12	13	14	56	25	-0.588850303308	-0.473191998502	-0.25579100551	-0.87841796875	0.2919921875	0.255859375	-11.375	3.4375	-10.625
18	12	13	14	56	25	-0.58445261931	-0.474776203593	-0.261587711608	-1.03857421875	0.30029296875	0.24072265625	-7.0	14.625	-31.375
18	12	13	14	56	25	-0.577445337861	-0.476799807564	-0.269649455942	-1.10595703125	0.22265625	0.2529296875	-2.25	24.9375	-45.0625
18	12	13	14	56	25	-0.56811396031	-0.48071181257	-0.277587268102	-1.12353515625	0.193359375	0.32373046875	13.9375	38.3125	-51.0
18	12	13	14	56	25	-0.553273614757	-0.488333391248	-0.2863717375	-1.30419921875	0.1845703125	0.26318359375	39.3125	52.8125	-69.8125
18	12	13	14	56	25	-0.534916160586	-0.498172718245	-0.294863073002	-1.39453125	0.09228515625	0.28173828125	61.125	64.9375	-75.0625
18	12	13	14	56	26	-0.5147640195	-0.509454027836	-0.30193711222	-1.27294921875	0.02734375	0.263671875	77.0625	73.5	-74.5625
18	12	13	14	56	26	-0.49498484919	-0.519825642485	-0.308099077523	-1.00634765625	-0.0810546875	0.25537109375	78.3125	73.9375	-68.875
18	12	13	14	56	26	-0.478318937367	-0.528549444635	-0.312857327159	-0.7685546875	-0.08642578125	0.3076171875	67.0	71.8125	-56.0625
18	12	13	14	56	26	-0.465309383033	-0.535252267733	-0.319564523814	-0.73193359375	0.01171875	0.283203125	36.9375	71.25	-52.8125
18	12	13	14	56	26	-0.456662830058	-0.538205404363	-0.331358260409	-0.93408203125	0.00341796875	0.21826171875	-11.1875	66.5625	-51.0
18	12	13	14	56	26	-0.453961249409	-0.536294366571	-0.346482658362	-1.10205078125	-0.13037109375	0.16845703125	-57.4375	49.5625	-34.8125
18	12	13	14	56	26	-0.454587820056	-0.531552809461	-0.361021342056	-1.16650390625	-0.275390625	0.1220703125	-71.5	28.3125	-17.375
18	12	13	14	56	26	-0.453352081689	-0.528300433374	-0.36967603107	-1.20556640625	-0.3955078125	0.126953125	-33.0625	12.5625	-4.0
18	12	13	14	56	26	-0.448289306697	-0.530256977071	-0.368457800481	-1.1044921875	-0.3369140625	0.13720703125	34.4375	2.5625	7.625
18	12	13	14	56	26	-0.440844223407	-0.537154923191	-0.35899843861	-0.99365234375	-0.1552734375	0.12255859375	86.4375	-2.25	16.8125
18	12	13	14	56	26	-0.434017911977	-0.545284211166	-0.34563963374	-0.91650390625	-0.0224609375	0.126953125	100.0625	-7.375	21.1875
18	12	13	14	56	26	-0.428038850766	-0.551817945213	-0.333251408125	-0.85009765625	0.0830078125	0.15234375	89.25	-10.875	14.75
18	12	13	14	56	26	-0.423149204166	-0.556020373569	-0.323419534527	-0.80517578125	0.15625	0.19677734375	69.1875	-10.25	2.1875
18	12	13	14	56	26	-0.418682267021	-0.558263366828	-0.316880223086	-0.7734375	0.18701171875	0.2451171875	50.25	-5.8125	-11.25
18	12	13	14	56	26	-0.414352636145	-0.559427936795	-0.313037954159	-0.77392578125	0.22802734375	0.29296875	35.8125	2.0	-22.875
18	12	13	14	56	26	-0.409899382076	-0.559980171314	-0.31120859875	-0.82275390625	0.267578125	0.3505859375	26.1875	9.0625	-32.6875
18	12	13	14	56	26	-0.405579436723	-0.560059730831	-0.31042543494	-0.89453125	0.28271484375	0.4111328125	20.375	13.5625	-36.875
18	12	13	14	56	26	-0.401047792641	-0.559855638699	-0.310047601068	-0.91015625	0.2421875	0.44580078125	19.125	15.625	-37.375
18	12	13	14	56	26	-0.395189660258	-0.559918137947	-0.309560147773	-0.869140625	0.1748046875	0.46484375	26.4375	18.8125	-39.0
18	12	13	14	56	26	-0.387870023748	-0.560778879338	-0.308770173114	-0.83642578125	0.15478515625	0.44287109375	34.3125	21.75	-41.4375
18	12	13	14	56	26	-0.379935855138	-0.561816794626	-0.308465190662	-0.82861328125	0.1474609375	0.40966796875	34.5625	22.9375	-45.0
18	12	13	14	56	26	-0.372309093259	-0.562125696543	-0.310176198679	-0.830078125	0.125	0.36865234375	23.0625	23.1875	-50.0625
18	12	13	14	56	26	-0.366279331462	-0.561351609974	-0.314581515473	-0.8623046875	0.11865234375	0.333984375	2.375	23.75	-51.625
18	12	13	14	56	26	-0.362304074067	-0.559935575386	-0.321532658724	-0.98291015625	0.1240234375	0.302734375	-19.0	25.5625	-50.875
18	12	13	14	56	26	-0.359185395585	-0.558339507019	-0.32988905066	-1.158203125	0.056640625	0.25439453125	-28.6875	25.1875	-47.0625
18	12	13	14	56	26	-0.355834807169	-0.556640384457	-0.336791846648	-1.1962890625	-0.06298828125	0.2353515625	-19.9375	18.125	-38.25
18	12	13	14	56	26	-0.351860276496	-0.557117190609	-0.339104197088	-1.37646484375	-0.0537109375	0.26513671875	5.0625	16.5	-25.0625
18	12	13	14	56	26	-0.346488058546	-0.559495513949	-0.336722673771	-1.43603515625	-0.04541015625	0.14794921875	34.75	3.4375	-16.3125
18	12	13	14	56	26	-0.342461667332	-0.561451591122	-0.331170380849	-1.37744140625	-0.03173828125	0.126953125	44.125	-11.5	-4.4375
18	12	13	14	56	26	-0.340929422721	-0.56211242092	-0.324206425616	-1.25244140625	-0.05810546875	0.06298828125	40.5625	-29.5625	9.5625
18	12	13	14	56	26	-0.342208896168	-0.56027780753	-0.316575270987	-0.99072265625	-0.14501953125	0.10009765625	31.4375	-43.875	24.125
18	12	13	14	56	26	-0.347408347165	-0.558709769843	-0.307552821743	-0.85546875	-0.0947265625	0.12451171875	21.625	-44.625	45.1875
18	12	13	14	56	26	-0.35539060011	-0.55813962528	-0.29899683152	-0.88427734375	-0.03271484375	0.1162109375	7.625	-38.3125	59.0625
18	12	13	14	56	26	-0.365653538774	-0.557421760911	-0.292474003973	-0.958984375	-0.009765625	0.11962890625	-11.75	-33.0	65.25
18	12	13	14	56	26	-0.37786506917	-0.556391208294	-0.287411825346	-1.0078125	0.04931640625	0.14453125	-27.8125	-28.8125	68.625
18	12	13	14	56	26	-0.391594620115	-0.554738700472	-0.284052581361	-1.0400390625	0.119140625	0.16064453125	-43.625	-26.0	67.9375
18	12	13	14	56	26	-0.407160233781	-0.551689604729	-0.282283927632	-1.03515625	0.15966796875	0.18896484375	-60.875	-25.9375	68.625
18	12	13	14	56	26	-0.424183425543	-0.547166102157	-0.281486900518	-1.01025390625	0.15087890625	0.23095703125	-72.875	-27.8125	71.9375
18	12	13	14	56	26	-0.44175235395	-0.541784421942	-0.280382745793	-0.966796875	0.12353515625	0.26513671875	-75.125	-30.25	76.625
18	12	13	14	56	26	-0.459232990182	-0.536382179388	-0.278261988602	-0.90625	0.1337890625	0.28857421875	-70.625	-30.875	80.0625
18	12	13	14	56	26	-0.475936526776	-0.531415662816	-0.275686751917	-0.8447265625	0.1455078125	0.27783203125	-65.8125	-29.25	79.5
18	12	13	14	56	26	-0.491692213478	-0.526725894031	-0.273738775751	-0.81396484375	0.15869140625	0.2529296875	-65.25	-26.0	75.4375
18	12	13	14	56	26	-0.506050316298	-0.522163847055	-0.273075517443	-0.8037109375	0.158203125	0.22314453125	-65.75	-21.75	67.6875
18	12	13	14	56	26	-0.518598347174	-0.517743883615	-0.273977636868	-0.8349609375	0.138671875	0.1904296875	-64.875	-17.9375	58.25
18	12	13	14	56	26	-0.529670646219	-0.513496098944	-0.275760772023	-0.8486328125	0.1396484375	0.17919921875	-62.6875	-15.125	50.625
18	12	13	14	56	26	-0.539351298713	-0.509872213359	-0.277884628612	-0.85302734375	0.1513671875	0.16748046875	-58.125	-11.25	44.25
18	12	13	14	56	26	-0.547104334885	-0.507066355893	-0.280509986962	-0.88525390625	0.1630859375	0.158203125	-51.1875	-7.5625	35.8125
18	12	13	14	56	26	-0.553083515815	-0.504989297048	-0.283255417887	-0.88330078125	0.17529296875	0.16015625	-42.8125	-3.8125	27.25
18	12	13	14	56	26	-0.557283111896	-0.503819087581	-0.285995910891	-0.84228515625	0.1953125	0.17529296875	-34.0	2.0625	18.5
18	12	13	14	56	27	-0.559792050251	-0.503275757345	-0.289234030325	-0.814453125	0.20751953125	0.21484375	-26.9375	9.375	8.6875
18	12	13	14	56	27	-0.560163396296	-0.503707617088	-0.293447985334	-0.861328125	0.2529296875	0.24951171875	-20.6875	19.375	-4.25
18	12	13	14	56	27	-0.557845741274	-0.505173873143	-0.299552177043	-0.98876953125	0.29248046875	0.26171875	-15.25	30.0625	-20.5
18	12	13	14	56	27	-0.55282578939	-0.506929896961	-0.307722193653	-1.10791015625	0.24462890625	0.23388671875	-11.0	35.5	-34.75
18	12	13	14	56	27	-0.54642911417	-0.508039310438	-0.315907192555	-1.08349609375	0.12646484375	0.24365234375	-3.6875	33.4375	-39.9375
18	12	13	14	56	27	-0.537946009795	-0.510969366236	-0.321827695671	-1.1484375	0.130859375	0.30224609375	19.0625	35.8125	-41.625
18	12	13	14	56	27	-0.52524814864	-0.51652046037	-0.326525400328	-1.41748046875	0.138671875	0.234375	45.8125	35.125	-52.9375
18	12	13	14	56	27	-0.5110977267	-0.523060367544	-0.329643995928	-1.51953125	0.08154296875	0.27001953125	61.5625	36.375	-50.0625
18	12	13	14	56	27	-0.495714932848	-0.529649616751	-0.332389008162	-1.3955078125	-0.01611328125	0.19921875	68.4375	34.6875	-51.625
18	12	13	14	56	27	-0.48089503049	-0.534239649941	-0.333983704384	-1.072265625	-0.2314453125	0.1962890625	70.875	24.9375	-43.5
18	12	13	14	56	27	-0.46947792187	-0.537104226788	-0.331844963755	-0.78271484375	-0.3369140625	0.25048828125	71.125	8.6875	-20.1875
18	12	13	14	56	27	-0.46341503767	-0.539704883198	-0.326581570733	-0.6298828125	-0.24951171875	0.24365234375	59.0625	-1.75	7.0
18	12	13	14	56	27	-0.461667453904	-0.542050324976	-0.321226310139	-0.70703125	-0.0830078125	0.18701171875	37.0	-6.6875	19.9375
18	12	13	14	56	27	-0.462518617873	-0.542595739362	-0.318843660566	-0.98681640625	0.021484375	0.10205078125	8.0	-13.5625	16.75
18	12	13	14	56	27	-0.463604217982	-0.540993653001	-0.318468510984	-1.2138671875	0.0283203125	0.06884765625	-4.875	-24.5625	6.8125
18	12	13	14	56	27	-0.461602653197	-0.539543495208	-0.316707148941	-1.17578125	-0.0400390625	0.09375	16.375	-29.125	-3.0
18	12	13	14	56	27	-0.455122021057	-0.54142248207	-0.30992485221	-1.0439453125	-0.05810546875	0.14453125	63.0625	-25.8125	-4.9375
18	12	13	14	56	27	-0.445846454107	-0.547405454742	-0.296620638872	-0.94873046875	0.015625	0.177734375	106.8125	-21.5625	-0.3125
18	12	13	14	56	27	-0.434739460268	-0.555280023798	-0.280874771325	-0.8955078125	0.189453125	0.18505859375	125.9375	-17.1875	0.0
18	12	13	14	56	27	-0.424678386015	-0.561273704771	-0.268552011852	-0.88623046875	0.35693359375	0.21484375	102.6875	-13.1875	-9.25
18	12	13	14	56	27	-0.41967454425	-0.563960556846	-0.260312962657	-0.8798828125	0.43896484375	0.30615234375	56.1875	-9.1875	-20.4375
18	12	13	14	56	27	-0.419316733776	-0.561896630443	-0.260501283807	-0.82470703125	0.39697265625	0.35107421875	-5.3125	-2.6875	-29.375
18	12	13	14	56	27	-0.420149069793	-0.556557142278	-0.267201137065	-0.771484375	0.28564453125	0.39990234375	-40.625	4.5	-43.0
18	12	13	14	56	27	-0.419603495542	-0.550214619973	-0.276602624261	-0.7255859375	0.1494140625	0.46142578125	-45.875	12.5	-51.375
18	12	13	14	56	27	-0.416082498378	-0.545722989291	-0.285160251199	-0.7138671875	0.068359375	0.47314453125	-27.375	21.875	-54.4375
18	12	13	14	56	27	-0.407895774017	-0.544369655613	-0.290647864113	-0.76806640625	0.03955078125	0.42724609375	8.8125	25.625	-59.5625
18	12	13	14	56	27	-0.396480824293	-0.545039064184	-0.292844057106	-0.80859375	0.0771484375	0.3759765625	37.0625	22.3125	-65.4375
18	12	13	14	56	27	-0.383899858482	-0.546675839813	-0.293387379924	-0.8232421875	0.1259765625	0.33837890625	48.875	20.9375	-68.3125
18	12	13	14	56	27	-0.371089967033	-0.548273219384	-0.294430592264	-0.83984375	0.07958984375	0.2861328125	47.25	20.0	-68.0
18	12	13	14	56	27	-0.358273036531	-0.549494403389	-0.295834652141	-0.830078125	-0.0009765625	0.2822265625	45.9375	19.4375	-64.8125
18	12	13	14	56	27	-0.344905657901	-0.551995535314	-0.295711893918	-0.91015625	0.0068359375	0.294921875	54.8125	23.5625	-60.9375
18	12	13	14	56	27	-0.330918390129	-0.556677727105	-0.293993708087	-1.1494140625	0.0654296875	0.2490234375	64.9375	27.6875	-58.5625
18	12	13	14	56	27	-0.317444279295	-0.561463165783	-0.292358795967	-1.2783203125	0.037109375	0.18017578125	62.6875	23.5625	-54.5
18	12	13	14	56	27	-0.305728560585	-0.564764697763	-0.291079957163	-1.2314453125	-0.01513671875	0.2080078125	53.0	18.5625	-48.375
18	12	13	14	56	27	-0.29668017667	-0.568703124092	-0.288684886988	-1.36669921875	-0.03564453125	0.251953125	47.6875	20.9375	-30.125
18	12	13	14	56	27	-0.288200676615	-0.573288639442	-0.283928324357	-1.375	-0.0625	0.220703125	57.1875	16.6875	-17.3125
18	12	13	14	56	27	-0.282169851868	-0.577462463449	-0.276920747983	-1.271484375	-0.00927734375	0.20361328125	57.6875	7.375	-3.5
18	12	13	14	56	27	-0.279230590968	-0.580250323133	-0.268976877464	-1.13037109375	0.01416015625	0.17919921875	48.5625	-5.125	9.625
18	12	13	14	56	27	-0.279657419617	-0.581103948532	-0.261713447254	-0.94580078125	-0.005859375	0.16455078125	32.0	-16.0	21.3125
18	12	13	14	56	27	-0.283753467817	-0.580934718581	-0.254517522219	-0.82666015625	0.0	0.173828125	17.0	-21.5625	36.3125
18	12	13	14	56	27	-0.291254937917	-0.581228158797	-0.247737592834	-0.8486328125	0.080078125	0.16455078125	0.625	-18.625	49.0
18	12	13	14	56	27	-0.301691343957	-0.581776631721	-0.243281751368	-0.96142578125	0.18408203125	0.15380859375	-22.4375	-12.375	51.5
18	12	13	14	56	27	-0.314940254713	-0.581723947223	-0.242491789143	-1.03759765625	0.2783203125	0.1513671875	-52.1875	-6.875	48.5
18	12	13	14	56	27	-0.330928333221	-0.580375787643	-0.246273667382	-1.08349609375	0.349609375	0.14208984375	-86.5	-2.3125	42.9375
18	12	13	14	56	27	-0.347705957893	-0.575603807072	-0.25633930545	-1.1064453125	0.333984375	0.1748046875	-117.4375	1.25	37.5
18	12	13	14	56	27	-0.365297748768	-0.569522689014	-0.268739513421	-1.05712890625	0.2509765625	0.1982421875	-133.25	3.1875	34.125
18	12	13	14	56	27	-0.382320866778	-0.563288518437	-0.280698222591	-0.9775390625	0.1669921875	0.224609375	-129.625	3.6875	34.9375
18	12	13	14	56	27	-0.398194261277	-0.557374309316	-0.290283860612	-0.87841796875	0.08349609375	0.23486328125	-115.125	0.375	38.6875
18	12	13	14	56	27	-0.413318959862	-0.551742970636	-0.297050114833	-0.794921875	0.046875	0.23583984375	-99.3125	-3.1875	44.3125
18	12	13	14	56	27	-0.42748482467	-0.546807045148	-0.30199813142	-0.77197265625	0.02490234375	0.205078125	-86.75	-6.25	48.75
18	12	13	14	56	28	-0.441210358867	-0.542220615323	-0.306021405362	-0.8232421875	0.00830078125	0.17138671875	-80.8125	-9.5625	52.875
18	12	13	14	56	28	-0.454764294843	-0.537587425712	-0.309320285366	-0.9072265625	-0.01513671875	0.15185546875	-77.5	-15.0	56.8125
18	12	13	14	56	28	-0.468300090956	-0.532933193566	-0.311630426746	-0.9599609375	-0.013671875	0.12548828125	-73.5	-20.5	60.75
18	12	13	14	56	28	-0.481558730688	-0.528310820385	-0.313043691977	-1.001953125	-0.0126953125	0.10986328125	-69.125	-25.5	62.875
18	12	13	14	56	28	-0.494319611086	-0.524043484478	-0.313290846241	-1.01611328125	-0.00244140625	0.0986328125	-62.0625	-29.1875	64.875
18	12	13	14	56	28	-0.506339610463	-0.520316439151	-0.312189863491	-1.005859375	0.01318359375	0.10498046875	-52.625	-31.3125	65.75
18	12	13	14	56	28	-0.517386980339	-0.517448014547	-0.309565502451	-0.96923828125	0.05126953125	0.12939453125	-41.5	-31.125	64.625
18	12	13	14	56	28	-0.527381929887	-0.515297492655	-0.305955978998	-0.9169921875	0.10400390625	0.1474609375	-32.5	-29.6875	61.0
18	12	13	14	56	28	-0.536670266472	-0.513355352132	-0.301995277892	-0.88818359375	0.1748046875	0.18115234375	-28.875	-27.625	54.4375
18	12	13	14	56	28	-0.544714656841	-0.51181816384	-0.298997994831	-0.95361328125	0.26220703125	0.21142578125	-28.1875	-21.375	43.875
18	12	13	14	56	28	-0.550768504536	-0.510364166105	-0.298332939957	-1.09130859375	0.31298828125	0.2158203125	-30.1875	-14.875	28.0625
18	12	13	14	56	28	-0.554862062532	-0.508048818448	-0.29973903741	-1.1259765625	0.24267578125	0.23388671875	-30.125	-11.5	14.9375
18	12	13	14	56	28	-0.557040256897	-0.505956363501	-0.300827372219	-1.01611328125	0.14697265625	0.3056640625	-16.875	-6.9375	8.4375
18	12	13	14	56	28	-0.554361245566	-0.507549060677	-0.300342583886	-1.119140625	0.1669921875	0.3486328125	18.625	3.375	-3.8125
18	12	13	14	56	28	-0.54570002356	-0.513047130975	-0.299185942903	-1.28564453125	0.18603515625	0.3134765625	53.9375	11.8125	-22.3125
18	12	13	14	56	28	-0.534114193376	-0.520442432513	-0.297360798781	-1.29541015625	0.20263671875	0.32421875	72.3125	20.0625	-32.0625
18	12	13	14	56	28	-0.520608165679	-0.527565883251	-0.296252290294	-1.1748046875	0.11474609375	0.30615234375	78.6875	23.75	-41.375
18	12	13	14	56	28	-0.507847649223	-0.533420076218	-0.295456131461	-0.99267578125	-0.00439453125	0.31591796875	73.1875	23.75	-37.0625
18	12	13	14	56	28	-0.497182879519	-0.537648414643	-0.295160373846	-0.85791015625	-0.07421875	0.2724609375	59.3125	19.3125	-28.6875
18	12	13	14	56	28	-0.489974757916	-0.540327171379	-0.295339792421	-0.83251953125	-0.06298828125	0.18310546875	37.875	9.875	-17.25
18	12	13	14	56	28	-0.487601123483	-0.539358008289	-0.296930712948	-0.8251953125	-0.05029296875	0.09814453125	4.625	-8.5	-8.125
18	12	13	14	56	28	-0.48807792712	-0.535012018148	-0.300829824031	-0.89697265625	-0.06494140625	0.0625	-23.5	-21.375	-8.0625
18	12	13	14	56	28	-0.487657257292	-0.53056377192	-0.304556910374	-1.0703125	-0.11474609375	0.04150390625	-18.1875	-27.75	-9.0625
18	12	13	14	56	28	-0.483067663552	-0.529451924361	-0.30393897214	-1.18603515625	-0.1640625	0.0390625	24.6875	-31.125	-8.125
18	12	13	14	56	28	-0.473313231355	-0.533247930671	-0.296682864941	-1.1376953125	-0.12548828125	0.0595703125	82.125	-29.5	-8.9375
18	12	13	14	56	28	-0.461643389388	-0.540618342569	-0.281783121206	-1.0498046875	-0.03955078125	0.07861328125	125.875	-24.9375	-6.125
18	12	13	14	56	28	-0.447744264611	-0.549731814524	-0.264032400314	-0.99658203125	0.08349609375	0.048828125	147.75	-24.0625	-5.875
18	12	13	14	56	28	-0.434077418598	-0.557122986075	-0.247372859615	-0.984375	0.1826171875	0.05126953125	138.0625	-27.6875	-12.125
18	12	13	14	56	28	-0.423646965466	-0.560915662388	-0.234803324614	-0.90576171875	0.27001953125	0.16357421875	101.1875	-29.1875	-16.3125
18	12	13	14	56	28	-0.417588875324	-0.561444031585	-0.226249921196	-0.77294921875	0.28466796875	0.30419921875	60.0625	-24.8125	-20.375
18	12	13	14	56	28	-0.412171341413	-0.560487106203	-0.221924329539	-0.69677734375	0.27001953125	0.404296875	38.625	-11.125	-31.8125
18	12	13	14	56	28	-0.408262540405	-0.558774638572	-0.224242274398	-0.72021484375	0.27734375	0.3984375	1.8125	6.875	-42.9375
18	12	13	14	56	28	-0.401916929876	-0.557556743268	-0.228943113738	-0.734375	0.28759765625	0.45654296875	2.125	20.5625	-61.5625
18	12	13	14	56	28	-0.392938979155	-0.557670620152	-0.235531457061	-0.72509765625	0.2509765625	0.48046875	5.75	36.875	-74.1875
18	12	13	14	56	28	-0.381342316922	-0.559196272029	-0.243648932322	-0.70556640625	0.23486328125	0.47509765625	10.375	51.625	-87.1875
18	12	13	14	56	28	-0.36454508505	-0.563754051667	-0.254504102571	-0.73828125	0.26611328125	0.46142578125	22.0	65.375	-101.75
18	12	13	14	56	28	-0.345082947597	-0.56913662652	-0.266655004961	-0.79541015625	0.26708984375	0.40625	26.3125	76.125	-115.625
18	12	13	14	56	28	-0.324456843576	-0.574574252336	-0.280207179995	-0.82958984375	0.240234375	0.37890625	22.9375	83.4375	-122.875
18	12	13	14	56	28	-0.302241154309	-0.57976347431	-0.294306713667	-0.919921875	0.22607421875	0.34619140625	25.6875	86.5625	-131.5
18	12	13	14	56	28	-0.2787407702	-0.584458422473	-0.307914864388	-1.09716796875	0.21337890625	0.2880859375	30.8125	84.4375	-136.875
18	12	13	14	56	28	-0.255610059103	-0.588244925891	-0.320244980924	-1.39697265625	0.22021484375	0.22607421875	33.0625	76.8125	-134.375
18	12	13	14	56	28	-0.234983583297	-0.590327589001	-0.330563918737	-1.60498046875	0.0673828125	0.1337890625	32.1875	58.6875	-120.8125
18	12	13	14	56	28	-0.215822484923	-0.591070402713	-0.336795382297	-1.60498046875	-0.15185546875	0.1083984375	45.5625	38.75	-103.125
18	12	13	14	56	28	-0.198058687295	-0.591795695534	-0.334594059707	-1.5302734375	-0.2998046875	0.08740234375	80.75	13.125	-74.875
18	12	13	14	56	28	-0.182434304607	-0.591187244706	-0.324829497865	-1.1455078125	-0.451171875	0.1064453125	109.75	-15.0	-39.4375
18	12	13	14	56	28	-0.173037431454	-0.592538759984	-0.3092700759	-0.83203125	-0.306640625	0.177734375	111.75	-19.125	9.9375
18	12	13	14	56	28	-0.173458478341	-0.59636269946	-0.291803302233	-0.8369140625	0.0732421875	0.08935546875	80.0625	-16.5625	46.125
18	12	13	14	56	28	-0.186647666783	-0.597357983914	-0.286075086401	-0.89013671875	0.251953125	0.080078125	-26.5	-19.6875	48.875
18	12	13	14	56	28	-0.208065832517	-0.592947950397	-0.296809663694	-0.8818359375	0.140625	0.14111328125	-134.25	-19.25	46.875
18	12	13	14	56	28	-0.232237963642	-0.587278235522	-0.312071670986	-0.892578125	-0.00927734375	0.14990234375	-167.9375	-14.25	46.5
18	12	13	14	56	29	-0.254691751936	-0.582135137782	-0.325063089099	-0.95361328125	-0.05712890625	0.13232421875	-152.1875	-11.9375	49.25
18	12	13	14	56	29	-0.275022139087	-0.578059183154	-0.332394711377	-1.0224609375	-0.01318359375	0.1298828125	-118.25	-17.1875	58.625
18	12	13	14	56	29	-0.296376555788	-0.574626291751	-0.332691228501	-1.05126953125	0.07421875	0.16162109375	-90.75	-31.5	72.9375
18	12	13	14	56	29	-0.32049675285	-0.570375577107	-0.328858599192	-1.05810546875	0.1689453125	0.18896484375	-84.5	-48.25	90.625
18	12	13	14	56	29	-0.345526425273	-0.563792190469	-0.324896159994	-1.00390625	0.13916015625	0.22607421875	-88.5	-63.0625	104.0
18	12	13	14	56	29	-0.371213790943	-0.556332407834	-0.319151087281	-0.9345703125	0.0908203125	0.25634765625	-84.625	-71.625	111.8125
18	12	13	14	56	29	-0.395629695635	-0.548766830216	-0.311523290115	-0.90478515625	0.0302734375	0.24755859375	-72.125	-75.75	112.75
18	12	13	14	56	29	-0.417907967828	-0.541504234055	-0.302307311911	-0.91357421875	0.0107421875	0.23779296875	-57.25	-77.3125	109.5625
18	12	13	14	56	29	-0.438152502864	-0.534461828609	-0.292223733628	-0.9482421875	0.01513671875	0.20556640625	-46.25	-77.9375	104.0625
18	12	13	14	56	29	-0.456477139882	-0.528070626321	-0.281186011958	-0.982421875	0.03662109375	0.18359375	-34.125	-76.9375	100.25
18	12	13	14	56	29	-0.472582931935	-0.522691492844	-0.270439748341	-0.96533203125	0.0517578125	0.15673828125	-26.0	-77.0625	97.3125
18	12	13	14	56	29	-0.487597596091	-0.517870271977	-0.259331854524	-0.96533203125	0.08984375	0.15185546875	-20.6875	-75.5625	94.8125
18	12	13	14	56	29	-0.501597833331	-0.513438911412	-0.248662639692	-0.97021484375	0.12548828125	0.146484375	-19.375	-73.0625	90.75
18	12	13	14	56	29	-0.514938206731	-0.508956940373	-0.238945487656	-0.9638671875	0.15185546875	0.13134765625	-22.375	-70.625	86.375
18	12	13	14	56	29	-0.52786312029	-0.503694569517	-0.230699802832	-0.92626953125	0.1416015625	0.1455078125	-28.5625	-68.0	80.875
18	12	13	14	56	29	-0.540086143765	-0.498095041165	-0.223749101937	-0.9052734375	0.16943359375	0.18359375	-32.3125	-62.5	73.4375
18	12	13	14	56	29	-0.550156489668	-0.493212180276	-0.218866338135	-0.98828125	0.23193359375	0.2080078125	-32.6875	-53.4375	58.3125
18	12	13	14	56	29	-0.556945524835	-0.489379640343	-0.217162978341	-1.14404296875	0.25048828125	0.20849609375	-31.9375	-43.0625	38.75
18	12	13	14	56	29	-0.561455238715	-0.485772610603	-0.217770658956	-1.15478515625	0.181640625	0.22509765625	-29.0625	-34.5	25.8125
18	12	13	14	56	29	-0.564634254303	-0.48321364083	-0.217711640374	-1.00439453125	0.13037109375	0.32421875	-16.125	-22.5625	22.375
18	12	13	14	56	29	-0.562797236077	-0.485100578282	-0.217404159517	-1.10595703125	0.23583984375	0.3955078125	13.125	-2.75	2.3125
18	12	13	14	56	29	-0.554849781071	-0.491375600858	-0.21861972454	-1.25341796875	0.3203125	0.38916015625	37.6875	18.25	-26.1875
18	12	13	14	56	29	-0.545023295826	-0.498943498698	-0.221915420338	-1.17529296875	0.3076171875	0.4169921875	40.625	38.3125	-37.5625
18	12	13	14	56	29	-0.534119425362	-0.506043212853	-0.228332849992	-0.98681640625	0.15673828125	0.400390625	34.375	54.3125	-45.875
18	12	13	14	56	29	-0.52300288632	-0.512382918736	-0.235409281425	-0.7880859375	0.00341796875	0.419921875	34.75	61.0	-44.8125
18	12	13	14	56	29	-0.512146953858	-0.518738763061	-0.241760706022	-0.6669921875	-0.0634765625	0.3935546875	37.1875	62.125	-39.5625
18	12	13	14	56	29	-0.501335879159	-0.524956159806	-0.248348635537	-0.72021484375	-0.04296875	0.30224609375	33.0	57.25	-40.375
18	12	13	14	56	29	-0.490297712467	-0.529604537666	-0.257630604297	-0.90673828125	-0.0283203125	0.11865234375	16.125	44.6875	-51.0
18	12	13	14	56	29	-0.480280955098	-0.531733089441	-0.269284480098	-1.044921875	-0.05078125	-0.03173828125	-4.25	28.6875	-56.625
18	12	13	14	56	29	-0.471311908659	-0.531553407474	-0.281126994468	-1.10400390625	-0.0830078125	-0.0068359375	-13.0	18.3125	-57.875
18	12	13	14	56	29	-0.460922470731	-0.532636440952	-0.290029605524	-1.11181640625	-0.09765625	0.07177734375	8.375	21.0	-55.4375
18	12	13	14	56	29	-0.447617724057	-0.536909342586	-0.293936045686	-1.1123046875	-0.078125	0.125	46.125	24.6875	-52.1875
18	12	13	14	56	29	-0.432108419711	-0.54337023456	-0.292649699508	-1.04736328125	-0.0078125	0.1884765625	79.75	24.5625	-50.9375
18	12	13	14	56	29	-0.416186694761	-0.5501549885	-0.288382773537	-0.97314453125	0.11181640625	0.201171875	92.6875	19.5	-54.0625
18	12	13	14	56	29	-0.40105346291	-0.555469116716	-0.283624325391	-0.94140625	0.19189453125	0.25	87.875	14.9375	-59.0625
18	12	13	14	56	29	-0.386342864617	-0.558823897067	-0.280754688347	-0.904296875	0.2021484375	0.30615234375	74.875	14.9375	-68.625
18	12	13	14	56	29	-0.371511032909	-0.560775976732	-0.280143854288	-0.876953125	0.1943359375	0.353515625	63.375	19.3125	-78.875
18	12	13	14	56	29	-0.35644349467	-0.562252991936	-0.281431670193	-0.873046875	0.208984375	0.36328125	53.875	24.75	-87.9375
18	12	13	14	56	29	-0.340568573615	-0.563463991328	-0.284234381241	-0.8720703125	0.19091796875	0.37841796875	48.625	31.0625	-95.6875
18	12	13	14	56	29	-0.321760042907	-0.565643413821	-0.289657276866	-0.86474609375	0.14794921875	0.38720703125	50.8125	37.6875	-101.875
18	12	13	14	56	29	-0.301681484927	-0.568269533918	-0.295090022178	-0.8759765625	0.1298828125	0.37890625	54.625	42.9375	-105.6875
18	12	13	14	56	29	-0.281130302338	-0.57092767001	-0.300722752848	-0.89404296875	0.1259765625	0.36767578125	54.3125	46.125	-107.625
18	12	13	14	56	29	-0.261291956046	-0.572876967868	-0.307190472968	-0.896484375	0.12060546875	0.34814453125	46.125	45.5625	-107.875
18	12	13	14	56	29	-0.24315924258	-0.573780130394	-0.314935163582	-0.87890625	0.09912109375	0.3330078125	32.0	42.9375	-105.6875
18	12	13	14	56	29	-0.226927991949	-0.573606581049	-0.323607373135	-0.830078125	0.04052734375	0.32763671875	19.125	39.125	-101.3125
18	12	13	14	56	29	-0.213679583778	-0.57249771375	-0.329949108799	-0.8056640625	0.00341796875	0.3310546875	14.8125	36.5625	-93.4375
18	12	13	14	56	29	-0.201716641034	-0.572435817324	-0.334098908629	-0.92529296875	0.02001953125	0.3173828125	19.4375	35.875	-82.625
18	12	13	14	56	29	-0.191161275827	-0.573789001932	-0.335447756049	-1.140625	0.03076171875	0.255859375	27.625	31.5	-70.0625
18	12	13	14	56	29	-0.181274754077	-0.574463968139	-0.334107071992	-1.20654296875	-0.05224609375	0.20166015625	40.375	15.75	-58.125
18	12	13	14	56	29	-0.171877180209	-0.5752636447	-0.327518802913	-1.29296875	-0.13427734375	0.25927734375	63.875	5.375	-37.5
18	12	13	14	56	30	-0.160947161256	-0.577932753104	-0.314509185421	-1.431640625	-0.1982421875	0.240234375	103.75	-0.4375	-7.625
18	12	13	14	56	30	-0.14977545444	-0.5816463247	-0.293874821976	-1.42431640625	-0.16748046875	0.18505859375	141.3125	-10.0	17.25
18	12	13	14	56	30	-0.141357555368	-0.585022525129	-0.26928736368	-1.2666015625	-0.0322265625	0.11865234375	149.4375	-21.625	39.6875
18	12	13	14	56	30	-0.138789973264	-0.58677519919	-0.246758074717	-1.02783203125	0.0615234375	0.12109375	116.6875	-31.0625	56.75
18	12	13	14	56	30	-0.145017643689	-0.588005041792	-0.227414032148	-0.861328125	0.08984375	0.1591796875	66.6875	-33.375	74.0625
18	12	13	14	56	30	-0.157352762831	-0.588943680589	-0.213384506927	-0.8447265625	0.0986328125	0.17626953125	18.5625	-27.5625	86.6875
18	12	13	14	56	30	-0.173703073873	-0.590199832871	-0.203670821333	-0.90234375	0.1328125	0.17236328125	-17.125	-19.3125	91.6875
18	12	13	14	56	30	-0.19372111995	-0.591722198462	-0.1975052124	-0.955078125	0.21728515625	0.1845703125	-48.75	-10.5625	94.625
18	12	13	14	56	30	-0.272880409572	-0.58683630911	-0.211114591078	-1.146484375	0.34716796875	0.265625	-165.3125	-5.625	94.9375
18	12	13	14	56	30	-0.306581055166	-0.578860188571	-0.225403909363	-1.14208984375	0.23828125	0.29541015625	-200.4375	-13.3125	98.1875
18	12	13	14	56	30	-0.341539977541	-0.567788851155	-0.240469533865	-1.03125	0.0771484375	0.279296875	-213.0	-24.9375	100.5
18	12	13	14	56	30	-0.375535537416	-0.554728181306	-0.253652802455	-0.90185546875	-0.04443359375	0.2822265625	-205.4375	-35.75	101.5625
18	12	13	14	56	30	-0.407091936224	-0.541670304946	-0.26299237679	-0.83837890625	-0.1044921875	0.28564453125	-181.0625	-42.0625	104.0
18	12	13	14	56	30	-0.4356592588	-0.529651309592	-0.26836561515	-0.84521484375	-0.06494140625	0.26708984375	-152.625	-45.875	104.25
18	12	13	14	56	30	-0.461720844142	-0.518421262412	-0.271295327457	-0.86962890625	0.03564453125	0.22216796875	-133.3125	-47.8125	100.5
18	12	13	14	56	30	-0.486324702709	-0.506893405623	-0.274167992542	-0.89794921875	0.09521484375	0.17236328125	-130.0625	-47.6875	94.5
18	12	13	14	56	30	-0.509818426147	-0.494315746842	-0.277949612436	-0.9169921875	0.1005859375	0.15087890625	-133.625	-48.1875	86.0625
18	12	13	14	56	30	-0.531347210336	-0.481361756021	-0.281542003363	-0.921875	0.07861328125	0.15478515625	-126.875	-49.4375	76.9375
18	12	13	14	56	30	-0.54947717777	-0.469463340154	-0.283313679797	-0.91748046875	0.06494140625	0.16259765625	-104.4375	-50.875	66.0
18	12	13	14	56	30	-0.562367134355	-0.46086761792	-0.283869062501	-0.923828125	0.07470703125	0.17138671875	-72.5	-52.1875	53.6875
18	12	13	14	56	30	-0.571520159474	-0.454823604058	-0.28136564878	-0.9033203125	0.1005859375	0.1865234375	-40.125	-52.875	42.9375
18	12	13	14	56	30	-0.577756405384	-0.451353118298	-0.276305012378	-0.86669921875	0.1640625	0.212890625	-13.3125	-49.9375	33.75
18	12	13	14	56	30	-0.58087505731	-0.45062525461	-0.270326324349	-0.90380859375	0.2470703125	0.23046875	6.25	-42.5625	21.0625
18	12	13	14	56	30	-0.580626265816	-0.451964416942	-0.265502392127	-1.01513671875	0.3134765625	0.23876953125	17.6875	-31.875	3.6875
18	12	13	14	56	30	-0.57694993031	-0.454638742291	-0.263237601759	-1.14013671875	0.28564453125	0.23193359375	24.4375	-20.5	-13.1875
18	12	13	14	56	30	-0.571035798069	-0.457939460551	-0.261958705142	-1.099609375	0.169921875	0.26318359375	34.3125	-10.875	-20.1875
18	12	13	14	56	30	-0.562358558029	-0.46415637441	-0.259512544903	-1.080078125	0.13134765625	0.33251953125	58.75	3.6875	-23.3125
18	12	13	14	56	30	-0.548513313786	-0.474723106112	-0.256526255463	-1.24169921875	0.17529296875	0.32666015625	89.1875	18.375	-38.75
18	12	13	14	56	30	-0.533078305256	-0.486569756068	-0.252623208776	-1.29248046875	0.1611328125	0.33251953125	101.75	34.75	-44.3125
18	12	13	14	56	30	-0.516157596649	-0.49967863826	-0.252067030171	-1.18115234375	0.13037109375	0.3046875	95.75	48.0	-47.0625
18	12	13	14	56	30	-0.501347680753	-0.509831650515	-0.254152878336	-0.94384765625	-0.00732421875	0.29296875	72.5	52.625	-42.5625
18	12	13	14	56	30	-0.490416140408	-0.517149465797	-0.25787283052	-0.73046875	-0.06591796875	0.34375	46.625	55.9375	-31.3125
18	12	13	14	56	30	-0.482171382055	-0.522820260593	-0.26348529827	-0.677734375	-0.05615234375	0.32958984375	23.375	57.5625	-25.9375
18	12	13	14	56	30	-0.476236260578	-0.526954232196	-0.271838562683	-0.8359375	-0.02099609375	0.2587890625	-2.1875	54.3125	-24.3125
18	12	13	14	56	30	-0.473989958163	-0.527944004392	-0.282465300847	-1.01904296875	-0.01611328125	0.181640625	-33.9375	39.1875	-18.125
18	12	13	14	56	30	-0.473669417125	-0.525912816308	-0.294113248438	-1.1025390625	-0.04296875	0.13427734375	-51.0	22.5	-18.25
18	12	13	14	56	30	-0.471235137004	-0.524333773087	-0.303211521906	-1.12255859375	-0.13232421875	0.1533203125	-28.9375	15.75	-18.5625
18	12	13	14	56	30	-0.464532369488	-0.527336706396	-0.305721014159	-1.08251953125	-0.15869140625	0.18603515625	25.625	18.8125	-12.25
18	12	13	14	56	30	-0.45323807944	-0.535511838003	-0.300714249583	-0.984375	-0.08544921875	0.1748046875	83.25	20.0625	-9.3125
18	12	13	14	56	30	-0.439863963069	-0.545939107763	-0.290211342361	-0.904296875	0.04296875	0.15869140625	116.1875	17.0625	-12.25
18	12	13	14	56	30	-0.425604815581	-0.555306555594	-0.279667469524	-0.84423828125	0.17138671875	0.185546875	117.4375	12.5625	-21.625
18	12	13	14	56	30	-0.413133451624	-0.562237458466	-0.271658589626	-0.79736328125	0.26318359375	0.22216796875	92.8125	12.6875	-35.8125
18	12	13	14	56	30	-0.402277675829	-0.566155017598	-0.269161667487	-0.7841796875	0.28564453125	0.267578125	57.875	18.1875	-51.375
18	12	13	14	56	30	-0.392740225715	-0.567840724173	-0.271713983665	-0.794921875	0.27783203125	0.3076171875	27.8125	26.25	-64.1875
18	12	13	14	56	30	-0.38366991508	-0.568424740557	-0.277406898511	-0.85107421875	0.25537109375	0.35888671875	10.875	34.1875	-71.8125
18	12	13	14	56	30	-0.373766433515	-0.568828079746	-0.283864742371	-0.89599609375	0.20751953125	0.41162109375	10.8125	39.4375	-75.8125
18	12	13	14	56	30	-0.361990399214	-0.569992975596	-0.289299357996	-0.93701171875	0.16650390625	0.4365234375	23.375	43.1875	-78.25
18	12	13	14	56	30	-0.348386433107	-0.571956773764	-0.293027902128	-0.97119140625	0.150390625	0.4423828125	38.5625	44.5	-80.25
18	12	13	14	56	31	-0.333796954647	-0.574028224256	-0.2958335782	-0.9755859375	0.12890625	0.4091796875	46.3125	41.0	-81.5625
18	12	13	14	56	31	-0.319753655525	-0.575300239928	-0.298514054051	-0.93505859375	0.099609375	0.39453125	43.3125	36.3125	-80.5625
18	12	13	14	56	31	-0.306580019845	-0.575562330706	-0.301697200496	-0.88037109375	0.0458984375	0.3603515625	36.5625	30.3125	-77.3125
18	12	13	14	56	31	-0.295224298004	-0.574945810874	-0.304745693598	-0.87109375	0.0224609375	0.349609375	29.25	23.9375	-70.5625
18	12	13	14	56	31	-0.285760049399	-0.574510752882	-0.306877729257	-0.97216796875	0.06201171875	0.32177734375	24.6875	19.4375	-62.75
18	12	13	14	56	31	-0.277528908754	-0.574039891539	-0.308534997526	-1.14501953125	0.0390625	0.23828125	22.375	9.875	-56.3125
18	12	13	14	56	31	-0.270260100788	-0.571952891709	-0.30993242814	-1.20068359375	-0.05615234375	0.2197265625	20.625	-4.0	-51.0625
18	12	13	14	56	31	-0.263005532686	-0.570994838309	-0.307501015008	-1.4130859375	-0.14697265625	0.27490234375	38.875	-6.5	-34.125
18	12	13	14	56	31	-0.253166114958	-0.572980589977	-0.297903521483	-1.5341796875	-0.2177734375	0.16064453125	86.3125	-15.625	-14.625
18	12	13	14	56	31	-0.243710647072	-0.574700589238	-0.281979261075	-1.33837890625	-0.12646484375	0.13427734375	113.125	-28.8125	3.375
18	12	13	14	56	31	-0.239065612957	-0.576333056714	-0.264211140794	-1.173828125	0.01123046875	0.14208984375	102.875	-34.875	29.5
18	12	13	14	56	31	-0.240965428387	-0.578243786357	-0.247496153016	-1.05712890625	0.11083984375	0.1484375	69.8125	-35.0	46.9375
18	12	13	14	56	31	-0.248290540661	-0.578795279521	-0.234801796933	-0.9609375	0.14794921875	0.14599609375	29.3125	-34.875	57.75
18	12	13	14	56	31	-0.261535722962	-0.578247243721	-0.226623603117	-0.919921875	0.2314453125	0.17138671875	-16.125	-29.75	66.6875
18	12	13	14	56	31	-0.279724705688	-0.576661361409	-0.223999491572	-0.951171875	0.31982421875	0.1943359375	-62.875	-21.5	68.1875
18	12	13	14	56	31	-0.2999221233	-0.572378850694	-0.229732778206	-0.96435546875	0.37353515625	0.23046875	-107.5625	-14.0625	64.6875
18	12	13	14	56	31	-0.322450059021	-0.566469619113	-0.240296400221	-0.9736328125	0.37646484375	0.2861328125	-140.875	-7.625	59.9375
18	12	13	14	56	31	-0.345453432028	-0.559317182174	-0.253780100772	-0.9814453125	0.3359375	0.31494140625	-158.25	-3.5625	54.3125
18	12	13	14	56	31	-0.367847609001	-0.551191597293	-0.268485420938	-0.9619140625	0.2802734375	0.314453125	-164.0625	-2.25	48.375
18	12	13	14	56	31	-0.389521075864	-0.542167928063	-0.283443415279	-0.9169921875	0.20458984375	0.28759765625	-164.5	-3.625	45.25
18	12	13	14	56	31	-0.410827396438	-0.532226251217	-0.297851388296	-0.86181640625	0.14599609375	0.232421875	-163.3125	-8.1875	45.3125
18	12	13	14	56	31	-0.432109415237	-0.521277756433	-0.311509386352	-0.82177734375	0.10986328125	0.16357421875	-162.9375	-14.375	46.8125
18	12	13	14	56	31	-0.453913978542	-0.509150249966	-0.32458175849	-0.81884765625	0.07275390625	0.11474609375	-165.8125	-20.6875	50.3125
18	12	13	14	56	31	-0.476252943787	-0.495906083336	-0.336544756125	-0.8427734375	0.04150390625	0.08837890625	-166.75	-28.125	54.9375
18	12	13	14	56	31	-0.498651228342	-0.482294003226	-0.3467365518	-0.87890625	0.01220703125	0.06787109375	-162.1875	-34.5625	61.125
18	12	13	14	56	31	-0.520733984278	-0.469100023811	-0.354540988592	-0.9228515625	0.00439453125	0.0576171875	-151.5	-39.0625	68.1875
18	12	13	14	56	31	-0.541716635802	-0.457065782505	-0.359903447648	-0.9765625	0.0185546875	0.03759765625	-136.0	-41.375	72.9375
18	12	13	14	56	31	-0.561095887276	-0.446349855721	-0.362853807229	-1.0029296875	0.01611328125	0.0400390625	-117.9375	-43.1875	74.125
18	12	13	14	56	31	-0.577127430553	-0.43888783345	-0.365282114198	-1.02001953125	0.04833984375	0.05419921875	-97.75	-43.375	72.25
18	12	13	14	56	31	-0.590622089384	-0.433033349611	-0.365591228212	-1.0029296875	0.04248046875	0.06787109375	-74.375	-43.875	67.3125
