19	03	17	11	20	31	0.824397921371	0.135314295675	-0.256712642133	0.2255859375	0.55859375	0.77392578125	-4.75	-36.8125	-6.0
19	03	17	11	20	31	0.821720082995	0.131714472191	-0.259949924495	0.16552734375	0.54345703125	0.75	-18.6875	-38.375	-11.6875
19	03	17	11	20	31	0.819286045558	0.125734132001	-0.260989877882	0.1796875	0.4462890625	0.8095703125	-30.625	-35.625	-17.25
19	03	17	11	20	31	0.816378529504	0.120418274425	-0.262991558286	0.25146484375	0.4033203125	0.84619140625	-21.0	-36.1875	-21.9375
19	03	17	11	20	31	0.813616060996	0.116457572722	-0.264654106563	0.28955078125	0.3515625	0.72412109375	-15.9375	-25.3125	-23.5625
19	03	17	11	20	31	0.811657995631	0.117433447405	-0.260624127038	0.1328125	0.30419921875	0.78369140625	-6.3125	6.0	-31.0
19	03	17	11	20	31	0.809404879711	0.119997737238	-0.252141735773	-0.0185546875	0.267578125	0.78173828125	-13.1875	22.375	-43.8125
19	03	17	11	20	31	0.808584010077	0.12200780768	-0.244564925149	0.06396484375	0.40869140625	0.77001953125	-19.0	25.75	-25.25
19	03	17	11	20	31	0.806752113418	0.121641470876	-0.237484677963	0.09814453125	0.48974609375	0.91064453125	-31.3125	14.6875	-32.9375
19	03	17	11	20	31	0.80543662575	0.117983403878	-0.233098095918	0.3466796875	0.37451171875	0.86962890625	-31.6875	9.625	-28.375
19	03	17	11	20	31	0.804483137565	0.119686778906	-0.229974392106	0.4091796875	0.48486328125	0.99072265625	-3.1875	24.9375	-22.6875
19	03	17	11	20	31	0.802561955063	0.125184772213	-0.226138264774	0.2421875	0.3564453125	0.86865234375	16.0	30.5	-32.6875
19	03	17	11	20	31	0.801145947797	0.130431882557	-0.223693425162	0.24560546875	0.4912109375	0.974609375	16.0	24.375	-21.9375
19	03	17	11	20	31	0.797923093606	0.131776635745	-0.221072243941	0.17626953125	0.45166015625	1.02978515625	-1.4375	3.3125	-37.9375
19	03	17	11	20	31	0.795382321057	0.128301253846	-0.21845394268	0.3017578125	0.3955078125	1.0400390625	-20.875	-2.875	-34.75
19	03	17	11	20	31	0.792753325688	0.123356519188	-0.213630785333	0.17333984375	0.3779296875	1.0693359375	-35.0	-6.4375	-36.5
19	03	17	11	20	31	0.790964935333	0.117921464238	-0.208742964645	0.2373046875	0.29150390625	0.9921875	-34.5625	-0.25	-30.4375
19	03	17	11	20	31	0.788820360554	0.115539843897	-0.203247585937	0.09765625	0.35302734375	0.9833984375	-27.25	4.0625	-30.875
19	03	17	11	20	31	0.786986335744	0.113891461338	-0.197143311963	0.01416015625	0.34326171875	0.91162109375	-27.5	5.875	-27.0625
19	03	17	11	20	31	0.785761442408	0.113036367201	-0.192869827405	0.1015625	0.41748046875	0.87548828125	-22.875	8.625	-18.3125
19	03	17	11	20	31	0.784366931985	0.112671492992	-0.187684095857	0.05908203125	0.3701171875	0.76611328125	-24.0625	13.3125	-21.3125
19	03	17	11	20	31	0.783379877317	0.115233440466	-0.184385711677	0.0888671875	0.43359375	0.73583984375	-8.375	18.8125	-14.5625
19	03	17	11	20	31	0.781172428409	0.116818816156	-0.181148509065	0.08251953125	0.41064453125	0.70556640625	-12.5625	13.1875	-25.8125
19	03	17	11	20	31	0.778383928399	0.119690338241	-0.179138777531	0.0107421875	0.4794921875	0.7353515625	-6.0	6.875	-26.0
19	03	17	11	20	31	0.776021713309	0.120608691639	-0.177433940584	0.1279296875	0.4462890625	0.83984375	-8.6875	6.375	-25.0
19	03	17	11	20	31	0.772930318666	0.122555596958	-0.176387288451	0.10791015625	0.40283203125	0.81982421875	0.4375	4.9375	-30.0
19	03	17	11	20	31	0.770335144281	0.123842009963	-0.17431876809	0.13525390625	0.396484375	0.86962890625	-4.0625	9.5	-28.6875
19	03	17	11	20	31	0.767105141114	0.128115347804	-0.171939463918	0.12646484375	0.28515625	0.90673828125	16.4375	20.3125	-35.625
19	03	17	11	20	31	0.762976400096	0.134944470091	-0.169672377591	0.02099609375	0.34375	0.96044921875	26.875	21.3125	-40.3125
19	03	17	11	20	32	0.760531235022	0.140863982861	-0.167718468328	0.0625	0.41015625	0.970703125	21.25	23.3125	-25.125
19	03	17	11	20	32	0.758681908187	0.146060000506	-0.1650423073	0.14306640625	0.37744140625	1.04736328125	20.1875	30.5625	-23.9375
19	03	17	11	20	32	0.756439123118	0.152105728622	-0.162543160241	0.0419921875	0.36083984375	0.9931640625	24.9375	26.875	-24.1875
19	03	17	11	20	32	0.754573445522	0.156371201765	-0.159850186348	0.0322265625	0.38525390625	0.99755859375	14.75	22.0	-21.1875
19	03	17	11	20	32	0.751228655232	0.158815157695	-0.158021692265	0.015625	0.37158203125	0.9951171875	10.3125	7.75	-31.9375
19	03	17	11	20	32	0.747954134344	0.159185929686	-0.156744427697	0.033203125	0.44287109375	0.98046875	-1.8125	-0.125	-30.9375
19	03	17	11	20	32	0.74452033911	0.155215217442	-0.15387241965	-0.00390625	0.3359375	0.99658203125	-21.0	-13.0	-35.25
19	03	17	11	20	32	0.739972304212	0.150325947317	-0.15234005867	-0.04443359375	0.27099609375	0.98095703125	-17.25	-26.3125	-40.8125
19	03	17	11	20	32	0.735250941791	0.144718577369	-0.153263748534	-0.02783203125	0.28515625	0.966796875	-12.1875	-38.5625	-37.625
19	03	17	11	20	32	0.730157996776	0.137572191318	-0.155394320805	-0.0322265625	0.3447265625	0.94775390625	-19.5625	-50.9375	-37.3125
19	03	17	11	20	32	0.72486394842	0.12964053776	-0.158632654256	-0.03955078125	0.41357421875	0.94482421875	-23.5	-59.5625	-35.625
19	03	17	11	20	32	0.719727200624	0.119873153157	-0.16223158915	-0.0556640625	0.4736328125	0.89111328125	-35.3125	-69.5	-31.0
19	03	17	11	20	32	0.715896265237	0.10754618632	-0.1661411573	0.12548828125	0.4462890625	0.82666015625	-45.3125	-67.375	-22.75
19	03	17	11	20	32	0.712109294084	0.0968034062242	-0.169253370403	0.16162109375	0.33984375	0.7919921875	-36.3125	-56.375	-24.125
19	03	17	11	20	32	0.707749162973	0.0919780949121	-0.172970086915	-0.01708984375	0.35595703125	0.8125	-9.5625	-48.375	-24.375
19	03	17	11	20	32	0.703546932205	0.0886834122057	-0.178038206059	-0.0390625	0.439453125	0.7958984375	-2.75	-48.9375	-19.75
19	03	17	11	20	32	0.699784264564	0.0819110757126	-0.182377268427	0.048828125	0.49853515625	0.84423828125	-22.8125	-55.1875	-16.125
19	03	17	11	20	32	0.694748314893	0.0730575184861	-0.185664971792	0.1455078125	0.4052734375	0.83984375	-30.875	-55.5	-29.0625
19	03	17	11	20	32	0.689083457557	0.0641476274484	-0.188109407989	0.1845703125	0.341796875	0.90966796875	-29.375	-52.375	-35.8125
19	03	17	11	20	32	0.682420056787	0.0545643082701	-0.189327163595	0.08154296875	0.2685546875	0.99072265625	-31.9375	-60.1875	-42.1875
19	03	17	11	20	32	0.675773508878	0.0410761896202	-0.190549575029	0.19287109375	0.1796875	1.05224609375	-40.6875	-71.0625	-40.8125
19	03	17	11	20	32	0.669167867932	0.0250846400693	-0.194024503115	0.32470703125	0.18310546875	1.16796875	-38.875	-84.375	-36.0
19	03	17	11	20	32	0.661195701176	0.00842287517422	-0.200623120998	0.41748046875	0.205078125	1.162109375	-30.8125	-97.3125	-41.0625
19	03	17	11	20	32	0.652390774368	-0.00884990759503	-0.208369548479	0.486328125	0.27490234375	1.087890625	-38.625	-109.0625	-39.25
19	03	17	11	20	32	0.643653545165	-0.0275258627792	-0.21520219991	0.48681640625	0.2802734375	1.0751953125	-47.0625	-111.875	-35.375
19	03	17	11	20	32	0.634334449116	-0.0469967791609	-0.221983488063	0.38525390625	0.27734375	1.029296875	-50.5	-118.0	-35.1875
19	03	17	11	20	32	0.626104638827	-0.0648199577339	-0.228700924321	0.4189453125	0.26611328125	0.94384765625	-43.1875	-109.0625	-27.125
19	03	17	11	20	32	0.618134825407	-0.0815391120403	-0.233204301726	0.36279296875	0.27734375	0.8916015625	-50.375	-100.0	-25.0
19	03	17	11	20	32	0.61107772533	-0.094420419605	-0.236264669871	0.2919921875	0.23291015625	0.87353515625	-39.75	-82.3125	-24.1875
19	03	17	11	20	32	0.604661702419	-0.106015683567	-0.237787624167	0.251953125	0.193359375	0.833984375	-40.3125	-73.0	-21.5
19	03	17	11	20	32	0.599661100402	-0.116392235976	-0.239193063865	0.34033203125	0.16943359375	0.81640625	-33.25	-61.25	-15.1875
19	03	17	11	20	32	0.59513376351	-0.124934756836	-0.239676985879	0.3515625	0.15576171875	0.810546875	-30.25	-49.1875	-15.0625
19	03	17	11	20	32	0.590792870428	-0.131402587813	-0.240040119772	0.25732421875	0.22607421875	0.78271484375	-28.8125	-45.0	-13.875
19	03	17	11	20	32	0.587330089859	-0.136044764657	-0.239314276456	0.2509765625	0.1689453125	0.68505859375	-24.6875	-29.25	-13.0625
19	03	17	11	20	32	0.585129222858	-0.138790430038	-0.23632213945	0.1904296875	0.08837890625	0.65966796875	-23.0	-14.75	-10.125
19	03	17	11	20	32	0.584276391211	-0.139584258508	-0.234796957797	0.234375	0.046875	0.654296875	-5.4375	-7.0	-6.25
19	03	17	11	20	32	0.583973292173	-0.139828889253	-0.234004348055	0.2705078125	0.08251953125	0.62890625	-1.375	-3.6875	-2.8125
19	03	17	11	20	32	0.583656632695	-0.142084350195	-0.23308424974	0.34619140625	0.1064453125	0.61572265625	-10.25	-7.5625	1.0
19	03	17	11	20	32	0.583488166456	-0.145872041614	-0.230892859174	0.4541015625	0.10888671875	0.677734375	-20.3125	-5.75	3.625
19	03	17	11	20	32	0.58365754148	-0.148920255277	-0.229178507608	0.5029296875	0.2578125	0.6953125	-24.3125	-1.875	9.625
19	03	17	11	20	32	0.583371766543	-0.150878322546	-0.227721286982	0.47412109375	0.45556640625	0.697265625	-32.375	0.125	11.6875
19	03	17	11	20	32	0.581676302786	-0.151858409374	-0.225590305886	0.4697265625	0.36669921875	0.7119140625	-29.6875	5.6875	-2.9375
19	03	17	11	20	32	0.580612999556	-0.151729624398	-0.223749317394	0.513671875	0.18798828125	0.81982421875	-12.125	8.625	-7.3125
19	03	17	11	20	32	0.580129347537	-0.150021876512	-0.228389691581	0.494140625	0.05322265625	0.98583984375	35.4375	-13.625	-10.625
19	03	17	11	20	32	0.577994125336	-0.148496273173	-0.237484175468	0.646484375	0.12353515625	0.9609375	50.125	-22.625	-20.375
19	03	17	11	20	32	0.576084385704	-0.14818655456	-0.245411093857	0.8740234375	0.15234375	0.9619140625	40.5625	-11.25	-19.4375
19	03	17	11	20	32	0.572857198215	-0.149958463245	-0.248221843718	0.822265625	0.14892578125	1.134765625	10.25	-13.6875	-24.75
19	03	17	11	20	32	0.568405491679	-0.156306932695	-0.250176539288	0.8125	0.32470703125	1.09619140625	-21.125	-32.5	-16.875
19	03	17	11	20	32	0.564433047946	-0.167413478646	-0.249380777888	0.8935546875	0.36572265625	1.01806640625	-51.875	-38.0	-2.0
19	03	17	11	20	33	0.5596182202	-0.179561217562	-0.244928336532	0.8642578125	0.1845703125	1.09912109375	-63.4375	-37.0625	-10.625
19	03	17	11	20	33	0.556560045774	-0.19188779295	-0.244498250178	0.7978515625	0.16064453125	1.072265625	-40.6875	-55.625	3.625
19	03	17	11	20	33	0.55494066763	-0.203433484955	-0.248478162992	0.77587890625	0.15283203125	0.8310546875	-16.0625	-60.375	12.1875
19	03	17	11	20	33	0.552421251552	-0.207699648551	-0.247616066462	0.2841796875	0.0263671875	0.77392578125	-15.0	-34.9375	-9.0
19	03	17	11	20	33	0.552054224311	-0.210140706943	-0.248836381704	0.3837890625	0.2939453125	1.0380859375	-7.25	-38.5	11.4375
19	03	17	11	20	33	0.553512719872	-0.226190113557	-0.256706858505	1.46484375	0.67919921875	0.8466796875	-32.0	-61.25	61.1875
19	03	17	11	20	33	0.550387550661	-0.24724106983	-0.254320794367	1.36962890625	0.296875	0.70263671875	-86.5625	-52.875	33.625
19	03	17	11	20	33	0.547590676311	-0.253105052905	-0.245109691938	0.30419921875	0.1240234375	0.9462890625	-67.125	-23.1875	3.6875
19	03	17	11	20	33	0.553575198907	-0.257928201828	-0.240716712733	0.427734375	0.521484375	0.73291015625	-42.75	-16.9375	74.9375
19	03	17	11	20	33	0.562556865801	-0.272458918188	-0.219908038134	0.86376953125	0.3642578125	0.43017578125	-120.125	14.0	110.5
19	03	17	11	20	33	0.567425535887	-0.280569558833	-0.198968188339	0.115234375	0.09228515625	0.57861328125	-108.875	32.5625	67.6875
19	03	17	11	20	33	0.578598894886	-0.279228897057	-0.181636108774	-0.1884765625	-0.00146484375	0.6044921875	-49.3125	32.625	85.9375
19	03	17	11	20	33	0.591173895616	-0.28502809132	-0.162472115438	0.33984375	0.19970703125	0.35205078125	-76.125	40.375	118.1875
19	03	17	11	20	33	0.601506816989	-0.288515750777	-0.136658930821	0.43408203125	0.07861328125	0.3818359375	-102.0	77.0	106.25
19	03	17	11	20	33	0.610580879795	-0.283684519121	-0.111142321282	0.029296875	-0.02978515625	0.498046875	-78.75	95.75	80.6875
19	03	17	11	20	33	0.620118372593	-0.277466350572	-0.0894166747883	0.1650390625	0.39892578125	0.44921875	-81.375	96.875	97.9375
19	03	17	11	20	33	0.631332587825	-0.279351242699	-0.0525500152859	0.314453125	0.060546875	0.35693359375	-142.125	119.875	132.625
19	03	17	11	20	33	0.643791611649	-0.275570641505	-0.0161131006328	0.0263671875	-0.50390625	0.396484375	-109.6875	136.4375	133.375
19	03	17	11	20	33	0.652345716016	-0.26751789608	0.00665285208138	-0.30322265625	-0.791015625	0.48486328125	-40.875	102.875	80.125
19	03	17	11	20	33	0.656260441656	-0.263737106436	0.0251468844831	-0.35546875	-0.7021484375	0.6572265625	-30.375	43.25	28.0625
19	03	17	11	20	33	0.656845994287	-0.2655581603	0.0390006123722	-0.046875	-0.666015625	0.734375	-43.0	22.375	13.5
19	03	17	11	20	33	0.654978315751	-0.268680882111	0.0510872099789	-0.0849609375	-0.5986328125	0.82666015625	-52.4375	9.625	-4.25
19	03	17	11	20	33	0.653077326288	-0.26837205642	0.0551148435176	-0.01318359375	-0.52490234375	0.9443359375	-15.0	-2.0	-19.3125
19	03	17	11	20	33	0.652764024345	-0.265988370089	0.0563958820472	0.2255859375	-0.51611328125	1.0703125	2.4375	6.75	-6.75
19	03	17	11	20	33	0.656975023358	-0.25555132133	0.0509027470718	0.3701171875	-0.5595703125	1.30859375	64.3125	16.4375	9.9375
19	03	17	11	20	33	0.662824239771	-0.240960414237	0.03436188278	0.49072265625	-0.0205078125	1.435546875	94.125	-3.625	13.5625
19	03	17	11	20	33	0.670713438093	-0.23199397381	0.0219115592206	0.6923828125	-0.47802734375	1.271484375	93.9375	-0.9375	38.75
19	03	17	11	20	33	0.679259248058	-0.215758957847	0.00848387415581	0.46484375	-0.54052734375	1.15966796875	129.8125	10.5625	28.625
19	03	17	11	20	33	0.685640716757	-0.198234025995	-0.00500467676465	0.16650390625	0.169921875	1.1181640625	98.75	4.5	20.1875
19	03	17	11	20	33	0.693707754754	-0.194086808034	0.00622542591808	0.0654296875	-0.20166015625	0.6630859375	-19.3125	45.3125	69.3125
19	03	17	11	20	33	0.700667832288	-0.197627390327	0.0325310064991	-0.32861328125	-0.5966796875	0.7392578125	-89.5	47.6875	75.5
19	03	17	11	20	33	0.699597377	-0.204105184845	0.0474861943209	-0.064453125	-0.6201171875	1.03076171875	-71.5	13.3125	7.5
19	03	17	11	20	33	0.700680657237	-0.204405881628	0.0513303512837	0.49365234375	-0.27490234375	0.85791015625	-19.6875	31.3125	22.9375
19	03	17	11	20	33	0.706018120797	-0.201178847251	0.0659812906183	0.1728515625	-0.46240234375	0.7119140625	-28.6875	65.4375	60.875
19	03	17	11	20	33	0.709678590943	-0.18952025672	0.0710472073499	-0.2060546875	-0.60400390625	0.83251953125	48.8125	40.8125	16.25
19	03	17	11	20	33	0.709896849192	-0.177123261659	0.0634762894987	0.0517578125	-0.4228515625	0.85302734375	88.6875	15.625	-21.4375
19	03	17	11	20	33	0.710225353146	-0.165104810954	0.0576798692612	0.15576171875	-0.27978515625	0.90283203125	71.5625	27.375	-12.75
19	03	17	11	20	33	0.709264993111	-0.156732854514	0.0600565143466	-0.0126953125	-0.51318359375	1.02880859375	36.625	35.125	-15.0
19	03	17	11	20	33	0.708990584478	-0.151185406143	0.0618291547931	-0.05810546875	-0.7392578125	1.19970703125	39.9375	16.1875	-10.75
19	03	17	11	20	33	0.710155072285	-0.148867058127	0.0565194324827	0.07373046875	-0.68505859375	1.23583984375	52.0625	-18.8125	-2.875
19	03	17	11	20	33	0.712167242055	-0.145936910846	0.0469366308828	0.158203125	-0.544921875	1.1181640625	66.4375	-28.8125	1.6875
19	03	17	11	20	33	0.714475987334	-0.144591971125	0.0363158390965	0.10595703125	-0.3994140625	1.0029296875	57.1875	-42.875	4.1875
19	03	17	11	20	33	0.714499751453	-0.148930411203	0.0270394148209	0.11572265625	-0.353515625	0.8427734375	27.4375	-57.625	-8.25
19	03	17	11	20	33	0.712340209974	-0.158874266692	0.0167846420823	0.11767578125	-0.34375	0.84912109375	5.625	-83.8125	-22.6875
19	03	17	11	20	33	0.707943340957	-0.171752095996	0.00408933561895	0.2470703125	-0.3720703125	0.87109375	2.625	-98.3125	-38.1875
19	03	17	11	20	33	0.702448556286	-0.183836567168	-0.0109862490339	0.38818359375	-0.3369140625	0.85107421875	12.4375	-96.375	-46.125
19	03	17	11	20	33	0.695925818714	-0.194397801491	-0.0278931853317	0.44140625	-0.2509765625	0.7919921875	20.5	-95.5625	-54.0625
19	03	17	11	20	33	0.68782958274	-0.204780215644	-0.0462662901514	0.47412109375	-0.1142578125	0.74755859375	17.4375	-98.8125	-62.8125
19	03	17	11	20	33	0.677304759666	-0.216429906982	-0.0643918645983	0.4150390625	0.0	0.71875	10.0	-112.875	-79.6875
19	03	17	11	20	33	0.664712172874	-0.229179525217	-0.0825168357107	0.380859375	0.05224609375	0.63818359375	2.4375	-117.5625	-90.5625
19	03	17	11	20	33	0.652090089312	-0.239559490879	-0.0989975781416	0.4111328125	-0.01953125	0.5712890625	2.125	-96.4375	-87.125
19	03	17	11	20	34	0.641655599935	-0.244443134951	-0.115111049318	0.37744140625	-0.0556640625	0.5556640625	27.5625	-75.6875	-79.9375
19	03	17	11	20	34	0.633520459274	-0.242849509388	-0.130549158226	0.3916015625	-0.06591796875	0.55908203125	53.8125	-45.3125	-74.3125
19	03	17	11	20	34	0.631642124567	-0.232295866857	-0.147214301329	0.7685546875	0.2578125	0.67529296875	84.125	5.625	-31.4375
19	03	17	11	20	34	0.632152259361	-0.218387639663	-0.157412443458	0.7021484375	0.724609375	0.8486328125	45.625	34.625	-0.5
19	03	17	11	20	34	0.636539828696	-0.215516553373	-0.150025400224	0.70166015625	0.2822265625	0.9404296875	-34.5625	50.375	43.0625
19	03	17	11	20	34	0.638840046993	-0.218744886636	-0.15069227821	1.2294921875	-0.091796875	1.35546875	-3.875	8.4375	24.875
19	03	17	11	20	34	0.632249153158	-0.223749917509	-0.151485896142	1.21240234375	0.0859375	1.22314453125	-37.5625	5.0	-30.25
19	03	17	11	20	34	0.636642032327	-0.215448794374	-0.151851728159	0.5703125	0.00732421875	1.03857421875	33.6875	32.6875	17.875
19	03	17	11	20	34	0.648563549621	-0.199158936798	-0.1505136188	0.1728515625	0.3212890625	0.72412109375	52.1875	61.8125	69.1875
19	03	17	11	20	34	0.669483530607	-0.187557925933	-0.135556834851	0.21728515625	0.46142578125	0.4208984375	9.0625	106.375	146.0
19	03	17	11	20	34	0.686398409985	-0.18676677348	-0.112426273448	0.5673828125	0.10595703125	0.48876953125	-65.4375	97.1875	140.9375
19	03	17	11	20	34	0.691722204896	-0.180911022263	-0.0968643024062	0.373046875	0.1513671875	0.62158203125	-47.1875	93.5625	46.9375
19	03	17	11	20	34	0.702759198777	-0.168029883119	-0.070617716952	-0.19287109375	0.09326171875	0.17919921875	-40.8125	152.25	82.5625
19	03	17	11	20	34	0.717348549743	-0.156677761183	-0.0358887898621	-0.59130859375	-0.36767578125	0.3974609375	-68.1875	169.9375	122.1875
19	03	17	11	20	34	0.727336493314	-0.143856013656	-0.00653058695851	-0.388671875	-0.20654296875	0.4990234375	-49.1875	158.1875	88.9375
19	03	17	11	20	34	0.734360937229	-0.138974389467	0.0329583532334	-0.2783203125	-0.41845703125	0.4326171875	-120.5	171.9375	88.1875
19	03	17	11	20	34	0.734320445406	-0.141480740791	0.07739326114	-0.89501953125	-1.02490234375	0.84326171875	-168.375	158.625	46.375
19	03	17	11	20	34	0.729474907085	-0.150203961374	0.096738431035	-1.3037109375	-0.98046875	1.806640625	-113.3125	51.25	-10.125
19	03	17	11	20	34	0.730354869293	-0.158571114025	0.108277581324	-0.0341796875	-0.8505859375	1.65478515625	-68.5	3.625	24.6875
19	03	17	11	20	34	0.733037255305	-0.160645633302	0.0988776314399	1.177734375	-0.6220703125	1.57177734375	27.875	20.5	36.8125
19	03	17	11	20	34	0.732978065613	-0.157228037057	0.0819099478769	1.38330078125	-0.22021484375	1.18603515625	65.8125	28.875	5.1875
19	03	17	11	20	34	0.730884839677	-0.150632466332	0.0670766128439	0.63330078125	-0.16845703125	1.125	71.0625	2.8125	-28.1875
19	03	17	11	20	34	0.730672998669	-0.136356484757	0.0585954455536	-0.05126953125	-0.15283203125	1.103515625	81.9375	11.25	-22.1875
19	03	17	11	20	34	0.72840808308	-0.12207274729	0.0650647743057	-0.84521484375	-0.1044921875	0.880859375	25.375	24.875	-34.5625
19	03	17	11	20	34	0.727480218443	-0.126404189311	0.0719606659572	-0.19140625	-0.1552734375	0.9716796875	-54.4375	-5.125	-2.4375
19	03	17	11	20	34	0.728217927154	-0.133485257454	0.0841073089949	0.03173828125	-0.42431640625	0.982421875	-70.1875	18.875	22.5
19	03	17	11	20	34	0.726009640581	-0.132384607854	0.096374041402	-0.208984375	-0.525390625	0.84326171875	-27.5625	40.875	-8.8125
19	03	17	11	20	34	0.726455350789	-0.121157273678	0.104372260952	-0.38720703125	-0.40576171875	0.90380859375	23.625	50.0625	3.125
19	03	17	11	20	34	0.727836410506	-0.105528650211	0.108641409702	-0.35009765625	-0.1689453125	0.84912109375	43.3125	54.8125	8.5
19	03	17	11	20	34	0.729638396431	-0.0950348823191	0.11310188628	-0.12060546875	-0.03857421875	0.7890625	13.5	50.625	18.5625
19	03	17	11	20	34	0.729979444902	-0.0903319045531	0.118713212403	0.0869140625	-0.12158203125	0.85546875	-11.25	50.0625	12.75
19	03	17	11	20	34	0.727904896517	-0.0874633336164	0.127441340259	-0.02587890625	-0.1552734375	0.85546875	-29.1875	51.8125	-5.6875
19	03	17	11	20	34	0.725518379246	-0.0861808657773	0.134093032658	-0.04248046875	-0.14794921875	0.98681640625	-31.5625	37.875	-11.125
19	03	17	11	20	34	0.72289343871	-0.0825797722539	0.138853645142	0.03369140625	-0.32958984375	0.9892578125	-2.3125	45.125	-11.6875
19	03	17	11	20	34	0.721157320083	-0.0707423896721	0.142095153716	-0.08935546875	-0.2626953125	0.7822265625	38.875	61.6875	-6.125
19	03	17	11	20	34	0.717908406643	-0.0493783285984	0.138796439101	-0.4970703125	-0.38720703125	0.6630859375	108.1875	67.25	-23.125
19	03	17	11	20	34	0.713434397361	-0.0206907571824	0.128478005513	-1.30029296875	-0.06494140625	0.6650390625	161.9375	55.625	-35.875
19	03	17	11	20	34	0.714116083409	0.00933844109073	0.114380644471	-0.86962890625	-0.05322265625	0.40283203125	180.0625	47.25	12.125
19	03	17	11	20	34	0.714097916742	0.0372917800965	0.0968609738349	-0.46630859375	-0.16015625	0.474609375	186.6875	32.4375	11.8125
19	03	17	11	20	34	0.70526703688	0.0665899036985	0.0746466106537	-0.40869140625	0.00634765625	0.5078125	215.0625	22.9375	-53.5625
19	03	17	11	20	34	0.691022482837	0.0925269461209	0.0559067827485	-0.43603515625	0.22265625	0.60205078125	188.0625	24.625	-91.5
19	03	17	11	20	34	0.673825894694	0.108459113666	0.0451658661298	-0.32275390625	0.3974609375	0.7724609375	115.125	17.9375	-119.5
19	03	17	11	20	34	0.651662484108	0.115904004619	0.0434563724534	-0.05224609375	0.25244140625	0.93310546875	51.6875	21.625	-163.375
19	03	17	11	20	34	0.623597699089	0.123657525531	0.0432129951018	0.0830078125	0.08203125	1.16748046875	54.875	30.75	-202.1875
19	03	17	11	20	34	0.590373899694	0.134761249925	0.0391832982119	0.2626953125	0.03369140625	1.2939453125	89.1875	36.0625	-228.0625
19	03	17	11	20	34	0.552722895897	0.149288891714	0.0320427915577	0.50390625	0.20263671875	1.34716796875	116.25	46.375	-247.25
19	03	17	11	20	34	0.511295329558	0.164246834408	0.0245363163999	0.60986328125	0.23876953125	1.34375	122.1875	50.625	-263.875
19	03	17	11	20	34	0.468199466158	0.177794947845	0.0153197843835	0.505859375	0.1845703125	1.4306640625	129.5	39.75	-265.0
19	03	17	11	20	34	0.424064861332	0.191952214866	0.000610340905775	0.32958984375	0.26513671875	1.35595703125	157.75	28.375	-257.4375
19	03	17	11	20	34	0.38207088498	0.204645954846	-0.0220941949461	0.13818359375	0.5048828125	1.27734375	189.1875	2.0625	-230.1875
19	03	17	11	20	35	0.34471932494	0.212764087596	-0.0493153708484	-0.04736328125	0.68115234375	1.25830078125	195.625	-29.3125	-192.3125
19	03	17	11	20	35	0.314022012665	0.215939724161	-0.0740957674198	-0.1220703125	0.84423828125	1.27197265625	163.9375	-45.5	-152.75
19	03	17	11	20	35	0.292221992548	0.217213465221	-0.0922806292258	-0.1103515625	0.771484375	1.310546875	118.125	-35.4375	-106.6875
19	03	17	11	20	35	0.278429467517	0.216786819075	-0.110224379293	-0.20556640625	0.62646484375	1.21240234375	99.5	-25.6875	-64.9375
19	03	17	11	20	35	0.266838897929	0.216669278968	-0.124630610607	-0.369140625	0.373046875	1.1005859375	93.8125	-29.4375	-46.25
19	03	17	11	20	35	0.254028262586	0.215942333741	-0.145690884862	-0.54296875	0.23681640625	1.12060546875	130.375	-48.0625	-40.375
19	03	17	11	20	35	0.238218820245	0.215025596649	-0.175108838146	-0.435546875	0.2958984375	1.05810546875	179.4375	-60.875	-44.6875
19	03	17	11	20	35	0.220274624232	0.216429431291	-0.206663861915	-0.25146484375	0.34765625	0.9345703125	197.75	-49.375	-54.625
19	03	17	11	20	35	0.200618720922	0.222468888883	-0.238398759939	-0.25146484375	0.48486328125	0.775390625	206.75	-24.6875	-66.9375
19	03	17	11	20	35	0.181090394156	0.230650690771	-0.269407819281	-0.45849609375	0.6171875	0.5849609375	205.25	-13.3125	-66.625
19	03	17	11	20	35	0.165034248068	0.239555999876	-0.293326403925	-0.64208984375	0.74609375	0.38134765625	161.25	0.25	-57.5625
19	03	17	11	20	35	0.15148887124	0.249389012041	-0.304625687494	-0.99169921875	0.74951171875	0.53125	80.3125	-11.875	-43.3125
19	03	17	11	20	35	0.14544521852	0.252194562704	-0.301449405904	-0.98046875	0.6787109375	0.478515625	-20.125	-30.1875	-17.0625
19	03	17	11	20	35	0.147582843701	0.248656950056	-0.287902511884	-0.67041015625	0.43310546875	0.41943359375	-89.3125	-33.0	10.8125
19	03	17	11	20	35	0.149780010911	0.246215388759	-0.272338389847	-0.68017578125	0.220703125	0.4619140625	-87.8125	-25.6875	10.875
19	03	17	11	20	35	0.153930198434	0.251952362861	-0.264037287243	-0.80419921875	0.171875	0.3759765625	-38.75	12.4375	28.3125
19	03	17	11	20	35	0.1645479698	0.262141517171	-0.255244662353	-0.9150390625	0.392578125	0.37939453125	-54.125	44.3125	54.6875
19	03	17	11	20	35	0.183839219247	0.268922841967	-0.23925954165	-0.73876953125	0.271484375	0.51025390625	-103.1875	75.125	73.5625
19	03	17	11	20	35	0.202759411084	0.279908085259	-0.219422059858	-0.87060546875	0.28759765625	0.42919921875	-118.3125	100.125	61.75
19	03	17	11	20	35	0.221492395807	0.285456030639	-0.191158496464	-0.95703125	0.01806640625	0.64111328125	-166.4375	77.3125	53.1875
19	03	17	11	20	35	0.220702675678	0.27685490511	-0.168822898486	-0.51220703125	-0.61767578125	1.54052734375	-114.4375	-24.9375	-32.0625
19	03	17	11	20	35	0.207026385888	0.269097681421	-0.17242026537	0.06787109375	0.01025390625	1.5	71.6875	-17.625	-66.5625
19	03	17	11	20	35	0.205561759183	0.272515811982	-0.1959184225	0.60498046875	0.9521484375	1.00537109375	131.5	12.6875	19.875
19	03	17	11	20	35	0.212337674286	0.277583139595	-0.224483462496	0.4033203125	1.23486328125	0.48388671875	145.0625	24.5625	73.9375
19	03	17	11	20	35	0.208249443849	0.284176263353	-0.238827688681	-0.43505859375	0.47216796875	0.103515625	75.5625	0.1875	1.3125
19	03	17	11	20	35	0.195184290726	0.297781161492	-0.212151530507	-3.04638671875	0.81005859375	-0.06298828125	-108.0	76.3125	-135.875
19	03	17	11	20	35	0.22893674895	0.286491362189	-0.173335208482	-0.45947265625	0.29638671875	0.29443359375	-279.3125	14.875	120.5625
19	03	17	11	20	35	0.239800124447	0.277945982879	-0.130001085536	-0.02099609375	0.12646484375	0.53759765625	-261.5625	15.3125	-15.875
19	03	17	11	20	35	0.237846774305	0.283011417104	-0.107784809706	-0.86376953125	-0.25341796875	0.61279296875	-101.75	45.625	-45.25
19	03	17	11	20	35	0.239434679656	0.297050366017	-0.102841558812	-0.84716796875	0.18017578125	0.787109375	1.3125	68.375	11.0625
19	03	17	11	20	35	0.244747507813	0.300349747119	-0.117185839152	-0.07177734375	0.65625	0.99169921875	61.9375	38.4375	35.5625
19	03	17	11	20	35	0.236268172452	0.296327041399	-0.141663246774	0.24462890625	0.89990234375	1.107421875	132.625	-48.4375	-8.4375
19	03	17	11	20	35	0.226617332369	0.286552215317	-0.16881862142	0.37744140625	0.83740234375	1.048828125	141.375	-84.1875	-7.0
19	03	17	11	20	35	0.229674356085	0.27819710737	-0.192137888109	-0.1171875	0.9296875	0.77392578125	84.8125	-49.8125	42.5
19	03	17	11	20	35	0.232659996724	0.287101947689	-0.188532720325	-1.09033203125	0.76123046875	0.61279296875	-29.0625	18.75	17.25
19	03	17	11	20	35	0.241691273114	0.281729019367	-0.170587653625	-0.6220703125	0.26953125	0.86474609375	-116.0	-0.875	22.3125
19	03	17	11	20	35	0.243531075878	0.276062921353	-0.153992206627	-0.412109375	-0.0048828125	1.08056640625	-69.4375	-1.8125	-5.5
19	03	17	11	20	35	0.242067349566	0.277162842758	-0.151368388029	-0.61865234375	0.13134765625	1.00244140625	11.3125	3.0625	0.5625
19	03	17	11	20	35	0.241516977915	0.280823759258	-0.160400964862	-0.5244140625	0.39892578125	0.81005859375	57.8125	5.8125	15.25
19	03	17	11	20	35	0.240468881761	0.286060316957	-0.170037133143	-0.5556640625	0.5244140625	0.64892578125	54.0625	7.75	10.625
19	03	17	11	20	35	0.241567882687	0.289295544198	-0.175652442237	-0.47021484375	0.57666015625	0.5595703125	20.875	6.1875	12.1875
19	03	17	11	20	35	0.241995663622	0.291005125888	-0.176019040072	-0.5673828125	0.56591796875	0.60400390625	-6.75	-1.8125	2.9375
19	03	17	11	20	35	0.242973861226	0.291434360049	-0.171992047459	-0.53857421875	0.3564453125	0.53369140625	-24.5	-4.375	3.4375
19	03	17	11	20	35	0.24200127212	0.296932204	-0.168027617187	-0.70361328125	0.26171875	0.6416015625	-4.4375	17.4375	-2.25
19	03	17	11	20	35	0.244317804523	0.295830226961	-0.171260494502	-0.078125	0.39208984375	0.57275390625	9.1875	7.25	9.875
19	03	17	11	20	35	0.236453003939	0.30963502555	-0.165712417577	-1.4541015625	0.10546875	0.43359375	12.9375	11.875	-19.8125
19	03	17	11	20	35	0.232846332788	0.32629003803	-0.156370197799	-1.29150390625	0.15478515625	0.38525390625	-12.625	48.25	-12.8125
19	03	17	11	20	35	0.244503988187	0.328609453919	-0.156919559068	0.13720703125	0.56787109375	0.65771484375	-21.5	59.8125	39.8125
19	03	17	11	20	35	0.240785202847	0.320863830511	-0.154053701391	0.4326171875	0.5634765625	0.94091796875	-22.875	8.25	-56.625
19	03	17	11	20	35	0.228085984502	0.323543966777	-0.158140429715	-0.83056640625	0.07861328125	0.80810546875	67.0625	-20.3125	-40.5
19	03	17	11	20	36	0.222353675611	0.338810116199	-0.165712387945	-1.259765625	0.43115234375	0.5751953125	71.5625	31.8125	0.8125
19	03	17	11	20	36	0.233519181178	0.330137284629	-0.175902321002	0.51513671875	1.10009765625	0.92333984375	-4.6875	14.875	30.9375
19	03	17	11	20	36	0.232415911331	0.31957187808	-0.174800202219	0.07373046875	0.9462890625	0.71728515625	-47.0625	-33.25	-38.6875
19	03	17	11	20	36	0.234732969843	0.313831755312	-0.168145952136	-0.7021484375	0.35546875	0.85986328125	-40.25	-30.625	12.125
19	03	17	11	20	36	0.238511817892	0.310529204051	-0.171010776288	-0.53759765625	0.55322265625	0.61669921875	-5.625	-24.25	27.0625
19	03	17	11	20	36	0.241636511991	0.305845052182	-0.172240019409	-0.46044921875	0.5859375	0.65625	-15.875	-26.3125	17.6875
19	03	17	11	20	36	0.245167908732	0.30217234656	-0.170036792066	-0.451171875	0.5087890625	0.65625	-29.5	-16.75	14.8125
19	03	17	11	20	36	0.248656420205	0.301268554278	-0.16332954847	-0.54052734375	0.4853515625	0.625	-49.4375	-1.5	7.6875
19	03	17	11	20	36	0.252923168889	0.300590397388	-0.15343842823	-0.55517578125	0.4462890625	0.69189453125	-63.6875	5.8125	6.625
19	03	17	11	20	36	0.256406859358	0.302060830032	-0.143248488197	-0.60400390625	0.36376953125	0.70654296875	-56.125	15.6875	4.6875
19	03	17	11	20	36	0.259947193656	0.30499087267	-0.134642758677	-0.6298828125	0.33740234375	0.7294921875	-43.8125	22.5625	8.1875
19	03	17	11	20	36	0.263173290961	0.307910309113	-0.127924679465	-0.5986328125	0.2841796875	0.72412109375	-31.0	21.4375	11.125
19	03	17	11	20	36	0.266040128475	0.310410666075	-0.1227971412	-0.49365234375	0.22265625	0.708984375	-19.9375	22.25	11.0625
19	03	17	11	20	36	0.267941487205	0.313839436721	-0.118162806202	-0.4677734375	0.23046875	0.74560546875	-13.9375	29.1875	5.4375
19	03	17	11	20	36	0.269154746754	0.31700447951	-0.114070345053	-0.4775390625	0.29638671875	0.78759765625	-13.125	27.4375	-0.0625
19	03	17	11	20	36	0.269294986131	0.320321869269	-0.109195088438	-0.509765625	0.32373046875	0.8056640625	-16.75	27.8125	-7.9375
19	03	17	11	20	36	0.268734212012	0.32372615501	-0.104795966846	-0.5400390625	0.337890625	0.83935546875	-13.125	26.875	-11.0625
19	03	17	11	20	36	0.267878912933	0.327875488785	-0.102476348785	-0.49755859375	0.365234375	0.7978515625	-2.75	29.4375	-11.1875
19	03	17	11	20	36	0.267025826851	0.333065128486	-0.100767917744	-0.5126953125	0.421875	0.75390625	-1.875	33.0625	-11.5625
19	03	17	11	20	36	0.265927098823	0.33855809437	-0.0978382234135	-0.54345703125	0.4423828125	0.65576171875	-10.6875	32.0	-16.0625
19	03	17	11	20	36	0.264579248315	0.343068040318	-0.0919161125635	-0.59423828125	0.41748046875	0.634765625	-27.1875	26.875	-22.0
19	03	17	11	20	36	0.263248412875	0.346928814927	-0.0834362579179	-0.6123046875	0.34423828125	0.62890625	-38.625	26.0625	-24.8125
19	03	17	11	20	36	0.261594854911	0.350461422515	-0.0734858155187	-0.6640625	0.25634765625	0.6826171875	-40.8125	25.75	-26.0625
19	03	17	11	20	36	0.258914051014	0.353946860404	-0.0648200665199	-0.72607421875	0.208984375	0.75146484375	-28.9375	23.6875	-26.0625
19	03	17	11	20	36	0.255981843444	0.356201725879	-0.0588990173875	-0.70361328125	0.19775390625	0.8828125	-13.5	19.8125	-22.625
19	03	17	11	20	36	0.253165022902	0.35747047713	-0.0563945229415	-0.64697265625	0.2578125	0.9814453125	0.5625	17.0	-19.3125
19	03	17	11	20	36	0.251580993762	0.358695172329	-0.0565172247026	-0.53564453125	0.30712890625	0.9921875	9.625	21.0	-10.875
19	03	17	11	20	36	0.249808056243	0.361315341548	-0.0556010601605	-0.54150390625	0.3095703125	0.9326171875	5.0625	27.9375	-13.9375
19	03	17	11	20	36	0.247928987741	0.363592560308	-0.05224697526	-0.6748046875	0.37841796875	0.87548828125	-12.5625	20.375	-20.875
19	03	17	11	20	36	0.248769954118	0.36161971986	-0.0455915494912	-0.69677734375	0.42138671875	0.85400390625	-45.3125	-0.8125	-15.875
19	03	17	11	20	36	0.250784858842	0.355578629256	-0.0350940116413	-0.5595703125	0.2529296875	0.787109375	-67.125	-15.375	-14.9375
19	03	17	11	20	36	0.253169293129	0.351128964169	-0.0249018976848	-0.55029296875	0.0771484375	0.66845703125	-57.625	-10.5625	-4.4375
19	03	17	11	20	36	0.255242701293	0.349417614754	-0.0211176409965	-0.529296875	0.04638671875	0.5966796875	-19.8125	-5.5	9.0625
19	03	17	11	20	36	0.256031839222	0.34947277983	-0.024107884742	-0.49169921875	0.16796875	0.55615234375	13.625	-5.1875	10.9375
19	03	17	11	20	36	0.255985089593	0.350896108743	-0.0289310759339	-0.53271484375	0.2880859375	0.56591796875	21.0	-2.0	6.25
19	03	17	11	20	36	0.256156178752	0.352283408091	-0.0325306750714	-0.58203125	0.34912109375	0.609375	12.25	-0.75	3.4375
19	03	17	11	20	36	0.256411558	0.352787147165	-0.0340579979443	-0.59228515625	0.353515625	0.7041015625	1.5625	0.4375	-0.6875
19	03	17	11	20	36	0.256644968418	0.35283342745	-0.0344227734097	-0.6171875	0.32275390625	0.8173828125	-1.8125	2.8125	-1.125
19	03	17	11	20	36	0.257137310402	0.352839020042	-0.035094695818	-0.61279296875	0.2734375	0.84814453125	3.0	4.1875	2.625
19	03	17	11	20	36	0.257745625592	0.352470042101	-0.0360709601527	-0.5869140625	0.2490234375	0.880859375	5.3125	3.9375	4.5625
19	03	17	11	20	36	0.259023440554	0.351244085859	-0.0376572721069	-0.54638671875	0.28955078125	0.86083984375	3.5625	-0.25	7.25
19	03	17	11	20	36	0.260195208093	0.350405979278	-0.0378421367623	-0.52490234375	0.2509765625	0.75927734375	-2.875	0.625	4.875
19	03	17	11	20	36	0.260992357741	0.349922634923	-0.0364998666813	-0.5771484375	0.21728515625	0.705078125	-8.4375	-0.5625	2.25
19	03	17	11	20	36	0.262151608621	0.349799969502	-0.0354011485449	-0.5859375	0.20849609375	0.6591796875	-7.5625	-0.9375	5.3125
19	03	17	11	20	36	0.26293994044	0.349610022944	-0.0349732093483	-0.60400390625	0.20703125	0.67138671875	-3.375	-3.375	5.0625
19	03	17	11	20	36	0.263421261173	0.34923458212	-0.0357046890144	-0.6103515625	0.216796875	0.76806640625	4.125	-2.25	5.3125
19	03	17	11	20	36	0.263728976879	0.350153469186	-0.0379633009995	-0.63232421875	0.2666015625	0.85400390625	13.5625	5.6875	6.5625
19	03	17	11	20	36	0.2636610031	0.352280395808	-0.0394881178254	-0.677734375	0.3466796875	0.86474609375	8.4375	11.9375	0.75
19	03	17	11	20	36	0.263848212721	0.354666195725	-0.0372915239353	-0.76806640625	0.36474609375	0.84716796875	-11.9375	13.9375	-4.8125
19	03	17	11	20	36	0.264950745021	0.354915591407	-0.0305782822519	-0.74560546875	0.31640625	0.8173828125	-39.125	8.4375	-8.6875
19	03	17	11	20	37	0.266847010347	0.353212179524	-0.0212403384265	-0.65283203125	0.22900390625	0.7890625	-53.75	4.9375	-9.25
19	03	17	11	20	37	0.268299652111	0.351243061396	-0.0122065355828	-0.56298828125	0.1513671875	0.76171875	-49.375	6.5625	-9.8125
19	03	17	11	20	37	0.268975410578	0.351004671258	-0.00604233393402	-0.5390625	0.1083984375	0.71923828125	-28.875	11.5	-6.125
19	03	17	11	20	37	0.268974324958	0.352284956582	-0.00433337351305	-0.52294921875	0.1669921875	0.6689453125	-6.5	12.1875	-3.0625
19	03	17	11	20	37	0.268732821514	0.354302527569	-0.00445548398149	-0.57470703125	0.19287109375	0.626953125	2.8125	9.0625	-0.5
19	03	17	11	20	37	0.269587088005	0.355644999276	-0.00537099020702	-0.58740234375	0.22412109375	0.6357421875	2.0625	4.75	5.75
19	03	17	11	20	37	0.271118977616	0.355652922686	-0.00573732190363	-0.56640625	0.21240234375	0.6767578125	-2.5	0.875	7.875
19	03	17	11	20	37	0.27184240908	0.355335991393	-0.00524886555475	-0.58251953125	0.1884765625	0.736328125	-4.0	1.25	2.9375
19	03	17	11	20	37	0.272152578764	0.355525627113	-0.00469965206656	-0.61962890625	0.177734375	0.74755859375	-2.125	3.0625	1.5625
19	03	17	11	20	37	0.27257913395	0.356135075369	-0.00384516019679	-0.64599609375	0.177734375	0.72607421875	-3.375	3.6875	1.9375
19	03	17	11	20	37	0.273433196373	0.355951428849	-0.00299067558533	-0.62353515625	0.19677734375	0.7255859375	-6.3125	0.3125	2.9375
19	03	17	11	20	37	0.274405264739	0.35570148641	-0.00274649397537	-0.56689453125	0.17431640625	0.7109375	-2.8125	1.6875	5.0
19	03	17	11	20	37	0.275513408639	0.355835882225	-0.00323487165659	-0.5419921875	0.2158203125	0.69970703125	-1.0	3.375	5.25
19	03	17	11	20	37	0.276546083029	0.356439886315	-0.00439446435183	-0.5712890625	0.25146484375	0.67626953125	0.9375	2.5625	5.6875
19	03	17	11	20	37	0.277465502469	0.356139728751	-0.00531005251095	-0.58251953125	0.28125	0.69580078125	-2.3125	-2.25	2.6875
19	03	17	11	20	37	0.278500133283	0.355647660889	-0.00616447807617	-0.61328125	0.25830078125	0.7001953125	-1.625	-4.6875	4.6875
19	03	17	11	20	37	0.280024480068	0.355035396807	-0.00811753614843	-0.6171875	0.2724609375	0.71923828125	2.375	-6.3125	9.375
19	03	17	11	20	37	0.28148784633	0.354728396113	-0.0111081500503	-0.611328125	0.2529296875	0.72998046875	9.6875	-5.625	12.375
19	03	17	11	20	37	0.282409643245	0.355163543126	-0.0154418931794	-0.62744140625	0.24853515625	0.7138671875	19.375	-5.0	13.4375
19	03	17	11	20	37	0.283316947186	0.356190802192	-0.0213006494114	-0.6298828125	0.2607421875	0.6875	27.5	-5.4375	16.8125
19	03	17	11	20	37	0.284543740269	0.356686747776	-0.0279538895417	-0.5966796875	0.28955078125	0.6943359375	29.5625	-7.6875	19.0
19	03	17	11	20	37	0.286245543358	0.356616782482	-0.0346668376604	-0.56884765625	0.3134765625	0.72998046875	28.0625	-7.4375	20.75
19	03	17	11	20	37	0.287661531756	0.356692975087	-0.0409549942305	-0.5703125	0.34912109375	0.77978515625	26.375	-4.625	17.4375
19	03	17	11	20	37	0.288447085206	0.356805260287	-0.0465079726888	-0.5908203125	0.39404296875	0.81005859375	22.75	-3.4375	11.375
19	03	17	11	20	37	0.288748142978	0.357227410875	-0.049681037494	-0.6796875	0.3740234375	0.82177734375	13.625	-2.4375	6.875
19	03	17	11	20	37	0.289848052157	0.356374558126	-0.0504136641569	-0.70654296875	0.36865234375	0.85400390625	-1.1875	-5.75	6.4375
19	03	17	11	20	37	0.291200463994	0.354799475414	-0.0499880905494	-0.66357421875	0.2998046875	0.85009765625	-5.6875	-6.0625	7.0625
19	03	17	11	20	37	0.292543556025	0.353640176009	-0.0492557166101	-0.60302734375	0.29638671875	0.837890625	-6.6875	-0.875	5.25
19	03	17	11	20	37	0.293517033111	0.353392310608	-0.0487058832236	-0.62158203125	0.33056640625	0.78369140625	-6.375	0.875	3.125
19	03	17	11	20	37	0.295158067089	0.353750239216	-0.0476671733657	-0.62158203125	0.40869140625	0.75732421875	-13.6875	4.4375	2.8125
19	03	17	11	20	37	0.297477537816	0.35246876916	-0.0449206950826	-0.53564453125	0.38427734375	0.744140625	-25.75	2.1875	1.4375
19	03	17	11	20	37	0.299612069305	0.350879972791	-0.0393053926731	-0.533203125	0.33642578125	0.7666015625	-38.1875	5.8125	-4.125
19	03	17	11	20	37	0.300904386344	0.349305436723	-0.0308228631042	-0.66748046875	0.2578125	0.77392578125	-47.8125	3.3125	-9.4375
19	03	17	11	20	37	0.302785678798	0.347706110082	-0.0234977799511	-0.62646484375	0.201171875	0.77685546875	-41.1875	3.8125	-2.625
19	03	17	11	20	37	0.304320801579	0.345458430994	-0.0162353255556	-0.5615234375	0.15087890625	0.75341796875	-39.1875	2.5	-4.4375
19	03	17	11	20	37	0.304074888575	0.346371937508	-0.0107421076654	-0.7470703125	0.1201171875	0.72802734375	-20.5625	5.625	-5.0
19	03	17	11	20	37	0.305177071604	0.346925294999	-0.0111694808207	-0.58642578125	0.2109375	0.73876953125	1.8125	3.5625	8.1875
19	03	17	11	20	37	0.306025846713	0.347590186883	-0.0121458204021	-0.51708984375	0.263671875	0.6845703125	1.6875	4.75	4.375
19	03	17	11	20	37	0.305961835961	0.349845051612	-0.0119626012065	-0.75439453125	0.26220703125	0.6728515625	0.4375	2.375	1.625
19	03	17	11	20	37	0.3076831726	0.349859144087	-0.0142214201976	-0.6767578125	0.29052734375	0.72412109375	4.625	-7.375	13.375
19	03	17	11	20	37	0.310174607041	0.348137732893	-0.0156246948844	-0.529296875	0.31298828125	0.759765625	-4.375	-6.25	11.5
19	03	17	11	20	37	0.310915487579	0.347719971091	-0.0157471919504	-0.59375	0.24755859375	0.8203125	-0.9375	1.25	3.6875
19	03	17	11	20	37	0.311328949473	0.347765605587	-0.0156244287522	-0.65380859375	0.25244140625	0.8583984375	-0.0625	2.4375	2.75
19	03	17	11	20	37	0.312319592074	0.347476145725	-0.0137330287701	-0.69189453125	0.23486328125	0.80517578125	-10.8125	-0.1875	3.25
19	03	17	11	20	37	0.313844443005	0.346193247904	-0.0113525994552	-0.60302734375	0.212890625	0.75390625	-16.5	-2.375	4.25
19	03	17	11	20	37	0.315436139404	0.345527086913	-0.0101930795821	-0.537109375	0.189453125	0.71826171875	-8.25	1.125	7.125
19	03	17	11	20	37	0.316643311995	0.346366768614	-0.0109860825287	-0.5224609375	0.24658203125	0.65380859375	0.875	4.375	7.375
19	03	17	11	20	37	0.317202173186	0.347903095471	-0.0126954112032	-0.5439453125	0.25537109375	0.62939453125	7.4375	4.3125	5.5625
19	03	17	11	20	37	0.31799241598	0.3489371674	-0.0156859982547	-0.53076171875	0.3212890625	0.65234375	10.0	0.8125	7.0625
19	03	17	11	20	37	0.318775738141	0.349231241364	-0.0185540540676	-0.47705078125	0.31884765625	0.62890625	7.625	-1.625	5.5625
19	03	17	11	20	38	0.319634944153	0.348992287697	-0.0192257031522	-0.505859375	0.2783203125	0.6279296875	-2.125	-1.8125	3.4375
19	03	17	11	20	38	0.320735681893	0.349055635537	-0.0190427274502	-0.5517578125	0.2568359375	0.7138671875	-3.75	2.375	5.0625
19	03	17	11	20	38	0.322513905275	0.348087964001	-0.0197756444567	-0.53173828125	0.29345703125	0.705078125	-4.25	-4.1875	8.125
19	03	17	11	20	38	0.323664102446	0.347650523766	-0.017883006226	-0.65966796875	0.197265625	0.7158203125	-10.5	-3.125	5.9375
19	03	17	11	20	38	0.324771901111	0.344852704618	-0.0177004043079	-0.60498046875	0.21826171875	0.912109375	-3.8125	-9.0	6.0625
19	03	17	11	20	38	0.325623364661	0.345765016083	-0.0208130398031	-0.6533203125	0.30224609375	0.78466796875	14.125	-1.8125	10.875
19	03	17	11	20	38	0.325323570353	0.346381099766	-0.0197757667532	-0.77392578125	0.2744140625	0.7998046875	-3.5	-2.5	-0.6875
19	03	17	11	20	38	0.325676922812	0.346794654314	-0.0191036126012	-0.8134765625	0.34033203125	0.896484375	-5.1875	-1.9375	1.625
19	03	17	11	20	38	0.327143162386	0.347223405002	-0.0197750717561	-0.77294921875	0.376953125	0.8427734375	-3.3125	-3.375	8.25
19	03	17	11	20	38	0.328734485137	0.34747222872	-0.0182494636197	-0.71875	0.36376953125	0.89111328125	-13.375	5.0625	3.875
19	03	17	11	20	38	0.330072245649	0.34880970486	-0.0160519601711	-0.78564453125	0.3759765625	0.88916015625	-14.875	8.625	2.5
19	03	17	11	20	38	0.331848931395	0.350525733493	-0.0142822604279	-0.6962890625	0.43701171875	0.82958984375	-17.375	13.0625	1.5
19	03	17	11	20	38	0.333555278073	0.350339852908	-0.0081176307381	-0.59814453125	0.3125	0.76708984375	-37.9375	13.125	-5.8125
19	03	17	11	20	38	0.335020388887	0.351316698567	-0.00115966248658	-0.5888671875	0.2265625	0.765625	-35.5	21.75	-4.8125
19	03	17	11	20	38	0.336726504554	0.352107160553	0.00433343879342	-0.5126953125	0.17578125	0.69140625	-27.375	19.4375	-0.0625
19	03	17	11	20	38	0.338248377801	0.353323684426	0.00830057368836	-0.5078125	0.16064453125	0.64306640625	-18.75	17.4375	2.6875
19	03	17	11	20	38	0.338925989128	0.35485605993	0.00964349113673	-0.4814453125	0.1650390625	0.5966796875	-4.875	12.875	2.75
19	03	17	11	20	38	0.339288610633	0.357110570392	0.00805650235717	-0.46630859375	0.1904296875	0.55517578125	10.6875	10.25	6.125
19	03	17	11	20	38	0.338797932252	0.359122146166	0.0054319971123	-0.4619140625	0.26416015625	0.55078125	13.125	6.375	0.25
19	03	17	11	20	38	0.338925450639	0.361203100465	0.00335690613815	-0.5390625	0.27197265625	0.53955078125	8.8125	4.25	3.5625
19	03	17	11	20	38	0.340870659562	0.361621962025	0.00329579509693	-0.5478515625	0.29736328125	0.55419921875	-9.125	-0.0625	7.6875
19	03	17	11	20	38	0.343798564725	0.360887788606	0.00512676716437	-0.55078125	0.21826171875	0.5732421875	-18.25	-1.625	12.0
19	03	17	11	20	38	0.346066277975	0.360104239868	0.00659173862809	-0.56396484375	0.18359375	0.59130859375	-13.1875	-3.25	10.625
19	03	17	11	20	38	0.347480717243	0.360298379393	0.00628675810224	-0.619140625	0.1298828125	0.595703125	2.25	-4.25	13.8125
19	03	17	11	20	38	0.34911728247	0.361324180459	0.00189206918821	-0.64306640625	0.25732421875	0.6572265625	18.3125	-5.875	19.0625
19	03	17	11	20	38	0.351430670531	0.36302702819	-0.00463854306363	-0.666015625	0.35400390625	0.68603515625	25.5625	-5.6875	25.0625
19	03	17	11	20	38	0.354121631125	0.364985755623	-0.0120848126444	-0.6806640625	0.38916015625	0.75439453125	29.6875	-3.0625	29.25
19	03	17	11	20	38	0.356743491307	0.367668569997	-0.0205074102787	-0.68310546875	0.43994140625	0.787109375	35.5625	0.1875	30.1875
19	03	17	11	20	38	0.358151184827	0.371273629397	-0.0285642049249	-0.73876953125	0.4658203125	0.7626953125	37.625	1.8125	24.25
19	03	17	11	20	38	0.359257203693	0.374272030759	-0.0346683811923	-0.8515625	0.44384765625	0.77978515625	29.5	-2.5625	22.3125
19	03	17	11	20	38	0.362493305314	0.376043316053	-0.0411993569771	-0.72216796875	0.435546875	0.77685546875	26.0	-1.875	33.125
19	03	17	11	20	38	0.365175390629	0.37878630691	-0.0485842572189	-0.5361328125	0.39501953125	0.6787109375	34.0	6.875	30.8125
19	03	17	11	20	38	0.365648477295	0.383225970445	-0.0551127649804	-0.5419921875	0.3916015625	0.58642578125	36.75	12.0625	18.3125
19	03	17	11	20	38	0.366880411477	0.385862246108	-0.0588986187115	-0.64013671875	0.4326171875	0.56005859375	15.6875	2.5	16.1875
19	03	17	11	20	38	0.370410792413	0.386889769832	-0.0617656486937	-0.64794921875	0.35107421875	0.55615234375	7.0625	-3.0	30.375
19	03	17	11	20	38	0.375552535616	0.386355850878	-0.0666509619524	-0.51708984375	0.3994140625	0.62158203125	10.0625	-4.9375	38.6875
19	03	17	11	20	38	0.378721299854	0.385435134339	-0.0723873427279	-0.45263671875	0.4482421875	0.64794921875	16.0625	-7.0625	26.1875
19	03	17	11	20	38	0.378235673479	0.385865084353	-0.0780030967736	-0.59228515625	0.50537109375	0.74072265625	26.75	-7.375	7.4375
19	03	17	11	20	38	0.378408046144	0.386830676848	-0.0817239312559	-0.7919921875	0.505859375	0.8505859375	21.1875	-4.875	13.625
19	03	17	11	20	38	0.380788254819	0.385976105702	-0.0846535197041	-0.71484375	0.48779296875	0.8212890625	8.6875	-8.1875	22.25
19	03	17	11	20	38	0.383660822174	0.38347771965	-0.0865464597268	-0.55029296875	0.390625	0.82275390625	3.6875	-7.1875	21.1875
19	03	17	11	20	38	0.385010175111	0.384033611572	-0.0879517536992	-0.58544921875	0.3828125	0.71435546875	9.125	2.75	14.125
19	03	17	11	20	38	0.386346159632	0.383965827843	-0.087156763974	-0.6279296875	0.421875	0.63232421875	-7.5	-1.8125	8.25
19	03	17	11	20	38	0.387438001813	0.382616388369	-0.0854463141994	-0.65673828125	0.3955078125	0.6435546875	-13.0625	-8.8125	5.9375
19	03	17	11	20	38	0.389829371895	0.380796219078	-0.0854487428609	-0.5869140625	0.4375	0.63720703125	-10.9375	-9.8125	13.625
19	03	17	11	20	38	0.393186697646	0.379270744982	-0.0863643553508	-0.52001953125	0.4853515625	0.60205078125	-11.0	-7.4375	17.8125
19	03	17	11	20	38	0.395264642238	0.378724074287	-0.0856935697501	-0.59130859375	0.4287109375	0.638671875	-9.5625	-2.25	11.5
19	03	17	11	20	38	0.396845963113	0.378474595088	-0.0861196022688	-0.69775390625	0.46142578125	0.7958984375	0.3125	-3.0625	13.6875
19	03	17	11	20	38	0.399045049409	0.377743929458	-0.0896600149254	-0.55126953125	0.51953125	0.71728515625	8.125	-6.875	18.25
19	03	17	11	20	38	0.400452815559	0.378358025248	-0.0908816098716	-0.4638671875	0.4404296875	0.6123046875	2.5625	4.125	8.8125
19	03	17	11	20	39	0.400438123515	0.379259640226	-0.0873993892508	-0.62646484375	0.2841796875	0.57470703125	-10.25	4.25	0.625
19	03	17	11	20	39	0.402644535399	0.375972462947	-0.0860586319408	-0.5361328125	0.3037109375	0.689453125	-12.5	-12.25	12.6875
19	03	17	11	20	39	0.40410821231	0.371882092978	-0.0869739016073	-0.44189453125	0.24072265625	0.77294921875	3.375	-14.875	13.3125
19	03	17	11	20	39	0.402576756143	0.372304155923	-0.09277087164	-0.55615234375	0.3251953125	0.7841796875	40.6875	-9.6875	10.0625
19	03	17	11	20	39	0.401547981089	0.375913363053	-0.102233298119	-0.6845703125	0.63330078125	0.7666015625	51.0625	-5.0	17.3125
19	03	17	11	20	39	0.402151628877	0.376639505509	-0.105649486961	-0.63671875	0.642578125	0.7744140625	12.0	-3.4375	8.9375
19	03	17	11	20	39	0.402148232059	0.375720825095	-0.105160328401	-0.67822265625	0.51806640625	0.849609375	-1.6875	-5.25	1.4375
19	03	17	11	20	39	0.402397459379	0.374810070991	-0.104002012859	-0.62890625	0.4931640625	0.81005859375	-5.4375	-2.6875	0.5625
19	03	17	11	20	39	0.403132432133	0.373835904135	-0.102171641391	-0.5595703125	0.4169921875	0.76171875	-8.0625	0.5	2.1875
19	03	17	11	20	39	0.403986981922	0.373042519037	-0.101195107422	-0.4912109375	0.3955078125	0.75	-3.25	3.125	3.5625
19	03	17	11	20	39	0.403627263319	0.373475763534	-0.0999149901789	-0.5478515625	0.4423828125	0.71630859375	-2.8125	4.5625	-3.875
19	03	17	11	20	39	0.403495346954	0.373710786477	-0.0971660251627	-0.619140625	0.44775390625	0.7138671875	-11.25	3.5625	-4.3125
19	03	17	11	20	39	0.403922992267	0.372673585794	-0.0935651174291	-0.5673828125	0.3935546875	0.744140625	-16.25	2.3125	-3.6875
19	03	17	11	20	39	0.404487295454	0.370551134857	-0.0888687946553	-0.53076171875	0.3427734375	0.7998046875	-21.0	2.8125	-5.25
19	03	17	11	20	39	0.405215730152	0.368289157364	-0.0834357438045	-0.53125	0.31103515625	0.81640625	-23.8125	4.3125	-5.375
19	03	17	11	20	39	0.405566714727	0.366566394078	-0.077207207544	-0.572265625	0.26806640625	0.75	-26.25	3.6875	-6.6875
19	03	17	11	20	39	0.406058894763	0.364372704305	-0.070799386431	-0.5517578125	0.24853515625	0.7099609375	-29.25	1.5	-6.8125
19	03	17	11	20	39	0.406361591821	0.362051210976	-0.0649397317058	-0.54443359375	0.251953125	0.71240234375	-27.4375	-0.1875	-7.5625
19	03	17	11	20	39	0.406498264907	0.360843504825	-0.0608526681851	-0.54296875	0.27490234375	0.68505859375	-18.125	0.625	-4.8125
19	03	17	11	20	39	0.406926095945	0.359867445881	-0.0578009618809	-0.501953125	0.294921875	0.6640625	-15.0625	1.8125	-2.5
19	03	17	11	20	39	0.407773559285	0.358762607616	-0.0543820148665	-0.5029296875	0.3046875	0.693359375	-17.875	3.625	-1.8125
19	03	17	11	20	39	0.408145098083	0.357668651827	-0.0499881614072	-0.6044921875	0.2861328125	0.72998046875	-20.375	1.1875	-3.75
19	03	17	11	20	39	0.407962381854	0.356082066986	-0.0462650337291	-0.6318359375	0.255859375	0.75927734375	-15.375	-4.125	-3.9375
19	03	17	11	20	39	0.408213817287	0.354928730192	-0.0448620149082	-0.53662109375	0.3017578125	0.76220703125	-6.25	-1.125	-0.625
19	03	17	11	20	39	0.408210418353	0.355108883669	-0.043579880189	-0.5380859375	0.30859375	0.697265625	-4.3125	3.0625	-1.0625
19	03	17	11	20	39	0.408204603104	0.355103824889	-0.0415040565357	-0.60107421875	0.2939453125	0.697265625	-7.5625	0.8125	-1.0625
19	03	17	11	20	39	0.40820849461	0.354008562909	-0.0394902655521	-0.62109375	0.25439453125	0.73681640625	-7.625	-5.125	0.1875
19	03	17	11	20	39	0.408266913778	0.35260247584	-0.0385744789218	-0.60546875	0.232421875	0.759765625	-1.125	-7.75	3.25
19	03	17	11	20	39	0.408626436091	0.351192907135	-0.0399166077974	-0.51513671875	0.2685546875	0.80615234375	8.1875	-6.125	6.3125
19	03	17	11	20	39	0.408260182294	0.351192867233	-0.0410762599318	-0.54833984375	0.30419921875	0.82275390625	10.6875	0.3125	2.0
19	03	17	11	20	39	0.407951870538	0.35112913094	-0.039794227946	-0.6494140625	0.326171875	0.822265625	-2.625	0.5625	-1.5
19	03	17	11	20	39	0.408567094753	0.348997109023	-0.0363767535812	-0.6220703125	0.31396484375	0.8505859375	-18.625	-3.5625	-2.375
19	03	17	11	20	39	0.409232626062	0.346489726794	-0.0316155854288	-0.54638671875	0.2421875	0.810546875	-24.375	0.375	-4.3125
19	03	17	11	20	39	0.40904889033	0.345512648188	-0.026366624981	-0.56884765625	0.2060546875	0.7509765625	-21.0	5.25	-7.8125
19	03	17	11	20	39	0.408625160474	0.344905269879	-0.0228268573588	-0.60009765625	0.259765625	0.74609375	-14.875	2.0	-7.1875
19	03	17	11	20	39	0.408887603286	0.344066191927	-0.0202032835778	-0.5224609375	0.251953125	0.72705078125	-12.875	2.4375	-2.9375
19	03	17	11	20	39	0.408697561833	0.343755177456	-0.0169069929253	-0.56884765625	0.205078125	0.73193359375	-11.375	4.25	-4.125
19	03	17	11	20	39	0.408807981112	0.34246365811	-0.0139158285598	-0.57861328125	0.21240234375	0.8017578125	-12.0	0.4375	-2.5625
19	03	17	11	20	39	0.409115532576	0.340817713547	-0.0113524524928	-0.56591796875	0.2197265625	0.845703125	-11.125	0.5	-1.5
19	03	17	11	20	39	0.408815205882	0.339723116742	-0.00830081636308	-0.57958984375	0.19482421875	0.80712890625	-10.875	1.1875	-4.875
19	03	17	11	20	39	0.408505785249	0.339109239929	-0.00543209545603	-0.62890625	0.21728515625	0.80322265625	-10.5625	1.25	-4.0
19	03	17	11	20	39	0.40844590077	0.339049160009	-0.00341795732862	-0.65234375	0.22314453125	0.78173828125	-6.25	0.5	-0.6875
19	03	17	11	20	39	0.408451348098	0.339175753344	-0.00238039488581	-0.64404296875	0.22705078125	0.76806640625	-1.75	-0.9375	1.6875
19	03	17	11	20	39	0.408572991164	0.340090933189	-0.00317385651935	-0.607421875	0.2294921875	0.759765625	8.25	1.1875	6.0
19	03	17	11	20	39	0.408326357461	0.34204198912	-0.005126967717	-0.61279296875	0.2607421875	0.755859375	15.625	3.75	5.8125
19	03	17	11	20	39	0.407770982229	0.344051044278	-0.00720206195225	-0.63427734375	0.2783203125	0.76416015625	16.5625	2.9375	4.6875
19	03	17	11	20	39	0.407530713518	0.345030870678	-0.00866697039382	-0.5859375	0.2529296875	0.7705078125	12.4375	2.0	4.125
19	03	17	11	20	39	0.407479150761	0.345771328499	-0.00939960893007	-0.57080078125	0.24169921875	0.76904296875	8.6875	2.75	3.875
19	03	17	11	20	39	0.407645392614	0.346245293052	-0.00982645728564	-0.53125	0.22412109375	0.75390625	6.75	4.3125	4.3125
19	03	17	11	20	40	0.407292302775	0.346744728318	-0.00976573781568	-0.546875	0.20947265625	0.7529296875	5.9375	3.9375	1.25
19	03	17	11	20	40	0.407155008675	0.346975899313	-0.0100095070338	-0.59814453125	0.24267578125	0.74658203125	4.875	-0.875	2.375
19	03	17	11	20	40	0.407663893422	0.346261007244	-0.0104372699169	-0.587890625	0.279296875	0.7744140625	0.625	-4.5	4.375
19	03	17	11	20	40	0.407969664188	0.345468028022	-0.00982691740488	-0.59130859375	0.228515625	0.79833984375	-0.8125	-2.3125	3.0
19	03	17	11	20	40	0.407638026401	0.345689741209	-0.0100093781	-0.63134765625	0.2666015625	0.82568359375	5.0	0.1875	0.875
19	03	17	11	20	40	0.407216255382	0.347037114524	-0.0104977811639	-0.64501953125	0.2998046875	0.75341796875	6.375	2.3125	1.25
19	03	17	11	20	40	0.40740693079	0.347837018512	-0.00970452464353	-0.6337890625	0.27392578125	0.6845703125	-2.5625	0.5	2.125
19	03	17	11	20	40	0.408449139469	0.347779915824	-0.00958256349323	-0.55322265625	0.24755859375	0.67724609375	-1.8125	-0.75	7.4375
19	03	17	11	20	40	0.409108388013	0.348501998441	-0.0110470861152	-0.5126953125	0.24755859375	0.66552734375	8.375	1.375	8.4375
19	03	17	11	20	40	0.408993033541	0.350277722652	-0.0136717563816	-0.53564453125	0.29052734375	0.67822265625	16.3125	2.9375	6.25
19	03	17	11	20	40	0.408266219474	0.351991521559	-0.0166626817037	-0.56689453125	0.33056640625	0.7041015625	18.25	0.8125	2.25
19	03	17	11	20	40	0.407477581115	0.352789158006	-0.0184939645114	-0.6328125	0.34521484375	0.7666015625	11.125	-2.8125	-0.0625
19	03	17	11	20	40	0.407721275499	0.351873226534	-0.0194705219886	-0.56689453125	0.3115234375	0.80859375	3.8125	-4.375	2.6875
19	03	17	11	20	40	0.407763788299	0.351613109473	-0.019652737589	-0.52490234375	0.23974609375	0.77734375	4.875	1.9375	2.375
19	03	17	11	20	40	0.407351415921	0.351564901964	-0.019897596882	-0.5361328125	0.24560546875	0.76806640625	6.25	1.5625	0.0625
19	03	17	11	20	40	0.406981606959	0.35211111136	-0.0206908765385	-0.5791015625	0.263671875	0.712890625	7.75	-0.8125	2.375
19	03	17	11	20	40	0.407218198573	0.351860448857	-0.0209346286137	-0.56591796875	0.29736328125	0.68896484375	0.25	-3.625	2.4375
19	03	17	11	20	40	0.407532774439	0.351624429166	-0.0204468293301	-0.568359375	0.30126953125	0.72998046875	-3.375	-0.625	1.1875
19	03	17	11	20	40	0.407299617958	0.351755986557	-0.0193487155541	-0.60107421875	0.3271484375	0.77294921875	-4.25	2.8125	-3.5
19	03	17	11	20	40	0.406490945471	0.352170083389	-0.0167235013602	-0.6806640625	0.32421875	0.78173828125	-10.3125	3.3125	-8.0625
19	03	17	11	20	40	0.406007648662	0.35211336818	-0.0134277935517	-0.697265625	0.31396484375	0.76513671875	-15.0625	1.0625	-7.375
19	03	17	11	20	40	0.406192724371	0.351687825369	-0.0108033226467	-0.61767578125	0.25927734375	0.7294921875	-12.3125	1.25	-2.25
19	03	17	11	20	40	0.406550317994	0.351924505863	-0.0100706804487	-0.5380859375	0.25537109375	0.69970703125	-2.25	3.5625	1.8125
19	03	17	11	20	40	0.406546636339	0.353508199621	-0.0114743683579	-0.52783203125	0.25634765625	0.6640625	11.375	5.5	5.0625
19	03	17	11	20	40	0.406192726641	0.355044792017	-0.0145875374406	-0.52587890625	0.310546875	0.6796875	17.6875	1.5	4.375
19	03	17	11	20	40	0.406071912307	0.355595214354	-0.0180666294969	-0.5009765625	0.322265625	0.68896484375	16.9375	-2.8125	4.875
19	03	17	11	20	40	0.406187467569	0.354918125306	-0.0206908416988	-0.45458984375	0.31201171875	0.72900390625	11.1875	-3.875	3.3125
19	03	17	11	20	40	0.406253067695	0.35425072189	-0.0228883564281	-0.44287109375	0.287109375	0.74462890625	10.6875	-1.6875	2.875
19	03	17	11	20	40	0.406248718157	0.353880719332	-0.0244750204298	-0.4482421875	0.2890625	0.75927734375	9.1875	1.3125	1.5625
19	03	17	11	20	40	0.406004780974	0.353270546043	-0.024719172624	-0.49462890625	0.26708984375	0.7470703125	3.0625	-0.1875	-1.0625
19	03	17	11	20	40	0.406301146995	0.352286348273	-0.0241082999944	-0.51318359375	0.2734375	0.7431640625	-3.1875	-0.6875	0.375
19	03	17	11	20	40	0.406923942551	0.350893317193	-0.0222779719561	-0.46142578125	0.23876953125	0.755859375	-8.75	2.9375	-0.3125
19	03	17	11	20	40	0.406913370117	0.349846623295	-0.0186763898689	-0.5126953125	0.2314453125	0.76416015625	-15.4375	5.875	-6.4375
19	03	17	11	20	40	0.406626062559	0.348824369188	-0.0142825725967	-0.59375	0.27880859375	0.77392578125	-21.0625	3.8125	-10.1875
19	03	17	11	20	40	0.406491322526	0.347592805073	-0.00903314050057	-0.6318359375	0.27783203125	0.7421875	-27.5625	1.6875	-10.625
19	03	17	11	20	40	0.406801651728	0.345216825532	-0.00354005938488	-0.62548828125	0.27001953125	0.77294921875	-31.625	-2.375	-9.6875
19	03	17	11	20	40	0.407222015257	0.344173402883	-0.000915517120632	-0.56494140625	0.27099609375	0.76416015625	-15.375	1.5625	-3.5625
19	03	17	11	20	40	0.40752497043	0.345026008363	-0.000305170713217	-0.52587890625	0.28466796875	0.73583984375	-2.125	8.5	-0.0625
19	03	17	11	20	40	0.406921110067	0.347045662493	0.0	-0.62451171875	0.29736328125	0.736328125	2.8125	8.625	-2.0625
19	03	17	11	20	40	0.406786060694	0.348011120492	-6.1033167396e-05	-0.630859375	0.30029296875	0.767578125	2.25	3.375	0.25
19	03	17	11	20	40	0.406613385933	0.347714869358	0.000793451518633	-0.580078125	0.24169921875	0.78662109375	-1.8125	1.625	-1.75
19	03	17	11	20	40	0.406004712156	0.348265617493	0.00170897954606	-0.59326171875	0.23095703125	0.79345703125	1.25	5.9375	-2.625
19	03	17	11	20	40	0.405335580237	0.348877906435	0.00280762485935	-0.5888671875	0.21240234375	0.78271484375	1.5	6.875	-3.0625
19	03	17	11	20	40	0.404547061222	0.349004238997	0.00500495760716	-0.60791015625	0.17626953125	0.751953125	-3.875	4.0	-4.625
19	03	17	11	20	40	0.404303898236	0.347601253088	0.00775159949818	-0.57958984375	0.14453125	0.7685546875	-9.1875	-0.625	-3.3125
19	03	17	11	20	40	0.404718125799	0.345942141009	0.00976548033899	-0.5283203125	0.1640625	0.7421875	-9.4375	-1.25	-0.375
19	03	17	11	20	40	0.40502069594	0.344475106673	0.0122067720295	-0.53076171875	0.17578125	0.69921875	-12.6875	-1.5	-2.25
19	03	17	11	20	40	0.405266655823	0.343011838212	0.0150143971886	-0.560546875	0.19970703125	0.724609375	-15.3125	-1.5625	-3.6875
19	03	17	11	20	40	0.405627117255	0.341969415886	0.0159296836599	-0.5771484375	0.26708984375	0.71142578125	-9.5	-5.0	-1.6875
19	03	17	11	20	40	0.406196822973	0.341498305715	0.0157473749552	-0.56396484375	0.294921875	0.66943359375	-5.5	-5.0625	0.8125
19	03	17	11	20	41	0.407107517803	0.341250094758	0.014526475148	-0.54443359375	0.28076171875	0.6904296875	0.75	-4.3125	5.5625
19	03	17	11	20	41	0.408198978942	0.342098576102	0.0104979402479	-0.51904296875	0.3017578125	0.69580078125	15.5625	-2.9375	11.875
19	03	17	11	20	41	0.408622626782	0.343682451293	0.00573719595482	-0.521484375	0.271484375	0.6640625	24.0	-2.4375	12.0
19	03	17	11	20	41	0.408554986906	0.344592389613	0.000976528202943	-0.568359375	0.2685546875	0.7529296875	25.75	-5.8125	10.0
19	03	17	11	20	41	0.408502497475	0.345026836729	-0.00488274313432	-0.54833984375	0.28173828125	0.7802734375	30.3125	-8.5625	11.3125
19	03	17	11	20	41	0.408616407295	0.345142013929	-0.00927702672276	-0.580078125	0.275390625	0.796875	23.1875	-8.5625	10.625
19	03	17	11	20	41	0.409052823213	0.343745971402	-0.0119627504252	-0.6005859375	0.2509765625	0.8515625	13.4375	-11.5	9.625
19	03	17	11	20	41	0.409730051756	0.342224996305	-0.0140991571511	-0.697265625	0.259765625	0.92626953125	11.4375	-13.5625	11.25
19	03	17	11	20	41	0.40996134307	0.341420835661	-0.0171503852021	-0.732421875	0.3271484375	0.908203125	14.4375	-14.8125	9.8125
19	03	17	11	20	41	0.409544167568	0.342405779442	-0.0210570399122	-0.75732421875	0.400390625	0.89990234375	20.375	-9.3125	7.0
19	03	17	11	20	41	0.409723583911	0.344966139769	-0.0267330448016	-0.6953125	0.53271484375	0.8076171875	23.4375	-3.5625	9.8125
19	03	17	11	20	41	0.411313597364	0.34679980119	-0.0301511970764	-0.61279296875	0.52734375	0.7294921875	6.75	0.3125	11.5625
19	03	17	11	20	41	0.413075016608	0.346731555755	-0.0311881402906	-0.58935546875	0.482421875	0.7470703125	-6.3125	-2.6875	7.5
19	03	17	11	20	41	0.414315560294	0.346259895926	-0.0320441468996	-0.54296875	0.38525390625	0.7744140625	-1.375	-2.0	7.0
19	03	17	11	20	41	0.414555791121	0.345585231056	-0.0332035262618	-0.48779296875	0.34716796875	0.80322265625	4.375	-0.9375	1.3125
19	03	17	11	20	41	0.413575654675	0.345826396014	-0.0338135939625	-0.50244140625	0.3369140625	0.818359375	6.9375	4.0	-5.5625
19	03	17	11	20	41	0.412659950439	0.345643144407	-0.0316163073994	-0.5341796875	0.271484375	0.81884765625	-4.4375	6.4375	-8.125
19	03	17	11	20	41	0.412527189961	0.343498006377	-0.025878314624	-0.6005859375	0.1923828125	0.79150390625	-24.625	-0.1875	-7.9375
19	03	17	11	20	41	0.413499444946	0.339588326447	-0.0197137004749	-0.55126953125	0.130859375	0.76904296875	-31.5	-6.4375	-3.0625
19	03	17	11	20	41	0.414190133559	0.336552372008	-0.0159914257283	-0.4384765625	0.11181640625	0.6982421875	-17.625	-4.25	-0.6875
19	03	17	11	20	41	0.41411572839	0.336297371176	-0.0150143653919	-0.43310546875	0.171875	0.62060546875	-1.5	1.6875	-0.125
19	03	17	11	20	41	0.413700984992	0.33777238875	-0.0159303566071	-0.48681640625	0.26611328125	0.6044921875	7.375	3.0625	0.5625
19	03	17	11	20	41	0.413444958835	0.33910543125	-0.0180660920896	-0.58447265625	0.3623046875	0.62841796875	8.0625	-4.8125	2.25
19	03	17	11	20	41	0.414005778656	0.33838243209	-0.0203859546029	-0.60791015625	0.38916015625	0.71484375	3.0625	-13.9375	5.75
19	03	17	11	20	41	0.414732571154	0.337706448299	-0.0244750200195	-0.5888671875	0.4150390625	0.81103515625	12.6875	-13.125	8.875
19	03	17	11	20	41	0.414798642843	0.339846798609	-0.0305178518866	-0.51220703125	0.4501953125	0.82421875	29.4375	2.1875	9.0625
19	03	17	11	20	41	0.413276295966	0.343511888007	-0.0349127220932	-0.560546875	0.41943359375	0.8232421875	30.375	10.9375	-0.0625
19	03	17	11	20	41	0.412153027609	0.345749578173	-0.0361312886635	-0.595703125	0.38720703125	0.8369140625	13.1875	9.0625	-3.125
19	03	17	11	20	41	0.412714322353	0.344538945532	-0.0335078620189	-0.544921875	0.2626953125	0.80859375	-11.3125	2.1875	-0.125
19	03	17	11	20	41	0.414368117263	0.341858274384	-0.0292358709926	-0.4814453125	0.16552734375	0.74755859375	-22.0	-0.25	3.6875
19	03	17	11	20	41	0.415474389541	0.340094505439	-0.0264897730367	-0.40478515625	0.162109375	0.72607421875	-11.875	4.0625	2.625
19	03	17	11	20	41	0.414917980657	0.340332842034	-0.0247803324723	-0.400390625	0.1904296875	0.69921875	-0.9375	10.3125	-5.125
19	03	17	11	20	41	0.411928242203	0.342408866315	-0.0230713995485	-0.5390625	0.2919921875	0.67578125	2.0625	10.0	-19.0625
19	03	17	11	20	41	0.409666208368	0.342832999464	-0.0189818520266	-0.6123046875	0.35498046875	0.7255859375	-17.9375	5.125	-21.9375
19	03	17	11	20	41	0.408692470478	0.341309482514	-0.0111694626788	-0.51416015625	0.26953125	0.6416015625	-40.4375	6.3125	-22.6875
19	03	17	11	20	41	0.407044281173	0.341187214238	-0.00170898783518	-0.408203125	0.07373046875	0.56396484375	-35.9375	20.5	-23.8125
19	03	17	11	20	41	0.401657601892	0.344713893859	0.00543192927646	-0.46240234375	-0.0126953125	0.63037109375	-3.4375	32.9375	-33.6875
19	03	17	11	20	41	0.395759170714	0.349859896134	0.00659191709393	-0.5380859375	0.27490234375	0.646484375	15.3125	25.3125	-34.0625
19	03	17	11	20	41	0.391850817421	0.352787807584	0.0117799389038	-0.71435546875	0.3935546875	0.693359375	-19.1875	17.0	-34.3125
19	03	17	11	20	41	0.391112641624	0.350524329096	0.0189208674943	-0.71826171875	0.328125	0.85302734375	-41.25	1.4375	-22.5625
19	03	17	11	20	41	0.3895895779	0.350465824268	0.0181885781316	-0.630859375	0.35302734375	0.8544921875	2.4375	-0.1875	-12.375
19	03	17	11	20	41	0.389402207964	0.351316474772	0.014404219605	-0.69189453125	0.43896484375	0.884765625	12.8125	-2.25	0.5625
19	03	17	11	20	41	0.392816576139	0.350580859749	0.0119627173591	-0.6953125	0.45263671875	0.8017578125	-6.3125	-9.75	17.1875
19	03	17	11	20	41	0.397456705108	0.344661857148	0.0130613843509	-0.634765625	0.3115234375	0.88037109375	-29.25	-24.1875	17.5
19	03	17	11	20	41	0.401066371493	0.335880116014	0.0148317041961	-0.568359375	0.18896484375	0.88330078125	-30.8125	-37.125	11.375
19	03	17	11	20	41	0.405505982714	0.324575679722	0.0175776223693	-0.55126953125	0.20166015625	0.95458984375	-43.3125	-46.0	11.125
19	03	17	11	20	41	0.410718532219	0.311350160923	0.0226447578322	-0.45556640625	0.17724609375	0.93212890625	-60.625	-47.375	9.5
19	03	17	11	20	41	0.415342209041	0.299192874169	0.0286253484262	-0.537109375	0.162109375	0.9892578125	-61.5625	-43.1875	7.4375
19	03	17	11	20	41	0.422068354808	0.286078724365	0.0305183192196	-0.50927734375	0.2451171875	0.94873046875	-53.875	-58.4375	22.5
19	03	17	11	20	41	0.429327003641	0.272952851903	0.0252078550617	-0.33349609375	0.2841796875	0.70263671875	-24.625	-75.8125	34.6875
19	03	17	11	20	42	0.4298661937	0.269040207557	0.020873809207	-0.37939453125	-0.12841796875	0.775390625	29.0	-28.3125	15.6875
19	03	17	11	20	42	0.427420705359	0.274286541466	0.0148922821802	-0.75927734375	0.05712890625	0.115234375	44.625	-29.0	7.25
19	03	17	11	20	42	0.417901202786	0.281062514799	0.0169675090367	-1.04296875	-0.14013671875	0.916015625	43.0625	5.625	-35.625
19	03	17	11	20	42	0.427987822116	0.271124059589	0.00567639296303	-0.7421875	1.3046875	1.2041015625	-44.375	-79.9375	37.6875
19	03	17	11	20	42	0.437009096887	0.249388152218	0.00122069580136	-0.1240234375	0.34765625	1.333984375	-47.0	-88.75	36.75
19	03	17	11	20	42	0.429745068367	0.23480035194	-0.0109252048342	0.24462890625	-0.10107421875	1.375	41.1875	-100.375	-37.8125
19	03	17	11	20	42	0.423447797555	0.227653543511	-0.0288686665096	-0.18603515625	0.27294921875	1.2529296875	84.4375	-64.75	-21.875
19	03	17	11	20	42	0.408558104511	0.228448309708	-0.0525498249154	-0.48388671875	-0.22314453125	0.5654296875	145.5625	-67.625	-54.125
19	03	17	11	20	42	0.382263996012	0.243164579293	-0.0773317073203	-1.70458984375	-0.4814453125	0.30126953125	192.4375	0.625	-119.4375
19	03	17	11	20	42	0.367486662522	0.262446877403	-0.0911850313583	-1.8203125	-0.244140625	-0.0029296875	133.6875	62.0625	-63.1875
19	03	17	11	20	42	0.378474845344	0.277401737154	-0.0825186245615	-1.18896484375	0.9013671875	0.357421875	-68.125	53.0625	56.5
19	03	17	11	20	42	0.389464625459	0.262938976097	-0.0501708074169	-0.521484375	0.80126953125	0.94921875	-220.125	-1.75	2.9375
19	03	17	11	20	42	0.395750369746	0.245604486098	-0.0217284286906	-0.14697265625	-0.01953125	1.0673828125	-188.25	-21.875	-13.125
19	03	17	11	20	42	0.399899142311	0.234678297037	-0.00689691744217	0.11962890625	0.28564453125	1.39501953125	-105.75	-11.5	-4.125
19	03	17	11	20	42	0.401295748422	0.22588525702	-0.00915503608567	0.1201171875	0.32666015625	1.087890625	-15.875	-14.125	-4.125
19	03	17	11	20	42	0.394701431798	0.226982314034	-0.019957842616	-0.18115234375	-0.04150390625	0.91259765625	82.25	-9.625	-21.375
19	03	17	11	20	42	0.388368901235	0.236878784487	-0.0353395558408	-0.609375	0.25390625	0.85595703125	108.6875	12.0	-11.9375
19	03	17	11	20	42	0.384408363655	0.247564357413	-0.048585115508	-0.615234375	0.4482421875	0.71337890625	83.4375	8.875	-1.3125
19	03	17	11	20	42	0.377989196962	0.253050736413	-0.044128239852	-1.04638671875	-0.30078125	0.33154296875	22.0625	-20.0	-15.5625
19	03	17	11	20	42	0.378300241153	0.256838885894	-0.0451054982595	-0.5166015625	0.4072265625	1.146484375	10.5625	21.875	2.5625
19	03	17	11	20	42	0.385803996606	0.255920923552	-0.0393677547558	-0.23828125	0.66796875	0.77734375	-67.875	21.875	20.5
19	03	17	11	20	42	0.387865931952	0.249198520875	-0.0219719489383	-0.51806640625	0.00732421875	0.923828125	-91.9375	-1.6875	-8.875
19	03	17	11	20	42	0.388317803367	0.24677285115	-0.00659200294933	-0.85986328125	-0.046875	0.859375	-69.125	-6.0	-6.875
19	03	17	11	20	42	0.391726748422	0.243776352944	0.00909431061309	-0.7978515625	-0.14306640625	0.84130859375	-71.875	-2.5625	11.3125
19	03	17	11	20	42	0.397146302003	0.236139394874	0.0245965820973	-0.53662109375	-0.0703125	0.95654296875	-100.375	-4.375	8.6875
19	03	17	11	20	42	0.398922442736	0.22753715828	0.0418087321411	-0.4873046875	-0.1513671875	0.931640625	-92.75	-7.8125	-9.0
19	03	17	11	20	42	0.39928861491	0.221128500737	0.0550532452842	-0.42578125	-0.05078125	0.9150390625	-74.0	-1.9375	-14.5625
19	03	17	11	20	42	0.397773640269	0.218509994194	0.0635998362989	-0.3984375	-0.02197265625	0.83203125	-42.375	6.5	-18.9375
19	03	17	11	20	42	0.394402208098	0.219112337832	0.0682971326	-0.4384765625	0.044921875	0.77294921875	-18.125	10.3125	-25.1875
19	03	17	11	20	42	0.390308624118	0.221124025829	0.0703104824056	-0.44384765625	0.08544921875	0.705078125	-3.0625	9.1875	-26.125
19	03	17	11	20	42	0.386649764734	0.224177519474	0.071470698422	-0.45703125	0.05224609375	0.61962890625	4.375	10.0	-21.0
19	03	17	11	20	42	0.384582253053	0.225890956761	0.0731811016363	-0.3935546875	0.19189453125	0.59423828125	-12.375	7.875	-17.8125
19	03	17	11	20	42	0.382687471533	0.226377644644	0.0778192226802	-0.37109375	0.13134765625	0.52587890625	-26.8125	6.9375	-19.5625
19	03	17	11	20	42	0.381775514612	0.223572135895	0.0869752371418	-0.49853515625	0.109375	0.650390625	-58.0	-3.875	-21.3125
19	03	17	11	20	42	0.382938917061	0.218569375517	0.0975963226619	-0.431640625	0.04052734375	0.7001953125	-69.9375	-6.375	-10.75
19	03	17	11	20	42	0.385128036117	0.213010593668	0.109129782659	-0.46337890625	-0.0712890625	0.80224609375	-71.5625	-6.0	-3.1875
19	03	17	11	20	42	0.386841156088	0.208435239514	0.118408305903	-0.42724609375	-0.17333984375	0.8046875	-52.1875	-3.125	0.625
19	03	17	11	20	42	0.387574526474	0.206116405654	0.123169353453	-0.45703125	-0.24560546875	0.79736328125	-18.8125	-3.625	3.625
19	03	17	11	20	42	0.387260951996	0.203670574754	0.124387363305	-0.5078125	-0.30078125	0.8720703125	3.8125	-13.8125	1.5625
19	03	17	11	20	42	0.385316719892	0.205323213324	0.118225643344	-0.4423828125	-0.16650390625	0.7783203125	45.8125	-8.125	-0.875
19	03	17	11	20	42	0.382259320228	0.211301575384	0.109068721898	-0.5283203125	-0.1083984375	0.7314453125	69.375	2.125	-1.0625
19	03	17	11	20	42	0.380484609347	0.218073710169	0.101255047627	-0.7041015625	-0.00244140625	0.78369140625	56.25	0.375	3.375
19	03	17	11	20	42	0.380918757696	0.221556656055	0.0977778961431	-0.6982421875	0.03173828125	0.87890625	22.125	-3.6875	8.6875
19	03	17	11	20	42	0.382944101398	0.219976178106	0.0982080107029	-0.59521484375	-0.0537109375	1.0263671875	-5.6875	-10.5625	11.4375
19	03	17	11	20	42	0.385991529874	0.217898444284	0.0993055374928	-0.43505859375	-0.0478515625	0.99658203125	-12.0625	-3.3125	16.5
19	03	17	11	20	42	0.387132199005	0.218376006313	0.100765451767	-0.38427734375	-0.07080078125	0.93212890625	-4.875	12.6875	7.8125
19	03	17	11	20	42	0.3879379169	0.219359482904	0.103332110339	-0.4443359375	-0.064453125	0.92333984375	-9.1875	14.3125	5.0625
19	03	17	11	20	42	0.388729246406	0.218198627085	0.106993620498	-0.44091796875	-0.0654296875	0.974609375	-20.125	7.3125	1.25
19	03	17	11	20	42	0.389452386551	0.21520280755	0.109066198835	-0.3671875	-0.06591796875	0.96240234375	-15.6875	-2.5	0.375
19	03	17	11	20	42	0.389467500377	0.212464561795	0.109619750929	-0.35546875	-0.0693359375	0.86083984375	-5.9375	-7.375	-1.875
19	03	17	11	20	43	0.389720243139	0.211675771841	0.108096249115	-0.35546875	0.0244140625	0.79150390625	2.5	-4.375	0.4375
19	03	17	11	20	43	0.389588157761	0.211548261758	0.106994836371	-0.46142578125	0.05078125	0.779296875	0.9375	-7.0625	-2.5
19	03	17	11	20	43	0.388971052567	0.210018734016	0.105772294696	-0.44873046875	0.04052734375	0.81201171875	0.1875	-13.125	-6.5625
19	03	17	11	20	43	0.388966821599	0.20836854369	0.103451869231	-0.43408203125	0.064453125	0.904296875	3.125	-12.8125	-2.4375
19	03	17	11	20	43	0.388780122803	0.207390087486	0.101436823249	-0.48876953125	-0.00634765625	0.953125	7.625	-10.4375	-0.875
19	03	17	11	20	43	0.389025744458	0.208489479615	0.0970428198444	-0.35791015625	0.0283203125	0.95556640625	22.0625	2.9375	5.75
19	03	17	11	20	43	0.389153352824	0.21099484641	0.0937483610317	-0.40869140625	0.02734375	0.9521484375	20.0	10.375	5.75
19	03	17	11	20	43	0.388968033642	0.213007757321	0.0917337132533	-0.37939453125	0.029296875	0.91845703125	13.125	11.4375	2.125
19	03	17	11	20	43	0.389281633436	0.212829265568	0.0924070857671	-0.4384765625	0.03271484375	0.89990234375	-6.375	1.5625	-0.0625
19	03	17	11	20	43	0.389409658566	0.209963828443	0.0964368746919	-0.4072265625	-0.03466796875	0.8525390625	-25.5	-4.625	-5.5
19	03	17	11	20	43	0.389699965291	0.207758603266	0.100278315266	-0.38818359375	-0.03955078125	0.79736328125	-23.1875	-1.875	-3.375
19	03	17	11	20	43	0.38945373791	0.205926486712	0.104428043499	-0.50244140625	-0.10888671875	0.77587890625	-19.6875	-7.0	-5.0625
19	03	17	11	20	43	0.389893550553	0.204041036239	0.105713154283	-0.49169921875	-0.11279296875	0.80859375	-5.75	-12.6875	2.0
19	03	17	11	20	43	0.390976635271	0.2023240003	0.104793456566	-0.52685546875	-0.13232421875	0.880859375	6.125	-17.4375	8.5625
19	03	17	11	20	43	0.391969545395	0.201172784432	0.100830533945	-0.5009765625	-0.1396484375	0.93505859375	23.875	-18.4375	11.9375
19	03	17	11	20	43	0.39330978058	0.201720798389	0.0943601677182	-0.4501953125	-0.02783203125	0.95751953125	33.8125	-11.625	15.125
19	03	17	11	20	43	0.393730542838	0.202510919413	0.0903914019444	-0.41552734375	0.01513671875	0.97216796875	20.375	-2.0	6.5
19	03	17	11	20	43	0.394227138963	0.202942442646	0.0894777807276	-0.357421875	0.04150390625	0.970703125	2.375	7.0	3.0625
19	03	17	11	20	43	0.394585594754	0.20226707827	0.0925887621411	-0.4267578125	0.01171875	0.97705078125	-19.1875	6.625	-2.0625
19	03	17	11	20	43	0.394902391447	0.200564027557	0.096375715007	-0.35400390625	0.00390625	0.92236328125	-25.0	5.375	-3.8125
19	03	17	11	20	43	0.395380673944	0.200070677553	0.0995470637856	-0.3623046875	0.0009765625	0.85498046875	-19.25	8.5	-0.9375
19	03	17	11	20	43	0.3950095949	0.20067854574	0.102048214257	-0.42236328125	-0.04833984375	0.7978515625	-9.1875	6.875	-3.125
19	03	17	11	20	43	0.395322481801	0.20251350851	0.101317789068	-0.3720703125	0.01806640625	0.79443359375	4.6875	9.25	3.1875
19	03	17	11	20	43	0.394763874446	0.204400775436	0.101498503897	-0.4267578125	-0.0517578125	0.82568359375	6.125	9.375	-0.1875
19	03	17	11	20	43	0.394778453295	0.205384894146	0.100769824736	-0.38525390625	-0.03564453125	0.8564453125	7.0625	6.3125	2.125
19	03	17	11	20	43	0.394834382744	0.205382238048	0.101195765434	-0.43212890625	-0.06787109375	0.91064453125	0.6875	2.25	1.4375
19	03	17	11	20	43	0.394898571628	0.204529383853	0.10260038623	-0.32421875	-0.1259765625	0.8671875	-2.5	5.375	1.625
19	03	17	11	20	43	0.394705992689	0.206233423426	0.102231720698	-0.31982421875	-0.09326171875	0.8447265625	10.4375	14.875	3.5
19	03	17	11	20	43	0.393723244709	0.207389797787	0.103267668586	-0.4873046875	-0.1064453125	0.87060546875	3.6875	5.8125	-3.0
19	03	17	11	20	43	0.393669711913	0.206539272111	0.103452738247	-0.36962890625	-0.0146484375	0.88916015625	-3.0	0.75	-1.3125
19	03	17	11	20	43	0.39361198796	0.205564455799	0.105528783871	-0.46533203125	-0.07177734375	0.92724609375	-10.0	-0.125	-2.25
19	03	17	11	20	43	0.393314893451	0.204775212217	0.107484097977	-0.44873046875	-0.083984375	0.90576171875	-7.9375	0.8125	-2.9375
19	03	17	11	20	43	0.393365313833	0.205257959724	0.108091539301	-0.5009765625	-0.044921875	0.939453125	-1.5625	2.125	0.8125
19	03	17	11	20	43	0.393059961352	0.205257864911	0.108701830927	-0.52392578125	-0.10546875	0.9794921875	1.5625	-0.25	-0.25
19	03	17	11	20	43	0.393313973281	0.205507161396	0.107117632388	-0.4716796875	-0.05615234375	1.00048828125	9.875	-0.4375	4.0625
19	03	17	11	20	43	0.393193945288	0.20624066146	0.105592288939	-0.47509765625	-0.0732421875	0.982421875	12.5625	1.75	3.0
19	03	17	11	20	43	0.392746384732	0.207755818745	0.104671336413	-0.408203125	-0.0537109375	0.9013671875	10.5	9.0	0.6875
19	03	17	11	20	43	0.392211787677	0.210266045526	0.104492153829	-0.44482421875	-0.00537109375	0.89794921875	5.9375	14.0625	-0.75
19	03	17	11	20	43	0.391916563494	0.211553155127	0.106936274606	-0.47900390625	-0.033203125	0.87548828125	-9.1875	11.125	-2.375
19	03	17	11	20	43	0.392445694545	0.212274669615	0.109494179784	-0.34765625	0.01220703125	0.83837890625	-15.0	15.8125	0.4375
19	03	17	11	20	43	0.392634352367	0.213132155832	0.113890206982	-0.400390625	-0.046875	0.8203125	-20.3125	17.0625	-1.5625
19	03	17	11	20	43	0.392699910043	0.213317716133	0.117919836214	-0.427734375	-0.048828125	0.78515625	-19.75	10.25	-2.75
19	03	17	11	20	43	0.393801782726	0.212403937366	0.120850516088	-0.4306640625	0.0107421875	0.806640625	-22.25	2.0	1.0625
19	03	17	11	20	43	0.39417033855	0.210452048207	0.125184788536	-0.443359375	-0.07666015625	0.80517578125	-25.75	-0.75	-3.1875
19	03	17	11	20	43	0.394837909172	0.208679983222	0.127808097358	-0.46875	-0.060546875	0.8046875	-17.9375	-5.625	-0.5
19	03	17	11	20	43	0.395024101266	0.207155716888	0.130067422713	-0.50390625	-0.12158203125	0.826171875	-11.5625	-6.4375	-1.375
19	03	17	11	20	43	0.395024437531	0.205446887628	0.131105143976	-0.52880859375	-0.16259765625	0.869140625	-3.25	-10.875	-0.1875
19	03	17	11	20	43	0.395251283815	0.204766531377	0.128841176673	-0.4814453125	-0.13623046875	0.8916015625	14.4375	-9.875	4.625
19	03	17	11	20	43	0.394531694598	0.205505602678	0.125427387438	-0.49365234375	-0.15966796875	0.9013671875	26.25	-5.6875	2.5625
19	03	17	11	20	43	0.39391512774	0.207089251382	0.119993359333	-0.46875	-0.06494140625	0.892578125	33.125	-4.5	3.375
19	03	17	11	20	44	0.393558848373	0.208254154877	0.116212166145	-0.51904296875	-0.0283203125	0.93212890625	21.8125	-5.0	1.6875
19	03	17	11	20	44	0.393797526889	0.207457810585	0.115050889365	-0.5244140625	-0.02197265625	0.95458984375	2.375	-9.25	0.75
19	03	17	11	20	44	0.394287143158	0.207214373223	0.11425782229	-0.40625	0.0146484375	0.923828125	-0.5625	1.375	1.75
19	03	17	11	20	44	0.393986275847	0.208010105048	0.115662895853	-0.51171875	-0.06640625	0.9326171875	-4.0	5.875	-1.5625
19	03	17	11	20	44	0.394113702875	0.208440188217	0.115298247597	-0.4443359375	-0.03173828125	0.9306640625	2.125	4.0	1.4375
19	03	17	11	20	44	0.394830451936	0.208553973453	0.114317118021	-0.4462890625	-0.02099609375	0.96044921875	2.875	1.3125	4.8125
19	03	17	11	20	44	0.394897981711	0.208862580126	0.113403469864	-0.390625	-0.05859375	0.8818359375	6.375	3.5	2.4375
19	03	17	11	20	44	0.395014018893	0.210202144788	0.111570708674	-0.4140625	0.0166015625	0.83740234375	9.4375	4.1875	2.375
19	03	17	11	20	44	0.394657103922	0.210939522294	0.112244728443	-0.46826171875	-0.03125	0.8115234375	-1.4375	2.8125	-1.9375
19	03	17	11	20	44	0.394958497565	0.210205078908	0.113586426204	-0.45068359375	-0.0302734375	0.81884765625	-9.3125	-2.1875	-0.3125
19	03	17	11	20	44	0.395633919712	0.20831511385	0.115113479262	-0.47705078125	-0.0556640625	0.8603515625	-11.625	-8.3125	0.875
19	03	17	11	20	44	0.395686899733	0.206601905845	0.116270791916	-0.4765625	-0.13427734375	0.85400390625	-4.25	-8.5	0.1875
19	03	17	11	20	44	0.395872930655	0.20635929364	0.114135427124	-0.4228515625	-0.087890625	0.8330078125	13.4375	-6.0625	4.25
19	03	17	11	20	44	0.395562123751	0.20696669675	0.111814505587	-0.5224609375	-0.087890625	0.8818359375	17.125	-6.75	2.25
19	03	17	11	20	44	0.395630784803	0.206299298463	0.109741461135	-0.4970703125	-0.08056640625	0.91552734375	12.1875	-10.8125	3.125
19	03	17	11	20	44	0.396481927602	0.205382033002	0.106932933676	-0.43896484375	-0.02490234375	0.95703125	10.8125	-8.75	6.6875
19	03	17	11	20	44	0.39679213758	0.205018426416	0.106384970897	-0.443359375	-0.06201171875	0.9365234375	4.0	-1.8125	2.875
19	03	17	11	20	44	0.396970778878	0.205748538684	0.105407216347	-0.41015625	-0.0068359375	0.8994140625	5.0625	4.25	2.3125
19	03	17	11	20	44	0.397706413023	0.205689166957	0.105774280812	-0.49658203125	0.0205078125	0.9560546875	-6.125	-0.5625	2.4375
19	03	17	11	20	44	0.398562291887	0.203858813921	0.108093999837	-0.4287109375	-0.03857421875	0.9169921875	-16.6875	-2.0625	1.3125
19	03	17	11	20	44	0.399645014864	0.20372862853	0.108638993045	-0.35107421875	0.0	0.8671875	-6.5	5.75	5.3125
19	03	17	11	20	44	0.399530529893	0.205014214774	0.109983809176	-0.4423828125	-0.01904296875	0.83056640625	-4.625	8.75	-0.8125
19	03	17	11	20	44	0.399345965391	0.205684839274	0.111387190408	-0.4619140625	-0.0205078125	0.80810546875	-6.375	4.125	-1.875
19	03	17	11	20	44	0.399967675332	0.20544654283	0.112305893882	-0.43212890625	-0.00146484375	0.849609375	-8.0625	0.875	1.5
19	03	17	11	20	44	0.39978867483	0.204044815261	0.114443322948	-0.4833984375	-0.099609375	0.87744140625	-10.125	-4.75	-2.6875
19	03	17	11	20	44	0.399709001317	0.203363932263	0.113888684755	-0.4169921875	-0.0712890625	0.826171875	3.5625	-4.875	0.3125
19	03	17	11	20	44	0.399235038855	0.20453089974	0.112733086189	-0.46044921875	-0.0537109375	0.83056640625	10.3125	1.0	-0.1875
19	03	17	11	20	44	0.39849413733	0.204831723829	0.113035861899	-0.54931640625	-0.09912109375	0.86279296875	4.0625	-4.4375	-2.5625
19	03	17	11	20	44	0.398677211075	0.204282398265	0.112425508696	-0.51904296875	-0.072265625	0.8818359375	4.25	-8.875	1.75
19	03	17	11	20	44	0.398682689926	0.20391899373	0.112488089029	-0.505859375	-0.10693359375	0.89599609375	3.0	-4.9375	1.625
19	03	17	11	20	44	0.398063618082	0.205013139089	0.112363557327	-0.4990234375	-0.1240234375	0.86767578125	9.375	2.0625	0.3125
19	03	17	11	20	44	0.397698626058	0.207088925447	0.111753558059	-0.57568359375	-0.052734375	0.875	9.375	1.8125	1.0
19	03	17	11	20	44	0.397634088001	0.208124672307	0.112057741453	-0.52490234375	-0.04638671875	0.8701171875	1.5	1.25	0.75
19	03	17	11	20	44	0.39775746359	0.208674661349	0.11346188811	-0.5166015625	-0.05615234375	0.8642578125	-5.0625	2.1875	0.5
19	03	17	11	20	44	0.397517453813	0.209775447376	0.115049961683	-0.525390625	-0.0625	0.830078125	-3.6875	4.125	-1.0
19	03	17	11	20	44	0.397023931411	0.211725752201	0.116086013458	-0.5068359375	-0.0439453125	0.81591796875	-0.1875	8.3125	-1.4375
19	03	17	11	20	44	0.396362645774	0.213195984245	0.117797952933	-0.5595703125	-0.068359375	0.8427734375	-2.8125	5.4375	-3.0
19	03	17	11	20	44	0.396063571519	0.213687558004	0.119630852239	-0.60595703125	-0.099609375	0.88671875	-4.25	-0.875	-1.5625
19	03	17	11	20	44	0.396058635327	0.214295248672	0.119995573594	-0.50244140625	-0.111328125	0.8671875	3.4375	1.9375	2.4375
19	03	17	11	20	44	0.395458557946	0.216925407461	0.119327285196	-0.46142578125	-0.09130859375	0.81103515625	13.375	11.375	2.1875
19	03	17	11	20	44	0.394346024693	0.220396764458	0.119139984554	-0.56591796875	-0.076171875	0.7880859375	12.5	10.125	-1.25
19	03	17	11	20	44	0.393980451228	0.222228167765	0.119201211657	-0.5556640625	-0.0322265625	0.783203125	4.125	3.125	-0.4375
19	03	17	11	20	44	0.394517827518	0.222709708016	0.12078446483	-0.48046875	-0.03515625	0.78955078125	-8.0	3.8125	2.25
19	03	17	11	20	44	0.39483916606	0.222962973198	0.122559444342	-0.48388671875	-0.068359375	0.75927734375	-7.3125	2.125	1.625
19	03	17	11	20	44	0.395691372718	0.224060316096	0.122680805054	-0.47216796875	0.0244140625	0.73193359375	-3.0	2.875	4.125
19	03	17	11	20	44	0.396555848794	0.223455589108	0.1243318861	-0.556640625	-0.0244140625	0.78759765625	-12.375	-6.1875	2.0625
19	03	17	11	20	44	0.398553416166	0.220272477633	0.12518117252	-0.513671875	-0.02099609375	0.83642578125	-15.4375	-18.0625	6.4375
19	03	17	11	20	44	0.400155764813	0.216923976227	0.125247045362	-0.4873046875	-0.05859375	0.884765625	-9.375	-17.8125	5.625
19	03	17	11	20	44	0.400686308241	0.2147165929	0.124203600498	-0.501953125	-0.1083984375	0.9052734375	3.25	-15.0	3.25
19	03	17	11	20	44	0.400746202927	0.214410814938	0.120602268807	-0.498046875	-0.0712890625	0.88916015625	19.6875	-11.8125	4.375
19	03	17	11	20	45	0.400381534182	0.21477783823	0.117062771732	-0.537109375	-0.068359375	0.92138671875	21.625	-9.375	2.4375
19	03	17	11	20	45	0.399912648765	0.215215506646	0.112856912022	-0.4501953125	-0.07177734375	0.90966796875	25.875	-5.6875	3.0
19	03	17	11	20	45	0.398934444836	0.218022312875	0.107485244393	-0.42236328125	0.01025390625	0.8720703125	33.5	4.8125	1.6875
19	03	17	11	20	45	0.397396445585	0.221494655357	0.10424714008	-0.46533203125	0.01123046875	0.84765625	25.0625	10.5	-3.0625
19	03	17	11	20	45	0.396909196933	0.223448342299	0.10241636667	-0.43896484375	0.068359375	0.87451171875	9.75	8.3125	-1.0625
19	03	17	11	20	45	0.397768221891	0.222352252931	0.104004457588	-0.48046875	0.033203125	0.93896484375	-14.1875	-0.3125	0.9375
19	03	17	11	20	45	0.398627688258	0.219120104248	0.107423783698	-0.44189453125	-0.06005859375	0.94287109375	-23.375	-5.125	-0.5
19	03	17	11	20	45	0.399831271063	0.217523836066	0.109006052529	-0.40576171875	-0.0302734375	0.892578125	-12.625	-0.5	4.3125
19	03	17	11	20	45	0.400023978923	0.218139411149	0.110351442461	-0.46044921875	-0.0654296875	0.85107421875	-3.0	6.625	2.1875
19	03	17	11	20	45	0.400760682541	0.218446920928	0.110413657435	-0.55810546875	-0.03955078125	0.87109375	0.1875	-3.9375	5.125
19	03	17	11	20	45	0.402538685778	0.217291542285	0.109988584044	-0.486328125	-0.0126953125	0.86279296875	-3.1875	-8.75	9.6875
19	03	17	11	20	45	0.403378551888	0.216917441884	0.10937424194	-0.3974609375	-0.06591796875	0.826171875	3.8125	-0.6875	6.9375
19	03	17	11	20	45	0.403669328769	0.219839268556	0.106623876226	-0.3955078125	0.01953125	0.720703125	18.3125	8.125	6.75
19	03	17	11	20	45	0.402955033011	0.223206082357	0.105530029094	-0.49560546875	0.068359375	0.705078125	9.25	8.625	-1.9375
19	03	17	11	20	45	0.403078437772	0.223573034155	0.107300407874	-0.4951171875	0.0458984375	0.755859375	-11.5625	1.3125	-2.375
19	03	17	11	20	45	0.403814468938	0.221377732594	0.109498663433	-0.45703125	0.00390625	0.88037109375	-18.625	-5.0625	-1.0625
19	03	17	11	20	45	0.40441812649	0.217345751348	0.111999284955	-0.4912109375	-0.095703125	0.9287109375	-18.125	-14.875	-1.0
19	03	17	11	20	45	0.404971766299	0.21484560925	0.110413553163	-0.40478515625	-0.0791015625	0.9091796875	5.6875	-12.5625	3.625
19	03	17	11	20	45	0.404855076326	0.214482246074	0.106508685088	-0.5107421875	-0.029296875	0.9345703125	20.25	-12.6875	3.125
19	03	17	11	20	45	0.40374470539	0.214537058117	0.102660407327	-0.5361328125	-0.05517578125	0.94482421875	24.25	-12.0	-1.6875
19	03	17	11	20	45	0.403185152629	0.215141941117	0.0984465109281	-0.6064453125	-0.0068359375	0.97900390625	24.0625	-13.1875	1.5
19	03	17	11	20	45	0.402703325666	0.216549166333	0.0955184456907	-0.48388671875	-0.01611328125	0.94775390625	20.1875	0.8125	2.375
19	03	17	11	20	45	0.40270161552	0.219660975183	0.0946635655762	-0.46240234375	0.0009765625	0.90478515625	11.8125	15.5	4.375
19	03	17	11	20	45	0.403252281511	0.223140660088	0.0949690555518	-0.43212890625	0.07177734375	0.83984375	1.125	20.1875	4.75
19	03	17	11	20	45	0.403386215782	0.22412379851	0.0991222899727	-0.44482421875	0.05126953125	0.8486328125	-22.125	16.375	-3.6875
19	03	17	11	20	45	0.404350587232	0.222957387948	0.104429261095	-0.40625	0.041015625	0.8232421875	-33.8125	9.5	-2.4375
19	03	17	11	20	45	0.405394476339	0.221190843459	0.110534386728	-0.3681640625	0.02001953125	0.77978515625	-39.0625	8.8125	-2.8125
19	03	17	11	20	45	0.40606714413	0.219604627173	0.116394114513	-0.37548828125	-0.02685546875	0.71826171875	-34.0625	7.3125	-3.375
19	03	17	11	20	45	0.406803699903	0.218630285529	0.119691231134	-0.4375	-0.00390625	0.71142578125	-21.6875	0.125	-1.0
19	03	17	11	20	45	0.407413217961	0.21631047857	0.121827233416	-0.5234375	-0.041015625	0.77685546875	-16.5	-13.0625	-1.0625
19	03	17	11	20	45	0.40832999228	0.21289312602	0.120789993232	-0.48828125	-0.06787109375	0.79638671875	-1.5	-24.6875	3.125
19	03	17	11	20	45	0.408622060532	0.210872176122	0.116818913198	-0.4921875	-0.05615234375	0.826171875	16.875	-24.0625	3.4375
19	03	17	11	20	45	0.407346116075	0.210325848966	0.111937784969	-0.564453125	-0.123046875	0.873046875	31.875	-21.9375	-1.0
19	03	17	11	20	45	0.405928979662	0.211112365156	0.105037403999	-0.5751953125	-0.07861328125	0.9306640625	43.3125	-18.875	0.3125
19	03	17	11	20	45	0.404592577231	0.21233633673	0.0986915367902	-0.537109375	-0.0322265625	1.01318359375	38.9375	-10.125	0.3125
19	03	17	11	20	45	0.403250928805	0.213557590417	0.0954570081203	-0.52001953125	-0.05029296875	1.056640625	24.5	-0.1875	-2.0625
19	03	17	11	20	45	0.4024039082	0.215026386863	0.0938718657383	-0.4814453125	-0.00244140625	1.044921875	13.0	7.3125	-1.8125
19	03	17	11	20	45	0.401300003624	0.216488382183	0.0953354533325	-0.44921875	0.0078125	1.00830078125	-2.5625	16.0625	-6.75
19	03	17	11	20	45	0.400269370331	0.217407669582	0.0990602604524	-0.43896484375	-0.01220703125	0.9609375	-15.1875	17.875	-8.625
19	03	17	11	20	45	0.399827747904	0.219230845744	0.103023849559	-0.388671875	0.0341796875	0.89794921875	-18.3125	25.1875	-6.0
19	03	17	11	20	45	0.399285678734	0.220455498561	0.109007065457	-0.4638671875	-0.0361328125	0.87060546875	-26.1875	21.5625	-7.25
19	03	17	11	20	45	0.399407854243	0.220516591898	0.113767762883	-0.416015625	-0.01220703125	0.83740234375	-25.25	14.5	-3.875
19	03	17	11	20	45	0.399579770912	0.220388353866	0.117792723058	-0.4345703125	-0.05322265625	0.8525390625	-20.125	11.5	-2.4375
19	03	17	11	20	45	0.399338165247	0.220572845668	0.120478914595	-0.41064453125	-0.072265625	0.79638671875	-10.625	9.5	-2.4375
19	03	17	11	20	45	0.399421259828	0.221561609593	0.121156968331	-0.453125	-0.00341796875	0.78662109375	-3.4375	6.3125	0.0625
19	03	17	11	20	45	0.399179327633	0.221318691437	0.123232884173	-0.5146484375	-0.06640625	0.81494140625	-8.9375	0.3125	-2.9375
19	03	17	11	20	45	0.399341472089	0.220147438457	0.124691216182	-0.4970703125	-0.08447265625	0.8046875	-7.8125	-5.75	-0.6875
19	03	17	11	20	45	0.399340722353	0.219841858767	0.124813048634	-0.470703125	-0.06591796875	0.8095703125	0.375	-2.375	0.3125
19	03	17	11	20	45	0.398544270844	0.22051155445	0.125361398517	-0.53466796875	-0.12353515625	0.80029296875	4.8125	-0.375	-1.875
19	03	17	11	20	45	0.39812480556	0.221919637133	0.124082129343	-0.50146484375	-0.0771484375	0.78759765625	12.3125	1.0625	1.5
19	03	17	11	20	46	0.397940139634	0.222773237679	0.123166135243	-0.55517578125	-0.06005859375	0.869140625	8.125	-1.4375	1.375
19	03	17	11	20	46	0.397934957353	0.222587237648	0.123164531279	-0.51416015625	-0.076171875	0.8740234375	1.8125	-2.6875	0.9375
19	03	17	11	20	46	0.3981933527	0.22326659782	0.122619626851	-0.4814453125	-0.0185546875	0.849609375	2.6875	2.1875	2.1875
19	03	17	11	20	46	0.398198557261	0.223879875541	0.124025056461	-0.513671875	-0.0390625	0.8486328125	-5.9375	5.0	-0.875
19	03	17	11	20	46	0.398187595804	0.223934746935	0.126279910441	-0.50439453125	-0.0615234375	0.82861328125	-10.625	3.875	-1.5
19	03	17	11	20	46	0.398429377442	0.224238592635	0.12756087605	-0.4453125	-0.03369140625	0.83544921875	-6.875	6.6875	0.4375
19	03	17	11	20	46	0.397692827615	0.225151755843	0.129146412405	-0.45947265625	-0.1044921875	0.83447265625	-1.6875	10.25	-2.6875
19	03	17	11	20	46	0.397283484177	0.226809867446	0.128480831801	-0.427734375	-0.0341796875	0.794921875	6.9375	9.25	0.125
19	03	17	11	20	46	0.397344203425	0.227725226264	0.127931405588	-0.48583984375	-0.0087890625	0.8271484375	2.5625	3.4375	0.625
19	03	17	11	20	46	0.397825902063	0.22717213984	0.128356531457	-0.451171875	-0.0419921875	0.8173828125	-4.1875	-0.4375	1.9375
19	03	17	11	20	46	0.398682120347	0.226501737386	0.128112947123	-0.4716796875	-0.01611328125	0.80859375	-2.9375	-4.6875	3.6875
19	03	17	11	20	46	0.398985089288	0.225401856317	0.12872258732	-0.53369140625	-0.06640625	0.8388671875	-4.8125	-7.25	0.375
19	03	17	11	20	46	0.399228659248	0.223631525376	0.129393786517	-0.56982421875	-0.11767578125	0.8681640625	-3.5625	-12.3125	0.625
19	03	17	11	20	46	0.399160527934	0.223322380995	0.127743575683	-0.49853515625	-0.0927734375	0.88134765625	10.6875	-5.4375	2.375
19	03	17	11	20	46	0.398183029478	0.225213883932	0.126217428719	-0.55322265625	-0.1083984375	0.89794921875	17.25	4.0625	-0.0625
19	03	17	11	20	46	0.3970837551	0.228326210856	0.124081044285	-0.52490234375	-0.05859375	0.859375	20.75	9.9375	0.1875
19	03	17	11	20	46	0.396667780442	0.231201346717	0.122497651231	-0.53125	0.00390625	0.87548828125	12.375	10.6875	1.3125
19	03	17	11	20	46	0.396841637584	0.231989397794	0.123654438287	-0.50634765625	-0.02490234375	0.85888671875	-5.125	6.75	0.625
19	03	17	11	20	46	0.397880709564	0.23241750913	0.125119719989	-0.43896484375	0.02734375	0.80517578125	-12.0	8.25	3.25
19	03	17	11	20	46	0.398505949812	0.232914489889	0.128359321865	-0.49560546875	-0.009765625	0.7861328125	-18.1875	8.8125	0.0625
19	03	17	11	20	46	0.399035735833	0.23278101812	0.132198134569	-0.5478515625	-0.04296875	0.7802734375	-21.0	3.75	-1.0
19	03	17	11	20	46	0.400267217908	0.23193281916	0.134643105018	-0.5107421875	-0.0517578125	0.80908203125	-16.1875	-0.0625	3.875
19	03	17	11	20	46	0.400879882931	0.231079664552	0.136230800655	-0.5185546875	-0.11962890625	0.8427734375	-7.3125	-1.5625	3.4375
19	03	17	11	20	46	0.401182515029	0.23107819898	0.135375447792	-0.52880859375	-0.11181640625	0.8349609375	7.8125	-3.875	4.875
19	03	17	11	20	46	0.401188459573	0.23150887375	0.132936020835	-0.57373046875	-0.08642578125	0.87158203125	15.5625	-7.0625	4.0
19	03	17	11	20	46	0.40099213852	0.231501245268	0.130490288	-0.4990234375	-0.0947265625	0.84619140625	15.9375	-5.8125	3.0
19	03	17	11	20	46	0.400438740313	0.232170243583	0.12816969283	-0.54150390625	-0.06689453125	0.8525390625	15.6875	-4.25	0.8125
19	03	17	11	20	46	0.400096325362	0.231573677868	0.127872128396	-0.63037109375	-0.076171875	0.88671875	3.3125	-10.3125	-1.5625
19	03	17	11	20	46	0.400270720552	0.229310322829	0.128601770083	-0.57470703125	-0.1044921875	0.89990234375	-5.375	-13.1875	-0.9375
19	03	17	11	20	46	0.400516326953	0.227785268545	0.129273633113	-0.59912109375	-0.10302734375	0.921875	-3.75	-10.3125	0.8125
19	03	17	11	20	46	0.400443540543	0.228083754155	0.129147771954	-0.578125	-0.0791015625	0.892578125	3.3125	-2.0	0.875
19	03	17	11	20	46	0.400079622493	0.22979401658	0.129697818123	-0.58935546875	-0.04052734375	0.86279296875	1.25	5.5625	-0.875
19	03	17	11	20	46	0.39994737227	0.231741213568	0.130915170688	-0.57861328125	-0.048828125	0.837890625	-1.875	8.75	0.5
19	03	17	11	20	46	0.399960454108	0.233823973705	0.132689459367	-0.54345703125	-0.0302734375	0.8154296875	-5.5625	12.4375	0.375
19	03	17	11	20	46	0.399968585742	0.236026021832	0.135072559171	-0.5078125	-0.0146484375	0.775390625	-9.375	15.9375	-0.1875
19	03	17	11	20	46	0.400276820203	0.237492697074	0.138613702147	-0.5341796875	-0.0224609375	0.75341796875	-17.1875	12.625	-0.875
19	03	17	11	20	46	0.400996754276	0.237180119805	0.142942830824	-0.541015625	-0.05078125	0.76123046875	-24.1875	5.0625	-0.8125
19	03	17	11	20	46	0.402027421234	0.235345033593	0.146846512143	-0.5341796875	-0.08935546875	0.7783203125	-24.125	-2.875	0.5625
19	03	17	11	20	46	0.402592279735	0.233339946244	0.149720870556	-0.54931640625	-0.1318359375	0.77685546875	-16.0625	-7.4375	-0.1875
19	03	17	11	20	46	0.40244844078	0.232533903453	0.150567228299	-0.58740234375	-0.13818359375	0.77587890625	-1.75	-8.375	-0.9375
19	03	17	11	20	46	0.401788821456	0.233334143161	0.149167838317	-0.5595703125	-0.11669921875	0.76025390625	12.9375	-4.0625	-0.0625
19	03	17	11	20	46	0.400512288736	0.23583960434	0.146789401769	-0.568359375	-0.1064453125	0.7744140625	22.3125	2.625	-0.625
19	03	17	11	20	46	0.398862849373	0.238890465561	0.144164353515	-0.6484375	-0.09423828125	0.81396484375	24.5625	2.0625	-2.125
19	03	17	11	20	46	0.397513965014	0.241328146425	0.141293540459	-0.61376953125	-0.07861328125	0.8515625	23.5	1.9375	-1.1875
19	03	17	11	20	46	0.396539472496	0.244014900883	0.138608764359	-0.54150390625	-0.0439453125	0.8505859375	20.5625	7.875	0.5625
19	03	17	11	20	46	0.39580341237	0.246698133045	0.137936115953	-0.55322265625	-0.029296875	0.8291015625	9.3125	11.625	-0.75
19	03	17	11	20	46	0.395564429114	0.248166173242	0.139768946563	-0.58154296875	-0.04052734375	0.8115234375	-6.5	9.4375	-1.6875
19	03	17	11	20	46	0.395575718536	0.248112219696	0.143068891259	-0.5625	-0.091796875	0.83251953125	-14.75	6.75	-2.125
19	03	17	11	20	46	0.395501104365	0.24731025847	0.146298788142	-0.60400390625	-0.1396484375	0.84375	-13.375	0.8125	-2.125
19	03	17	11	20	46	0.395505683481	0.247007947693	0.147460143718	-0.55419921875	-0.14599609375	0.806640625	-1.5625	-0.0625	1.5625
19	03	17	11	20	47	0.395573976651	0.248172163102	0.146669382178	-0.568359375	-0.10595703125	0.7744140625	9.3125	0.8125	4.5
19	03	17	11	20	47	0.395883983508	0.249640069773	0.145084216589	-0.55908203125	-0.06396484375	0.736328125	11.25	-0.4375	5.9375
19	03	17	11	20	47	0.396421868229	0.250609421239	0.143554154592	-0.58447265625	-0.0390625	0.7421875	8.25	-4.125	5.75
19	03	17	11	20	47	0.397512105148	0.249932760722	0.142940787695	-0.5849609375	-0.04345703125	0.748046875	-0.1875	-11.0	5.6875
19	03	17	11	20	47	0.398624822129	0.248537785287	0.142457561606	-0.521484375	-0.02978515625	0.759765625	-3.3125	-10.1875	4.5625
19	03	17	11	20	47	0.399113718152	0.247317447003	0.142457779196	-0.5537109375	-0.04052734375	0.75634765625	-3.9375	-10.25	0.625
19	03	17	11	20	47	0.399399959871	0.245779895844	0.142328958805	-0.59228515625	-0.0576171875	0.78271484375	-2.4375	-13.8125	-0.4375
19	03	17	11	20	47	0.400068502565	0.244008218651	0.141290401745	-0.60693359375	-0.05712890625	0.81640625	0.75	-17.375	2.375
19	03	17	11	20	47	0.400511348766	0.242125650801	0.139281758288	-0.5625	-0.06787109375	0.84521484375	6.6875	-16.6875	2.875
19	03	17	11	20	47	0.400323034802	0.241145953728	0.136594443038	-0.5654296875	-0.06591796875	0.86328125	13.375	-13.5625	0.75
19	03	17	11	20	47	0.399478554698	0.24121302493	0.13330193483	-0.56787109375	-0.06591796875	0.861328125	19.6875	-9.625	-1.0625
19	03	17	11	20	47	0.398485817117	0.241996670986	0.130244866553	-0.5810546875	-0.04345703125	0.88671875	19.5625	-5.1875	-1.375
19	03	17	11	20	47	0.39813035979	0.24218630502	0.127929056281	-0.55322265625	-0.02587890625	0.876953125	12.4375	-5.3125	0.0
19	03	17	11	20	47	0.398137290668	0.242983988065	0.125856062143	-0.490234375	0.044921875	0.8935546875	7.8125	2.9375	0.875
19	03	17	11	20	47	0.398240084369	0.242117764704	0.126643398478	-0.5693359375	-0.025390625	0.92236328125	-6.375	-2.8125	-1.8125
19	03	17	11	20	47	0.398990586565	0.240602859453	0.126893288889	-0.4755859375	0.01904296875	0.9072265625	-9.0	-2.6875	0.5625
19	03	17	11	20	47	0.399604823394	0.239018250864	0.128725610591	-0.5107421875	-0.0390625	0.92626953125	-13.5625	-0.875	-0.1875
19	03	17	11	20	47	0.399654038897	0.23736324943	0.130552838913	-0.49853515625	-0.1015625	0.931640625	-9.6875	-0.0625	-1.5
19	03	17	11	20	47	0.399476494302	0.23651205736	0.130920867881	-0.54052734375	-0.10888671875	0.93310546875	0.6875	-2.0	-0.1875
19	03	17	11	20	47	0.398928217757	0.235536106537	0.130249818955	-0.52587890625	-0.140625	0.9384765625	7.8125	-4.375	-0.4375
19	03	17	11	20	47	0.398298337686	0.235768691155	0.127496970185	-0.498046875	-0.087890625	0.9091796875	18.875	-2.5625	1.125
19	03	17	11	20	47	0.397148776347	0.237849820413	0.124509528776	-0.4833984375	-0.0361328125	0.84521484375	22.0	5.8125	-0.75
19	03	17	11	20	47	0.395931771657	0.239988242047	0.122923784202	-0.568359375	-0.01318359375	0.8193359375	13.8125	3.3125	-3.75
19	03	17	11	20	47	0.396186151546	0.24090998924	0.122316599553	-0.52392578125	0.05419921875	0.8134765625	-0.125	1.875	0.5
19	03	17	11	20	47	0.397143921646	0.240044113083	0.125118340153	-0.51318359375	-0.0146484375	0.83544921875	-18.625	1.8125	1.3125
19	03	17	11	20	47	0.398551642726	0.239192019578	0.127744041076	-0.4345703125	-0.01416015625	0.810546875	-18.8125	5.375	4.1875
19	03	17	11	20	47	0.399165626676	0.239560410505	0.130491759913	-0.47314453125	-0.03369140625	0.81640625	-14.6875	10.5625	1.125
19	03	17	11	20	47	0.399479107566	0.239687464539	0.133241083547	-0.4755859375	-0.0517578125	0.80712890625	-13.5	8.9375	-0.0625
19	03	17	11	20	47	0.400442335248	0.239801544763	0.135128689261	-0.4326171875	-0.01220703125	0.82177734375	-12.9375	9.75	2.9375
19	03	17	11	20	47	0.401064307381	0.238892968968	0.138245420213	-0.47021484375	-0.0791015625	0.8291015625	-17.3125	5.8125	0.75
19	03	17	11	20	47	0.402084500528	0.237723000844	0.139460091637	-0.4306640625	-0.03076171875	0.82080078125	-11.6875	1.375	2.625
19	03	17	11	20	47	0.402465081159	0.236877006366	0.140746811822	-0.47802734375	-0.0498046875	0.81591796875	-9.1875	0.125	-0.1875
19	03	17	11	20	47	0.40259891654	0.236334597459	0.141117146004	-0.453125	-0.04345703125	0.7783203125	-3.875	0.0	-0.4375
19	03	17	11	20	47	0.402351481277	0.237065102136	0.140261484219	-0.54150390625	-0.00830078125	0.79443359375	3.75	-1.25	-1.4375
19	03	17	11	20	47	0.402103358766	0.236574471551	0.139954918283	-0.59033203125	-0.06005859375	0.82763671875	1.25	-8.0	-2.125
19	03	17	11	20	47	0.401789967963	0.236447567353	0.138121023469	-0.52783203125	-0.0537109375	0.8310546875	9.875	-6.125	0.0
19	03	17	11	20	47	0.400878377591	0.237548514857	0.136108218945	-0.541015625	-0.09326171875	0.84130859375	16.875	-0.0625	-0.375
19	03	17	11	20	47	0.399475304511	0.240478640149	0.133483955839	-0.48779296875	-0.0771484375	0.7880859375	24.3125	9.1875	-0.5
19	03	17	11	20	47	0.398011461574	0.244080330445	0.131287019452	-0.5087890625	-0.0361328125	0.7763671875	21.6875	13.0	-1.5
19	03	17	11	20	47	0.396416033617	0.246211282465	0.131040065308	-0.47900390625	-0.078125	0.7861328125	11.1875	12.3125	-4.6875
19	03	17	11	20	47	0.395382132094	0.248288748589	0.130186799592	-0.39208984375	-0.0126953125	0.7607421875	9.1875	14.5	-2.8125
19	03	17	11	20	47	0.394219121285	0.249507318132	0.13183361232	-0.43115234375	-0.02880859375	0.740234375	-3.9375	13.4375	-7.0
19	03	17	11	20	47	0.393493594442	0.249328576593	0.134216288844	-0.43310546875	-0.03271484375	0.72998046875	-11.3125	7.1875	-7.375
19	03	17	11	20	47	0.393680986707	0.247134002353	0.136842290263	-0.51904296875	-0.03076171875	0.81298828125	-19.0	-5.0625	-5.25
19	03	17	11	20	47	0.394541763495	0.241888769915	0.139713195644	-0.560546875	-0.1328125	0.8603515625	-22.4375	-22.25	-2.375
19	03	17	11	20	47	0.396166053449	0.236747515226	0.139277604987	-0.53564453125	-0.13330078125	0.88916015625	-6.5625	-28.125	5.6875
19	03	17	11	20	47	0.397097065346	0.233399812155	0.136658519722	-0.57861328125	-0.1591796875	0.90966796875	10.6875	-26.25	7.125
19	03	17	11	20	47	0.397215441433	0.231566592624	0.131957557526	-0.658203125	-0.138671875	0.93212890625	25.625	-27.9375	5.8125
19	03	17	11	20	47	0.397589573005	0.23114395348	0.126039678885	-0.68798828125	-0.08837890625	0.939453125	31.8125	-25.1875	8.625
19	03	17	11	20	47	0.397752844478	0.231681724357	0.120906611157	-0.658203125	-0.0966796875	0.91943359375	31.0625	-17.0625	8.875
19	03	17	11	20	48	0.398679233872	0.23437358513	0.115477818507	-0.595703125	0.0146484375	0.86669921875	29.8125	-4.5	13.4375
19	03	17	11	20	48	0.399850550672	0.237188099513	0.113833197528	-0.62060546875	0.0537109375	0.80029296875	8.5625	2.0	10.0
19	03	17	11	20	48	0.401917343121	0.238647959241	0.114929439195	-0.55029296875	0.08642578125	0.79443359375	-11.625	5.875	9.875
19	03	17	11	20	48	0.404242810816	0.238041214281	0.11902060714	-0.4931640625	0.0546875	0.79541015625	-30.25	5.875	6.3125
19	03	17	11	20	48	0.40576961094	0.235722358221	0.125429685692	-0.50537109375	-0.01171875	0.81884765625	-41.4375	2.4375	-1.0625
19	03	17	11	20	48	0.406868383351	0.233464081356	0.13025159467	-0.439453125	-0.05078125	0.8115234375	-30.125	2.875	-0.5
19	03	17	11	20	48	0.406983427829	0.231751061108	0.133423181349	-0.4521484375	-0.1005859375	0.81689453125	-16.875	1.125	-2.625
19	03	17	11	20	48	0.406975079467	0.229793217486	0.13415285313	-0.53515625	-0.10595703125	0.85546875	-4.25	-10.0625	-1.4375
19	03	17	11	20	48	0.407293483253	0.227359242487	0.1319599147	-0.5478515625	-0.1083984375	0.88330078125	9.1875	-20.75	2.75
19	03	17	11	20	48	0.407402754933	0.225582109698	0.127073039067	-0.4951171875	-0.09912109375	0.88134765625	24.5	-20.9375	5.1875
19	03	17	11	20	48	0.406792606937	0.226192558336	0.120176240519	-0.52001953125	-0.02490234375	0.87744140625	37.6875	-15.1875	3.4375
19	03	17	11	20	48	0.405632451894	0.227535025679	0.113828546913	-0.62548828125	0.033203125	0.90185546875	33.875	-15.8125	-1.0
19	03	17	11	20	48	0.40496351039	0.228268806158	0.11041130223	-0.6494140625	0.03369140625	0.95166015625	17.4375	-11.4375	-1.4375
19	03	17	11	20	48	0.40550654086	0.228997673285	0.108456520636	-0.55224609375	0.03857421875	0.978515625	7.875	-1.0625	4.4375
19	03	17	11	20	48	0.40672580476	0.229973414216	0.108273045865	-0.478515625	0.03515625	0.9228515625	-1.1875	7.3125	7.6875
19	03	17	11	20	48	0.40759012613	0.230894496429	0.10980153293	-0.48046875	0.01416015625	0.8955078125	-8.5	10.5625	4.0625
19	03	17	11	20	48	0.408074245791	0.231624553212	0.111875574714	-0.48876953125	-0.001953125	0.87158203125	-10.0625	9.875	1.5625
19	03	17	11	20	48	0.408021805535	0.232178750674	0.114563489751	-0.466796875	-0.017578125	0.84033203125	-12.125	10.875	-2.25
19	03	17	11	20	48	0.407516993816	0.233023795476	0.11767152375	-0.50244140625	-0.03076171875	0.81591796875	-12.25	10.75	-4.6875
19	03	17	11	20	48	0.40667614773	0.233214702158	0.120849282981	-0.5546875	-0.08642578125	0.83203125	-10.4375	5.0625	-5.9375
19	03	17	11	20	48	0.405836533222	0.232612878344	0.122379643422	-0.56591796875	-0.123046875	0.84814453125	-2.0	-3.375	-4.0625
19	03	17	11	20	48	0.405017648288	0.232171056975	0.121517501167	-0.51171875	-0.14208984375	0.85791015625	11.9375	-5.125	-0.625
19	03	17	11	20	48	0.403800093195	0.232355948427	0.118527778263	-0.54150390625	-0.1279296875	0.8779296875	24.125	-8.375	-0.25
19	03	17	11	20	48	0.402472504367	0.232914024365	0.114870071765	-0.54931640625	-0.10205078125	0.85595703125	27.3125	-9.1875	-0.6875
19	03	17	11	20	48	0.401298913837	0.233577329773	0.111753355321	-0.56005859375	-0.0810546875	0.88623046875	23.625	-7.125	-0.875
19	03	17	11	20	48	0.400444793584	0.234615117594	0.109739329197	-0.52783203125	-0.03076171875	0.8662109375	15.5	-0.875	-0.6875
19	03	17	11	20	48	0.40007793466	0.236750924263	0.109433979687	-0.48828125	0.0234375	0.82958984375	5.0625	10.4375	-0.0625
19	03	17	11	20	48	0.400329560763	0.239074689664	0.111633292672	-0.4833984375	0.05078125	0.80419921875	-10.375	17.5	-0.25
19	03	17	11	20	48	0.400562101844	0.240105334246	0.116817897749	-0.501953125	0.0068359375	0.79345703125	-25.8125	16.8125	-3.5
19	03	17	11	20	48	0.401308361945	0.240174662244	0.12200994913	-0.501953125	0.0	0.8017578125	-28.6875	12.375	-1.625
19	03	17	11	20	48	0.402759370446	0.240349507625	0.12621705987	-0.40380859375	0.02001953125	0.75927734375	-26.5	14.9375	3.0625
19	03	17	11	20	48	0.404169892534	0.23992628323	0.131590197569	-0.4140625	-0.00048828125	0.6806640625	-32.375	11.375	1.25
19	03	17	11	20	48	0.405879140391	0.239621278974	0.13610683956	-0.42822265625	0.041015625	0.69140625	-31.4375	9.9375	2.625
19	03	17	11	20	48	0.40703985801	0.237302589285	0.142027552795	-0.47802734375	-0.06640625	0.6796875	-35.75	-0.9375	-1.625
19	03	17	11	20	48	0.408686707153	0.234067132905	0.144529588193	-0.4423828125	-0.0185546875	0.72216796875	-24.6875	-10.8125	1.875
19	03	17	11	20	48	0.409430388265	0.231143840244	0.145876360756	-0.46630859375	-0.07861328125	0.76220703125	-13.1875	-12.1875	-0.375
19	03	17	11	20	48	0.409966401805	0.22875600327	0.143918531406	-0.47509765625	-0.04931640625	0.7890625	3.375	-17.625	1.125
19	03	17	11	20	48	0.410330845068	0.227168140018	0.140194846218	-0.52734375	-0.03955078125	0.8583984375	13.9375	-19.3125	2.625
19	03	17	11	20	48	0.410636927739	0.225703828594	0.135495537988	-0.486328125	-0.0732421875	0.8984375	21.625	-17.4375	4.875
19	03	17	11	20	48	0.410757018865	0.225458607383	0.128292905446	-0.50634765625	-0.00927734375	0.9755859375	33.9375	-16.125	6.25
19	03	17	11	20	48	0.410218292994	0.224976138666	0.122680965469	-0.5693359375	-0.0478515625	1.02734375	29.125	-15.625	1.6875
19	03	17	11	20	48	0.409860078139	0.225163637864	0.117190074464	-0.50732421875	-0.00634765625	1.02685546875	28.0625	-8.8125	2.875
19	03	17	11	20	48	0.408997503069	0.226196798444	0.114197034509	-0.51318359375	-0.0263671875	1.01708984375	19.1875	1.875	-0.8125
19	03	17	11	20	48	0.407759681124	0.226980729547	0.114070175725	-0.5126953125	-0.0517578125	1.02099609375	6.4375	7.6875	-5.25
19	03	17	11	20	48	0.406988246204	0.227542318814	0.114869807942	-0.50927734375	-0.03564453125	1.017578125	-0.5	9.25	-4.0625
19	03	17	11	20	48	0.405955762098	0.226934825362	0.117739988737	-0.4912109375	-0.10546875	0.99755859375	-9.5625	8.75	-7.1875
19	03	17	11	20	48	0.40515995466	0.227910104052	0.119082113821	-0.37939453125	-0.05322265625	0.88623046875	-1.8125	16.4375	-3.75
19	03	17	11	20	48	0.403619946796	0.230648688786	0.120603812924	-0.42138671875	-0.044921875	0.8154296875	1.6875	21.625	-6.5625
19	03	17	11	20	48	0.402467606743	0.233399473489	0.121704641772	-0.4521484375	0.01025390625	0.76611328125	0.25	17.5	-5.8125
19	03	17	11	20	48	0.402525376941	0.23455724391	0.123717807287	-0.4833984375	0.02490234375	0.74951171875	-11.0625	9.1875	-1.8125
19	03	17	11	20	49	0.403810644132	0.233155480741	0.127258946949	-0.47900390625	-0.0166015625	0.74609375	-24.0625	-0.875	1.375
19	03	17	11	20	49	0.405652248033	0.231086279123	0.130436180266	-0.46337890625	0.001953125	0.7314453125	-26.125	-5.3125	4.0
19	03	17	11	20	49	0.407037947467	0.228268394591	0.134946903861	-0.51708984375	-0.09326171875	0.70654296875	-28.25	-9.625	1.625
19	03	17	11	20	49	0.408013806702	0.225887673688	0.137571147391	-0.537109375	-0.103515625	0.71923828125	-17.0625	-13.3125	1.8125
19	03	17	11	20	49	0.408435425929	0.223809430197	0.138240621597	-0.55908203125	-0.1357421875	0.77783203125	-3.5625	-15.625	1.4375
19	03	17	11	20	49	0.408314323471	0.222833422271	0.136287875084	-0.51904296875	-0.10205078125	0.7958984375	11.3125	-13.5625	1.1875
19	03	17	11	20	49	0.40735087189	0.223634041745	0.132935301015	-0.47900390625	-0.05224609375	0.81787109375	20.5625	-4.4375	-1.4375
19	03	17	11	20	49	0.405462507086	0.226016508165	0.12976265092	-0.4765625	-0.04296875	0.83837890625	24.3125	5.5625	-5.375
19	03	17	11	20	49	0.40381365959	0.228396419919	0.126588502114	-0.4912109375	-0.0048828125	0.90869140625	22.25	7.4375	-5.0
19	03	17	11	20	49	0.403194119928	0.228635357743	0.125303894673	-0.49755859375	0.01806640625	0.97900390625	4.25	2.625	-4.0
19	03	17	11	20	49	0.403140039462	0.227967910279	0.125306056172	-0.3779296875	0.01904296875	0.97900390625	-5.0	7.8125	-3.25
19	03	17	11	20	49	0.402226395212	0.227846909458	0.127137720975	-0.42822265625	-0.01513671875	0.9658203125	-10.0	12.0	-7.9375
19	03	17	11	20	49	0.400562793445	0.228326285278	0.129635132299	-0.52587890625	-0.0458984375	0.908203125	-9.125	9.375	-11.875
19	03	17	11	20	49	0.39947832254	0.228517469761	0.131592859189	-0.57373046875	-0.08349609375	0.90673828125	-6.1875	3.6875	-7.4375
19	03	17	11	20	49	0.398795321682	0.228449784061	0.132321435171	-0.57421875	-0.123046875	0.8876953125	1.625	-1.5	-2.75
19	03	17	11	20	49	0.398552779239	0.22838966308	0.131101281747	-0.57470703125	-0.1083984375	0.88916015625	10.0	-6.4375	1.75
19	03	17	11	20	49	0.398311198583	0.228208025054	0.130064536344	-0.61083984375	-0.134765625	0.84765625	10.5625	-10.625	2.0
19	03	17	11	20	49	0.397956838156	0.228520000315	0.127932136929	-0.59912109375	-0.12109375	0.8154296875	17.5	-10.9375	2.75
19	03	17	11	20	49	0.39751442184	0.230098168331	0.124997625661	-0.61328125	-0.07177734375	0.79638671875	21.1875	-7.625	3.1875
19	03	17	11	20	49	0.397447240647	0.232108700273	0.122859535538	-0.60693359375	-0.0107421875	0.79638671875	13.9375	-3.0625	3.1875
19	03	17	11	20	49	0.398196804583	0.233217349833	0.122864832561	-0.6240234375	0.0322265625	0.82666015625	-2.625	-2.1875	3.5
19	03	17	11	20	49	0.399464272471	0.23400244777	0.124020076648	-0.5234375	0.06640625	0.83447265625	-12.0625	5.25	4.0
19	03	17	11	20	49	0.400628855532	0.235103953612	0.126707115186	-0.50830078125	0.08984375	0.83984375	-21.0	12.1875	1.25
19	03	17	11	20	49	0.401735703181	0.235352912711	0.130982196753	-0.52685546875	0.0732421875	0.83642578125	-30.125	10.5625	-1.625
19	03	17	11	20	49	0.403131173673	0.235103903253	0.134946710824	-0.48876953125	0.080078125	0.83740234375	-31.0	9.625	-0.3125
19	03	17	11	20	49	0.40471402129	0.234796386654	0.139034616272	-0.50048828125	0.07861328125	0.82275390625	-31.8125	8.75	0.6875
19	03	17	11	20	49	0.40643109327	0.234862118471	0.143309837363	-0.466796875	0.06201171875	0.787109375	-31.8125	11.9375	1.9375
19	03	17	11	20	49	0.407653572447	0.235473496407	0.147643957441	-0.49755859375	0.025390625	0.76806640625	-28.1875	13.25	0.9375
19	03	17	11	20	49	0.408252677827	0.235650110493	0.151546030654	-0.58935546875	-0.0390625	0.79638671875	-22.625	5.875	-1.375
19	03	17	11	20	49	0.40973409212	0.235964844352	0.152101498222	-0.50341796875	0.04248046875	0.806640625	-11.3125	3.375	4.9375
19	03	17	11	20	49	0.410699334103	0.235897299199	0.153562122842	-0.54296875	0.01171875	0.80810546875	-14.125	1.4375	1.0
19	03	17	11	20	49	0.411484055731	0.236746759446	0.154047130921	-0.5380859375	0.0361328125	0.80615234375	-8.4375	4.0	1.5
19	03	17	11	20	49	0.412171470392	0.238281862936	0.154114165962	-0.6083984375	0.03564453125	0.80224609375	-4.3125	2.6875	2.1875
19	03	17	11	20	49	0.41351269527	0.239135459789	0.154357727873	-0.5849609375	0.03369140625	0.810546875	-7.75	1.4375	4.9375
19	03	17	11	20	49	0.415352520334	0.239628801592	0.154360988086	-0.57861328125	0.013671875	0.83984375	-7.375	-0.0625	8.625
19	03	17	11	20	49	0.416741491567	0.239986459408	0.153989276981	-0.5380859375	-0.0107421875	0.8330078125	-3.0	0.8125	7.4375
19	03	17	11	20	49	0.417970212082	0.241211781272	0.152405318278	-0.533203125	0.00927734375	0.8203125	4.5	2.1875	7.9375
19	03	17	11	20	49	0.418702958618	0.242432675165	0.150513337602	-0.57177734375	-0.00048828125	0.8056640625	7.375	-1.625	6.0
19	03	17	11	20	49	0.420223530089	0.242795817384	0.147825909931	-0.5615234375	0.0458984375	0.82373046875	6.375	-7.0	8.625
19	03	17	11	20	49	0.421749298802	0.242124380369	0.145994836865	-0.576171875	0.02001953125	0.8369140625	0.9375	-10.8125	7.6875
19	03	17	11	20	49	0.423289011883	0.240789495584	0.144290587468	-0.5732421875	0.0009765625	0.85986328125	0.125	-13.4375	7.0625
19	03	17	11	20	49	0.424563402503	0.239686670735	0.142090799458	-0.5859375	-0.0283203125	0.86767578125	5.4375	-14.1875	7.375
19	03	17	11	20	49	0.425290894864	0.238585262346	0.139586721664	-0.61474609375	-0.07275390625	0.8955078125	10.875	-15.6875	6.25
19	03	17	11	20	49	0.426142453184	0.238156381026	0.135435420168	-0.591796875	-0.0556640625	0.91845703125	19.875	-15.0625	9.4375
19	03	17	11	20	49	0.426317163381	0.238884091263	0.130916294267	-0.5615234375	-0.044921875	0.9228515625	25.5	-7.6875	7.5
19	03	17	11	20	49	0.426162528917	0.240609093239	0.1270186512	-0.56689453125	-0.01220703125	0.89794921875	23.6875	-1.9375	5.3125
19	03	17	11	20	49	0.426084351201	0.242674599681	0.124389042794	-0.52978515625	0.0107421875	0.87353515625	16.875	4.625	4.1875
19	03	17	11	20	49	0.42662282937	0.244499435545	0.123348317333	-0.482421875	0.03857421875	0.8466796875	5.5625	9.5	5.375
19	03	17	11	20	49	0.427782471801	0.245414940664	0.124752086226	-0.49462890625	0.04248046875	0.8486328125	-10.0	10.6875	5.1875
19	03	17	11	20	49	0.429924362247	0.24523510612	0.127317180529	-0.44677734375	0.044921875	0.796875	-20.1875	8.9375	8.25
19	03	17	11	20	50	0.432506272554	0.244879362897	0.130496529879	-0.4296875	0.0576171875	0.78369140625	-25.75	10.3125	9.6875
19	03	17	11	20	50	0.434805750147	0.243464365151	0.134518791876	-0.48681640625	-0.005859375	0.7548828125	-28.0	2.6875	7.4375
19	03	17	11	20	50	0.437567238413	0.241824717337	0.136476544161	-0.49755859375	0.03271484375	0.7724609375	-21.75	-4.375	10.6875
19	03	17	11	20	50	0.439948322611	0.239749862821	0.137819549453	-0.52734375	-0.02587890625	0.75634765625	-15.625	-10.6875	10.375
19	03	17	11	20	50	0.442512593682	0.23846851083	0.136354915074	-0.5048828125	0.03662109375	0.75390625	-3.4375	-12.8125	13.3125
19	03	17	11	20	50	0.444515397412	0.236997568056	0.134825554426	-0.59619140625	-0.001953125	0.8037109375	-0.5	-18.3125	10.8125
19	03	17	11	20	50	0.446117733538	0.236151253394	0.131168013322	-0.54052734375	0.02490234375	0.81787109375	11.3125	-17.25	10.9375
19	03	17	11	20	50	0.44672340885	0.236148772898	0.126710998329	-0.5703125	-0.0009765625	0.87939453125	21.0	-14.625	7.8125
19	03	17	11	20	50	0.446707175198	0.23681156439	0.121091274162	-0.537109375	-0.02587890625	0.90625	31.3125	-11.625	7.3125
19	03	17	11	20	50	0.446649905727	0.239743212585	0.113524026326	-0.51611328125	0.0400390625	0.9287109375	43.8125	-3.4375	10.8125
19	03	17	11	20	50	0.446229641474	0.243103906715	0.106811909804	-0.54150390625	0.03466796875	0.92578125	41.875	-0.0625	9.0
19	03	17	11	20	50	0.446718619281	0.246461235778	0.100281280432	-0.47021484375	0.11376953125	0.9091796875	35.875	4.3125	12.125
19	03	17	11	20	50	0.447399147298	0.247931150931	0.0975977130326	-0.5322265625	0.0595703125	0.94189453125	16.0	2.4375	9.125
19	03	17	11	20	50	0.449280463842	0.248535531689	0.0955811990731	-0.41357421875	0.109375	0.9111328125	5.4375	5.8125	12.3125
19	03	17	11	20	50	0.450865265679	0.248717470914	0.0969235199537	-0.53955078125	0.06298828125	0.927734375	-9.125	5.8125	8.6875
19	03	17	11	20	50	0.453118940966	0.24761631782	0.098936665316	-0.48095703125	0.05419921875	0.88671875	-16.3125	3.1875	10.25
19	03	17	11	20	50	0.455735209282	0.246452226474	0.100948980334	-0.521484375	0.052734375	0.9091796875	-17.25	1.0	12.5625
19	03	17	11	20	50	0.457777020715	0.244880187614	0.102786200384	-0.44677734375	-0.0146484375	0.8671875	-12.375	1.1875	10.75
19	03	17	11	20	50	0.459533477419	0.244995003103	0.101928663473	-0.4677734375	0.04150390625	0.8642578125	2.0625	1.25	12.5
19	03	17	11	20	50	0.460449453747	0.245239382974	0.101257375897	-0.52587890625	-0.0009765625	0.8251953125	5.4375	-2.6875	8.625
19	03	17	11	20	50	0.462205077159	0.246208276939	0.0987518572353	-0.435546875	0.08740234375	0.79541015625	9.875	0.3125	13.8125
19	03	17	11	20	50	0.463065635724	0.247310129953	0.0981428156378	-0.5302734375	0.03125	0.796875	5.8125	1.0	8.625
19	03	17	11	20	50	0.464345410812	0.247858400803	0.0970437964237	-0.48291015625	0.09130859375	0.78759765625	2.6875	-1.0	9.0625
19	03	17	11	20	50	0.46594542912	0.247987461162	0.0968023906974	-0.4716796875	0.10546875	0.837890625	-3.875	2.0	9.0
19	03	17	11	20	50	0.467216015584	0.247310162658	0.097898692227	-0.45947265625	0.07080078125	0.8115234375	-9.9375	0.875	5.375
19	03	17	11	20	50	0.468823688751	0.247015944327	0.0985134010733	-0.45556640625	0.10009765625	0.83740234375	-8.6875	3.1875	7.375
19	03	17	11	20	50	0.470104982627	0.246466361964	0.100039219232	-0.44921875	0.03466796875	0.8212890625	-9.6875	3.9375	6.5
19	03	17	11	20	50	0.471617578872	0.246093189855	0.100707778587	-0.44482421875	0.07470703125	0.82861328125	-7.6875	3.25	7.5625
