19	02	10	17	42	36	-0.968291785061	0.23290270733	0.0634134991918	-0.0244140625	-0.5712890625	0.8271484375	10.625	44.5	59.9375
19	02	10	17	42	36	-0.967779209536	0.235230895153	0.0537722933654	-0.021484375	-0.61279296875	0.8486328125	2.875	38.6875	52.125
19	02	10	17	42	36	-0.966583397229	0.239555460891	0.0455307958788	-0.04345703125	-0.68798828125	0.83740234375	-5.0625	31.875	48.4375
19	02	10	17	42	36	-0.965250057764	0.24401326152	0.0397940586571	0.05517578125	-0.76708984375	0.87939453125	-4.6875	27.0	40.3125
19	02	10	17	42	36	-0.96404438702	0.24780121629	0.0344236172383	0.072265625	-0.79248046875	0.9052734375	-0.6875	27.5	37.375
19	02	10	17	42	36	-0.962888496095	0.251159112667	0.0287474950343	0.05810546875	-0.7509765625	0.9443359375	-2.8125	29.1875	38.0625
19	02	10	17	42	36	-0.96192243865	0.253526160152	0.0238634397254	0.1201171875	-0.69384765625	0.95654296875	-1.75	28.6875	38.5625
19	02	10	17	42	36	-0.960479810413	0.25743812927	0.0190423651807	0.0673828125	-0.69189453125	0.93994140625	-11.25	27.0	38.3125
19	02	10	17	42	36	-0.95912652912	0.260792087746	0.0148919422911	0.10986328125	-0.69775390625	0.92919921875	-7.9375	26.5	38.125
19	02	10	17	42	36	-0.95764980672	0.264450743262	0.00927683198148	0.04931640625	-0.66748046875	0.8505859375	-8.3125	31.5625	39.1875
19	02	10	17	42	37	-0.956100074234	0.268123053055	0.00244136629233	0.00537109375	-0.64599609375	0.8916015625	-11.0625	36.5	40.0
19	02	10	17	42	37	-0.954993348312	0.270562121369	-0.00415028744713	-0.01953125	-0.56884765625	0.77880859375	-4.8125	35.6875	31.4375
19	02	10	17	42	37	-0.953878323167	0.271595018113	-0.0153802122617	-0.21533203125	-0.54736328125	0.74169921875	6.1875	45.9375	43.5625
19	02	10	17	42	37	-0.952099944446	0.273362541742	-0.0307601520513	-0.42919921875	-0.61474609375	0.65625	11.25	55.9375	51.1875
19	02	10	17	42	37	-0.95141844348	0.273133021207	-0.0411378002891	-0.1357421875	-0.6435546875	0.76513671875	18.4375	52.875	32.5625
19	02	10	17	42	37	-0.953526200222	0.26403087385	-0.0521225996921	-0.14990234375	-0.66357421875	0.76806640625	75.1875	53.125	17.4375
19	02	10	17	42	37	-0.960473631544	0.237112541053	-0.0651220286495	-0.45654296875	-0.7197265625	0.8408203125	173.75	51.8125	-6.4375
19	02	10	17	42	37	-0.968096619144	0.198660603664	-0.079647338796	-0.54345703125	-0.31298828125	1.0322265625	231.4375	43.8125	24.75
19	02	10	17	42	37	-0.972108664915	0.165822403477	-0.0911809609105	-0.404296875	0.025390625	1.05126953125	186.0625	25.5625	68.5625
19	02	10	17	42	37	-0.974016018763	0.146782914037	-0.0915485950338	-0.115234375	-0.044921875	1.07421875	87.0625	-12.1875	50.0625
19	02	10	17	42	37	-0.976590767482	0.137507593222	-0.0832491598554	0.1611328125	-0.42236328125	1.02392578125	59.3125	-27.4375	-13.375
19	02	10	17	42	37	-0.980839890032	0.120293411938	-0.0807448929446	0.142578125	-0.5048828125	1.02880859375	108.375	-14.6875	-65.8125
19	02	10	17	42	37	-0.985138004464	0.0964935992229	-0.0822118141387	-0.10986328125	-0.30859375	0.96533203125	146.8125	-0.4375	-71.1875
19	02	10	17	42	37	-0.988112560845	0.077266862386	-0.082210476804	-0.2373046875	-0.017578125	0.994140625	113.625	-8.625	-58.25
19	02	10	17	42	37	-0.990418028412	0.0698199546773	-0.0760451604265	-0.05419921875	-0.0546875	1.04443359375	39.9375	-26.5	-72.4375
19	02	10	17	42	37	-0.992675131934	0.0681110019821	-0.0656697474307	0.0576171875	-0.20947265625	1.11962890625	17.125	-39.125	-96.25
19	02	10	17	42	37	-0.995025972357	0.0604840053122	-0.0563337405683	0.0087890625	-0.33056640625	1.11279296875	51.25	-47.125	-112.0625
19	02	10	17	42	37	-0.997331978753	0.0449199153272	-0.045835402732	-0.02685546875	-0.267578125	1.03662109375	95.8125	-57.4375	-117.6875
19	02	10	17	42	37	-0.999044505789	0.0249013475693	-0.0332628294737	0.04443359375	-0.09521484375	0.98583984375	118.6875	-68.9375	-119.4375
19	02	10	17	42	37	-0.99977272733	0.00415020728029	-0.0193472898213	0.13525390625	0.00439453125	0.916015625	121.8125	-75.1875	-121.375
19	02	10	17	42	37	-0.999425844898	-0.0156856453214	-0.0046995902325	0.181640625	0.048828125	0.87548828125	116.5625	-79.5	-122.75
19	02	10	17	42	37	-0.998042649504	-0.0345457521783	0.010375932633	0.2216796875	0.09765625	0.876953125	110.75	-81.3125	-121.25
19	02	10	17	42	37	-0.995721357448	-0.0520016302897	0.0254515021488	0.25732421875	0.15625	0.88232421875	102.375	-81.5	-118.75
19	02	10	17	42	37	-0.992659220147	-0.0666492786769	0.0401604627925	0.31640625	0.189453125	0.87109375	86.4375	-80.3125	-117.1875
19	02	10	17	42	37	-0.98897124548	-0.0779995835426	0.0541968937291	0.39892578125	0.16796875	0.83056640625	68.5	-77.125	-119.75
19	02	10	17	42	37	-0.984483144969	-0.0897204106078	0.0668325507589	0.435546875	0.1552734375	0.82861328125	70.125	-69.375	-124.125
19	02	10	17	42	37	-0.979043953687	-0.104489947554	0.077635054491	0.416015625	0.18017578125	0.79296875	86.5	-57.375	-126.625
19	02	10	17	42	37	-0.972704756614	-0.12151943091	0.0866688055714	0.3955078125	0.2431640625	0.765625	97.8125	-45.75	-127.1875
19	02	10	17	42	37	-0.965727338249	-0.138484189502	0.0939299989613	0.41357421875	0.26220703125	0.79931640625	96.375	-36.25	-127.5625
19	02	10	17	42	37	-0.958924536556	-0.152038763959	0.0982667241967	0.548828125	0.27685546875	0.94287109375	75.875	-21.125	-124.5625
19	02	10	17	42	37	-0.953562408389	-0.159232227566	0.0977120721857	0.85302734375	0.2587890625	1.11474609375	36.1875	5.0625	-114.125
19	02	10	17	42	37	-0.949939985787	-0.163022982655	0.0964344113045	0.93896484375	0.39794921875	1.060546875	16.75	53.1875	-95.6875
19	02	10	17	42	37	-0.945007188682	-0.176269505969	0.0817870976448	0.51611328125	0.36474609375	0.92138671875	47.9375	89.4375	-110.625
19	02	10	17	42	37	-0.937285180326	-0.193841097396	0.0687232606008	0.017578125	0.45361328125	0.72412109375	72.5625	74.875	-132.5625
19	02	10	17	42	37	-0.929243895771	-0.209041730247	0.0592640934512	-0.1845703125	0.65869140625	0.63525390625	62.75	50.4375	-121.5625
19	02	10	17	42	37	-0.922124518417	-0.222901690579	0.0507205106437	-0.11767578125	0.76318359375	0.65185546875	35.1875	46.0625	-96.8125
19	02	10	17	42	37	-0.916527606453	-0.233388930351	0.04308906507	-0.02294921875	0.74853515625	0.65625	20.5625	47.0625	-77.5625
19	02	10	17	42	37	-0.912385900184	-0.240654064113	0.0365589105766	0.021484375	0.64697265625	0.77685546875	14.875	43.75	-60.25
19	02	10	17	42	37	-0.908369468277	-0.248225399952	0.029845640663	-0.00732421875	0.56787109375	0.8583984375	24.75	46.5	-54.5625
19	02	10	17	42	37	-0.90383070349	-0.258167592394	0.0223379051575	-0.1142578125	0.5068359375	0.90771484375	42.8125	51.625	-49.6875
19	02	10	17	42	37	-0.899032294866	-0.269465552059	0.0145871499303	-0.1455078125	0.55029296875	0.9033203125	47.9375	56.4375	-45.8125
19	02	10	17	42	37	-0.894566193581	-0.278983562179	0.0064085044911	-0.1494140625	0.66064453125	0.875	31.25	56.3125	-47.625
19	02	10	17	42	37	-0.891228621775	-0.284360645723	-0.0029296653777	-0.17919921875	0.71484375	0.83984375	1.5	53.4375	-47.4375
19	02	10	17	42	37	-0.889696508562	-0.28503002641	-0.0138547785857	-0.2568359375	0.6943359375	0.833984375	-28.0	50.625	-38.5
19	02	10	17	42	37	-0.889402159811	-0.282286919375	-0.0255736690201	-0.34521484375	0.6064453125	0.8359375	-44.5	44.6875	-30.25
19	02	10	17	42	37	-0.88890333131	-0.280574609587	-0.0357660911939	-0.35498046875	0.509765625	0.8251953125	-31.375	40.25	-24.1875
19	02	10	17	42	37	-0.888168072849	-0.282404732894	-0.042662828678	-0.31103515625	0.49755859375	0.85009765625	-5.0	38.125	-10.0
19	02	10	17	42	37	-0.887121901222	-0.2876508786	-0.0476061288581	-0.3486328125	0.52197265625	0.83056640625	14.8125	36.3125	3.3125
19	02	10	17	42	37	-0.88597251562	-0.293208319443	-0.0509635609357	-0.38525390625	0.54150390625	0.83154296875	19.5	27.4375	6.3125
19	02	10	17	42	37	-0.884992528191	-0.297113353602	-0.0534047215288	-0.37109375	0.56396484375	0.8515625	13.0625	19.6875	1.3125
19	02	10	17	42	38	-0.884180329191	-0.299609390212	-0.0553566341255	-0.35009765625	0.568359375	0.8271484375	5.6875	13.5625	-2.4375
19	02	10	17	42	38	-0.883983687876	-0.300703371318	-0.0572477698997	-0.33349609375	0.541015625	0.7568359375	-2.9375	10.875	-0.125
19	02	10	17	42	38	-0.883515101099	-0.303090355904	-0.0596903681179	-0.40771484375	0.56689453125	0.77685546875	2.0625	13.625	3.375
19	02	10	17	42	38	-0.883626152216	-0.302476254343	-0.0625581438059	-0.50146484375	0.49560546875	0.84423828125	-8.0625	4.5625	2.4375
19	02	10	17	42	38	-0.883889157314	-0.301262041189	-0.062254311591	-0.42236328125	0.46728515625	0.85888671875	-3.0	-9.5	2.0625
19	02	10	17	42	38	-0.88374857406	-0.30149985883	-0.059628615805	-0.32275390625	0.48779296875	0.81884765625	7.375	-13.8125	1.5625
19	02	10	17	42	38	-0.882898751595	-0.304797204857	-0.0568214252547	-0.35888671875	0.5224609375	0.76806640625	21.0	-10.4375	6.375
19	02	10	17	42	38	-0.88198237927	-0.309496411686	-0.0546852267542	-0.390625	0.54833984375	0.69384765625	22.875	-5.25	12.625
19	02	10	17	42	38	-0.881150367036	-0.314203926682	-0.0524893894612	-0.35986328125	0.6005859375	0.68115234375	20.1875	-3.3125	12.5625
19	02	10	17	42	38	-0.880755434341	-0.317550448678	-0.0507787763406	-0.34423828125	0.6279296875	0.67822265625	10.4375	-3.0	11.125
19	02	10	17	42	38	-0.880947461443	-0.318652258293	-0.0501079302927	-0.3623046875	0.6279296875	0.6640625	-4.3125	-4.5	8.75
19	02	10	17	42	38	-0.881774793943	-0.317443808631	-0.0502929625673	-0.36376953125	0.5888671875	0.6689453125	-16.3125	-5.875	6.6875
19	02	10	17	42	38	-0.882917814023	-0.315362667293	-0.0509023542718	-0.35693359375	0.53857421875	0.68896484375	-19.3125	-4.3125	7.5
19	02	10	17	42	38	-0.883877756977	-0.314563317184	-0.0515727596081	-0.3505859375	0.5283203125	0.70703125	-11.25	0.125	11.125
19	02	10	17	42	38	-0.884479832319	-0.315353801656	-0.0521826012029	-0.3505859375	0.546875	0.705078125	-3.6875	4.5625	13.5625
19	02	10	17	42	38	-0.884989935328	-0.316521227904	-0.053038362331	-0.35205078125	0.546875	0.7080078125	-1.875	6.5625	13.6875
19	02	10	17	42	38	-0.885587974909	-0.317676458264	-0.0539531199049	-0.33154296875	0.54638671875	0.69921875	-2.4375	8.4375	14.4375
19	02	10	17	42	38	-0.885965649214	-0.319633652861	-0.0549913922528	-0.30908203125	0.56689453125	0.68017578125	0.0625	12.1875	14.3125
19	02	10	17	42	38	-0.886436756672	-0.321214310821	-0.0565161413301	-0.3154296875	0.57568359375	0.69091796875	-2.75	14.0	13.25
19	02	10	17	42	38	-0.887100532752	-0.322004981823	-0.0585297152328	-0.33251953125	0.57958984375	0.6962890625	-7.6875	13.625	12.375
19	02	10	17	42	38	-0.88791753624	-0.321891468664	-0.06054538053	-0.34423828125	0.56005859375	0.712890625	-11.125	11.25	10.875
19	02	10	17	42	38	-0.888635345215	-0.321581018814	-0.0623753655776	-0.34912109375	0.53759765625	0.72900390625	-9.6875	9.1875	9.0625
19	02	10	17	42	38	-0.889035666586	-0.322020608054	-0.0640257046718	-0.3515625	0.5224609375	0.7451171875	-3.0625	9.875	8.625
19	02	10	17	42	38	-0.889052867184	-0.323774659189	-0.0656093795718	-0.34521484375	0.53515625	0.76025390625	4.3125	13.3125	9.5
19	02	10	17	42	38	-0.888971464	-0.325803616535	-0.067443423805	-0.33935546875	0.54833984375	0.7646484375	5.125	16.125	9.0
19	02	10	17	42	38	-0.889188221205	-0.326892176043	-0.0692723337956	-0.322265625	0.54345703125	0.7783203125	0.9375	15.4375	7.8125
19	02	10	17	42	38	-0.889436507495	-0.327504034805	-0.0708595200166	-0.3076171875	0.541015625	0.77587890625	-1.125	13.4375	5.5
19	02	10	17	42	38	-0.88962736823	-0.327934127984	-0.0723249472663	-0.306640625	0.55078125	0.759765625	-2.8125	11.6875	3.5625
19	02	10	17	42	38	-0.889983157234	-0.327869258035	-0.0739719919468	-0.3115234375	0.55859375	0.736328125	-7.125	11.1875	2.6875
19	02	10	17	42	38	-0.890597313944	-0.326955167955	-0.0761695071136	-0.32275390625	0.55322265625	0.7265625	-13.0	11.3125	2.5625
19	02	10	17	42	38	-0.891499715339	-0.325302490775	-0.0787927796606	-0.314453125	0.537109375	0.732421875	-17.3125	13.375	2.75
19	02	10	17	42	38	-0.892512863945	-0.323362726744	-0.0820308615976	-0.31689453125	0.5234375	0.72119140625	-20.25	15.8125	2.9375
19	02	10	17	42	38	-0.893850265035	-0.320675267497	-0.0858145082034	-0.318359375	0.5263671875	0.7255859375	-26.3125	18.3125	3.6875
19	02	10	17	42	38	-0.895748534454	-0.316588147193	-0.090453756341	-0.3291015625	0.5361328125	0.74462890625	-36.1875	20.75	5.125
19	02	10	17	42	38	-0.898213470915	-0.310654791531	-0.0956987648566	-0.3740234375	0.54443359375	0.771484375	-48.5	19.4375	5.75
19	02	10	17	42	38	-0.901295775777	-0.302852958584	-0.100584779473	-0.4140625	0.51513671875	0.80517578125	-56.8125	12.625	8.375
19	02	10	17	42	38	-0.904820281066	-0.293936895353	-0.104184028316	-0.4140625	0.47900390625	0.8271484375	-59.6875	4.25	11.875
19	02	10	17	42	38	-0.908269277815	-0.285768211728	-0.106140734771	-0.3681640625	0.45751953125	0.841796875	-52.5625	0.0625	15.3125
19	02	10	17	42	38	-0.910909306088	-0.279955845027	-0.107234013454	-0.3369140625	0.4365234375	0.84228515625	-37.0625	1.0625	14.6875
19	02	10	17	42	38	-0.912619435079	-0.276721495262	-0.108149644818	-0.341796875	0.4423828125	0.8525390625	-21.75	4.125	12.875
19	02	10	17	42	38	-0.913759553425	-0.275250840632	-0.108757649225	-0.32958984375	0.462890625	0.8564453125	-12.1875	6.1875	11.9375
19	02	10	17	42	38	-0.914466959263	-0.274956527497	-0.109128140103	-0.32861328125	0.47412109375	0.8447265625	-5.9375	6.3125	10.0625
19	02	10	17	42	38	-0.914852715942	-0.275328614425	-0.109252542634	-0.3466796875	0.48583984375	0.82958984375	-2.25	4.0625	8.5625
19	02	10	17	42	38	-0.915317255049	-0.275321473463	-0.109066608973	-0.359375	0.48779296875	0.79736328125	-4.875	-0.25	8.0
19	02	10	17	42	38	-0.916111934283	-0.273918078685	-0.108517456306	-0.3427734375	0.4482421875	0.77001953125	-10.5	-5.0625	6.25
19	02	10	17	42	38	-0.916934499071	-0.271894515	-0.107903367569	-0.33447265625	0.384765625	0.75	-10.5	-7.4375	4.5625
19	02	10	17	42	38	-0.917531242917	-0.270321683954	-0.107359639213	-0.353515625	0.3603515625	0.73974609375	-6.6875	-8.0625	4.0625
19	02	10	17	42	38	-0.917870154242	-0.269703318811	-0.106807152731	-0.38818359375	0.43359375	0.71435546875	-6.625	-9.0625	4.25
19	02	10	17	42	38	-0.91880458633	-0.267511658156	-0.107663829566	-0.40478515625	0.51806640625	0.68505859375	-24.5625	-4.625	5.625
19	02	10	17	42	39	-0.921007928057	-0.261410003702	-0.111936947651	-0.45849609375	0.54541015625	0.66259765625	-56.6875	5.8125	10.75
19	02	10	17	42	39	-0.924669270943	-0.250850871523	-0.119444076781	-0.5556640625	0.5400390625	0.666015625	-89.9375	13.3125	21.3125
19	02	10	17	42	39	-0.930962548329	-0.233762968603	-0.127379455737	-0.603515625	0.53564453125	0.73388671875	-121.75	22.875	42.3125
19	02	10	17	42	39	-0.93911061265	-0.207633346607	-0.137201576476	-0.77197265625	0.345703125	0.853515625	-174.4375	20.0625	50.9375
19	02	10	17	42	39	-0.94719007876	-0.178219925896	-0.146237993989	-0.8515625	0.060546875	0.85205078125	-188.0	11.125	56.4375
19	02	10	17	42	39	-0.953801904913	-0.156240905847	-0.154348926128	-0.595703125	0.0458984375	0.76171875	-149.0625	24.0	81.25
19	02	10	17	42	39	-0.959569130454	-0.13744750552	-0.160823346823	-0.294921875	-0.19775390625	0.86962890625	-126.5625	26.4375	92.0625
19	02	10	17	42	39	-0.962037378208	-0.114685207058	-0.163330289562	-0.12060546875	-0.8212890625	1.31201171875	-60.9375	12.5625	-1.3125
19	02	10	17	42	39	-0.955781083679	-0.140010332437	-0.160456479501	0.17138671875	-0.13525390625	1.21240234375	168.8125	16.1875	-72.375
19	02	10	17	42	39	-0.949661591513	-0.172110905403	-0.155266008278	0.103515625	0.5712890625	0.986328125	189.6875	16.0	-20.8125
19	02	10	17	42	39	-0.947302269953	-0.193232329532	-0.153133264307	-0.13037109375	0.70263671875	0.8515625	108.0625	25.6875	48.375
19	02	10	17	42	39	-0.944359163579	-0.213065200029	-0.148248459144	-0.19677734375	0.58935546875	0.6728515625	94.8125	7.4375	22.3125
19	02	10	17	42	39	-0.94251338055	-0.215503124181	-0.152396290308	-0.7314453125	0.3095703125	0.3779296875	3.375	-10.6875	-11.3125
19	02	10	17	42	39	-0.944376983146	-0.205012750364	-0.155697387967	-1.77734375	-0.02392578125	0.3076171875	-62.9375	4.25	-9.5
19	02	10	17	42	39	-0.950441929139	-0.182727999476	-0.160085351578	-0.3193359375	-0.01513671875	0.68115234375	-138.9375	4.375	41.25
19	02	10	17	42	39	-0.952712635505	-0.163200101687	-0.164786938877	-0.23974609375	-0.24658203125	0.8642578125	-81.5625	7.125	-22.75
19	02	10	17	42	39	-0.949836915092	-0.166311481952	-0.172292592129	-0.72998046875	0.00390625	0.81787109375	29.8125	20.0	-21.1875
19	02	10	17	42	39	-0.946125683099	-0.175407380546	-0.1857829041	-1.0478515625	0.09912109375	0.697265625	41.8125	46.0625	19.875
19	02	10	17	42	39	-0.942292321017	-0.184381443215	-0.198297023835	-0.951171875	0.201171875	0.63427734375	36.375	46.625	15.0625
19	02	10	17	42	39	-0.939164053925	-0.192434641411	-0.206411023549	-0.701171875	0.40673828125	0.826171875	28.4375	43.0625	3.25
19	02	10	17	42	39	-0.939042975853	-0.194570974069	-0.206228143469	-0.02099609375	0.48388671875	1.0087890625	1.75	34.9375	-5.3125
19	02	10	17	42	39	-0.939199527191	-0.196348120547	-0.198362260422	0.13134765625	0.61376953125	1.541015625	20.0625	10.625	-41.125
19	02	10	17	42	39	-0.940367086441	-0.20410122263	-0.178100289364	0.3759765625	0.81982421875	1.3671875	51.3125	-44.375	-30.375
19	02	10	17	42	39	-0.942255266331	-0.212034900585	-0.158080136015	0.38818359375	0.6689453125	0.96240234375	46.0625	-50.25	8.375
19	02	10	17	42	39	-0.942861741942	-0.219602314054	-0.1497177533	-0.11474609375	0.45947265625	0.71142578125	35.875	-19.6875	32.9375
19	02	10	17	42	39	-0.941387135616	-0.222163457835	-0.159603692922	-1.02587890625	0.1962890625	0.626953125	5.5	17.625	27.5625
19	02	10	17	42	39	-0.942276220633	-0.212392075122	-0.167472371878	-0.86376953125	0.0693359375	0.7119140625	-50.3125	-0.875	0.375
19	02	10	17	42	39	-0.945290658259	-0.1975052021	-0.170040016394	-0.46240234375	-0.00341796875	0.89990234375	-68.5	-7.5	2.6875
19	02	10	17	42	39	-0.946275806258	-0.185788412942	-0.176511199155	-0.61083984375	-0.1728515625	0.88232421875	-43.0625	7.9375	-5.8125
19	02	10	17	42	39	-0.945140870459	-0.188100488361	-0.178701567138	-0.4853515625	0.046875	0.87255859375	27.3125	10.1875	-0.1875
19	02	10	17	42	39	-0.943590210886	-0.196469397726	-0.179501863533	-0.53173828125	0.29931640625	0.7158203125	41.4375	5.8125	16.3125
19	02	10	17	42	39	-0.940400397162	-0.204034172359	-0.188958958308	-1.0283203125	0.25634765625	0.541015625	29.3125	19.5625	14.625
19	02	10	17	42	39	-0.937118788186	-0.207333106908	-0.203671056153	-1.22802734375	0.3251953125	0.41650390625	-7.25	31.125	12.4375
19	02	10	17	42	39	-0.938359250643	-0.198413393421	-0.213488172927	-0.7412109375	0.36669921875	0.53759765625	-79.4375	24.8125	22.5
19	02	10	17	42	39	-0.940922259796	-0.180409041964	-0.221849413917	-0.6240234375	0.19873046875	0.58447265625	-114.5	23.75	-3.625
19	02	10	17	42	39	-0.942600036422	-0.162898180343	-0.226861197577	-0.1796875	0.07421875	0.95751953125	-88.4375	27.0	-35.0
19	02	10	17	42	39	-0.944074908617	-0.155026523655	-0.226192242781	0.015625	0.05859375	1.01513671875	-31.6875	21.5	-10.6875
19	02	10	17	42	39	-0.94250797405	-0.16148909534	-0.221971216837	-0.02587890625	-0.0048828125	1.19287109375	69.6875	17.8125	-29.375
19	02	10	17	42	39	-0.939321074898	-0.183591799434	-0.214841467423	-0.201171875	0.384765625	1.20703125	134.9375	-6.8125	8.4375
19	02	10	17	42	39	-0.937114789354	-0.202022271249	-0.205745340296	-0.314453125	0.51513671875	0.9912109375	112.0	-24.375	15.3125
19	02	10	17	42	39	-0.938033685872	-0.20928606343	-0.194698904153	-0.40234375	0.53564453125	1.0458984375	41.125	-42.0625	18.5
19	02	10	17	42	39	-0.939977665527	-0.208124397081	-0.186457487708	-0.5048828125	0.486328125	0.92822265625	-7.5625	-49.3125	7.5625
19	02	10	17	42	39	-0.944414289696	-0.195669653145	-0.176627565877	-0.46435546875	0.49853515625	0.9228515625	-71.625	-74.125	-4.8125
19	02	10	17	42	39	-0.950261484318	-0.174367184374	-0.165822765118	-0.4697265625	0.423828125	0.87109375	-110.9375	-91.3125	-10.4375
19	02	10	17	42	39	-0.956335924496	-0.152889239317	-0.152889239317	-0.52880859375	0.36279296875	0.8671875	-111.6875	-102.5625	5.1875
19	02	10	17	42	39	-0.961914297213	-0.136413607505	-0.137695346099	-0.4375	0.21484375	0.9404296875	-81.4375	-105.0625	27.0
19	02	10	17	42	39	-0.966380860465	-0.129082703037	-0.11974480537	-0.3125	0.19482421875	1.03466796875	-27.8125	-106.25	42.9375
19	02	10	17	42	39	-0.969746664287	-0.13109798193	-0.0990558774082	-0.22265625	0.248046875	1.11181640625	26.3125	-109.0	58.1875
19	02	10	17	42	39	-0.971690764854	-0.140922930472	-0.0763510550112	-0.16748046875	0.357421875	1.0654296875	71.3125	-111.0	62.6875
19	02	10	17	42	39	-0.972697458938	-0.154415797899	-0.0532826053619	-0.16064453125	0.37353515625	1.03369140625	92.125	-108.5	73.9375
19	02	10	17	42	40	-0.973540256217	-0.169122942134	-0.0301503909831	-0.08447265625	0.4267578125	0.9580078125	97.25	-102.4375	104.0625
19	02	10	17	42	40	-0.973971018615	-0.18419880525	-0.00744607496372	0.04052734375	0.5087890625	0.88232421875	97.125	-93.875	129.1875
19	02	10	17	42	40	-0.973958870096	-0.197684721158	0.0142206051342	0.14892578125	0.52978515625	0.833984375	88.0	-85.375	143.75
19	02	10	17	42	40	-0.973666381148	-0.208001944898	0.0343007902091	0.2119140625	0.53662109375	0.79541015625	69.75	-76.25	150.875
19	02	10	17	42	40	-0.973322118103	-0.214293218578	0.0532833892961	0.24462890625	0.48828125	0.7998046875	47.75	-70.875	156.5
19	02	10	17	42	40	-0.972519532342	-0.218441534219	0.0709828176298	0.2861328125	0.44775390625	0.8115234375	36.9375	-65.0625	154.1875
19	02	10	17	42	40	-0.97093824661	-0.222471078004	0.0868522205762	0.28564453125	0.41259765625	0.72412109375	36.0625	-57.9375	142.5
19	02	10	17	42	40	-0.969758395389	-0.222039212186	0.101132208519	0.30322265625	0.41259765625	0.73486328125	10.375	-50.125	138.9375
19	02	10	17	42	40	-0.968730880746	-0.219233954362	0.112912810571	0.26513671875	0.4306640625	0.7587890625	-3.5625	-38.0625	133.625
19	02	10	17	42	40	-0.967986375648	-0.21428752616	0.122310510517	0.26025390625	0.31103515625	0.70703125	-15.75	-27.625	118.6875
19	02	10	17	42	40	-0.968705013094	-0.204641375309	0.127557552757	0.2060546875	0.03564453125	0.77197265625	-28.25	-12.0	78.8125
19	02	10	17	42	40	-0.96862144903	-0.201780876528	0.129149526537	0.23193359375	-0.087890625	0.8955078125	17.75	-2.4375	36.75
19	02	10	17	42	40	-0.967417336201	-0.207874799514	0.127190570225	0.26220703125	0.10791015625	0.78369140625	52.3125	11.875	2.625
19	02	10	17	42	40	-0.966021767951	-0.219411691672	0.118586068684	0.2724609375	0.4619140625	0.474609375	53.5625	49.375	-22.1875
19	02	10	17	42	40	-0.969538476355	-0.215636099274	0.0989985148661	-0.26708984375	0.28271484375	0.728515625	-19.5	75.4375	-50.375
19	02	10	17	42	40	-0.974951219313	-0.201227880936	0.0799540564229	-0.61669921875	0.08544921875	0.9658203125	-65.625	50.875	-54.25
19	02	10	17	42	40	-0.977948502899	-0.190304152284	0.0752549774745	-0.04931640625	0.2548828125	1.08984375	-55.5625	4.25	-48.25
19	02	10	17	42	40	-0.981009613479	-0.176451116317	0.0760491494055	0.2822265625	0.43701171875	1.0986328125	-89.9375	-10.3125	-81.0
19	02	10	17	42	40	-0.984654987084	-0.157405641337	0.0745830530104	0.0615234375	0.34228515625	1.15576171875	-116.6875	-5.25	-81.8125
19	02	10	17	42	40	-0.98750499136	-0.138543654536	0.0750699097264	0.00927734375	0.27685546875	1.1865234375	-111.8125	-11.1875	-40.375
19	02	10	17	42	40	-0.989345330929	-0.123042577863	0.0778171065352	0.2490234375	0.11767578125	1.09326171875	-79.875	-11.875	-10.5
19	02	10	17	42	40	-0.989779993199	-0.118038756049	0.0800148961635	0.3447265625	-0.05126953125	1.0615234375	-7.5	-0.3125	1.5
19	02	10	17	42	40	-0.988954086372	-0.125114532033	0.0794629857107	0.333984375	0.05078125	0.90283203125	53.75	16.125	0.0
19	02	10	17	42	40	-0.98788761115	-0.134456716135	0.0774514629031	0.23779296875	0.25439453125	0.8466796875	52.125	17.625	-10.125
19	02	10	17	42	40	-0.98738865678	-0.139276852193	0.0752534438008	0.18017578125	0.39697265625	0.873046875	16.9375	13.0625	-17.1875
19	02	10	17	42	40	-0.987985873987	-0.135185860568	0.0746421252709	0.0966796875	0.44970703125	0.9365234375	-38.1875	-3.0	-21.625
19	02	10	17	42	40	-0.989232803346	-0.123776167645	0.0772685543581	0.15185546875	0.29638671875	0.9296875	-71.5	-18.375	-21.75
19	02	10	17	42	40	-0.990213577578	-0.112180261069	0.081419188393	0.22509765625	0.1279296875	0.921875	-62.4375	-22.375	-22.0625
19	02	10	17	42	40	-0.990795464	-0.103327382072	0.0852008419209	0.26220703125	0.037109375	0.94189453125	-40.5625	-17.5	-16.625
19	02	10	17	42	40	-0.990711805684	-0.0997303530364	0.089476559089	0.3046875	0.12451171875	0.94189453125	-16.8125	-17.375	-18.4375
19	02	10	17	42	40	-0.990307823059	-0.0998486132457	0.0927688827222	0.2841796875	0.1796875	0.9794921875	1.25	-14.0	-20.0625
19	02	10	17	42	40	-0.989945164549	-0.0996658726084	0.0957598004425	0.2236328125	0.22314453125	0.9736328125	-3.125	-16.6875	-17.8125
19	02	10	17	42	40	-0.989499700875	-0.0999143233613	0.0992429381707	0.26806640625	0.201171875	0.939453125	0.625	-15.5625	-13.1875
19	02	10	17	42	40	-0.989163020373	-0.0999721742069	0.101681100262	0.2568359375	0.20751953125	0.92138671875	-1.25	-10.9375	-13.375
19	02	10	17	42	40	-0.988952347514	-0.0993652053171	0.103637665005	0.21533203125	0.25146484375	0.92431640625	-7.6875	-10.6875	-8.75
19	02	10	17	42	40	-0.98879780906	-0.0972868161003	0.106380753113	0.2421875	0.24658203125	0.9072265625	-16.1875	-13.5	-7.6875
19	02	10	17	42	40	-0.988639848267	-0.0934441046856	0.110167608725	0.2509765625	0.2119140625	0.94482421875	-23.75	-21.25	-11.875
19	02	10	17	42	40	-0.988287608521	-0.0918528284336	0.113641173783	0.28173828125	0.19970703125	0.86279296875	-11.6875	-15.625	-12.25
19	02	10	17	42	40	-0.987959275016	-0.0913070411703	0.115964825016	0.23046875	0.22314453125	0.91552734375	-6.6875	-13.3125	-11.4375
19	02	10	17	42	40	-0.987608956376	-0.0915526503037	0.118530164593	0.2626953125	0.22216796875	0.85693359375	-1.4375	-11.125	-2.0625
19	02	10	17	42	40	-0.987078126399	-0.0930745157211	0.121271516549	0.26904296875	0.23828125	0.87890625	5.0625	-12.125	-5.875
19	02	10	17	42	40	-0.98664828603	-0.0943559476805	0.123224229215	0.22412109375	0.2080078125	0.89013671875	5.625	-11.3125	-7.3125
19	02	10	17	42	40	-0.98613394542	-0.0942372229825	0.126463423588	0.248046875	0.20556640625	0.9423828125	-1.8125	-19.5	-11.25
19	02	10	17	42	40	-0.985429423823	-0.0951495399318	0.130121115545	0.3037109375	0.189453125	0.861328125	4.1875	-16.75	-14.9375
19	02	10	17	42	40	-0.985041658494	-0.0958247353514	0.131591165234	0.23876953125	0.1630859375	0.89892578125	4.8125	-9.625	-12.9375
19	02	10	17	42	40	-0.984794464928	-0.095702368826	0.133360762682	0.25146484375	0.19970703125	0.87060546875	-1.3125	-9.125	-1.1875
19	02	10	17	42	40	-0.984472766442	-0.0962500652622	0.135250567293	0.27685546875	0.20703125	0.9462890625	3.875	-9.5	-0.875
19	02	10	17	42	40	-0.984281428617	-0.0954558290046	0.137141462771	0.2861328125	0.19873046875	0.90185546875	-4.25	-8.5	0.3125
19	02	10	17	42	40	-0.984135618277	-0.0950873360171	0.138663945719	0.310546875	0.181640625	0.87353515625	-0.6875	-3.8125	3.25
19	02	10	17	42	40	-0.984229544768	-0.0949684467109	0.138668580287	0.27392578125	0.1865234375	0.857421875	0.0	3.0625	7.6875
19	02	10	17	42	41	-0.984411703456	-0.0950904230879	0.138241211999	0.26318359375	0.220703125	0.87744140625	0.125	5.1875	14.0625
19	02	10	17	42	41	-0.984565375932	-0.0941110717634	0.138481207413	0.28662109375	0.2490234375	0.91748046875	-7.6875	1.4375	11.125
19	02	10	17	42	41	-0.984696123319	-0.0920978337727	0.139214816988	0.2958984375	0.20263671875	0.91650390625	-11.75	-1.8125	6.75
19	02	10	17	42	41	-0.984688374354	-0.0920417819703	0.139588564566	0.2822265625	0.212890625	0.92529296875	-0.875	-0.1875	4.625
19	02	10	17	42	41	-0.984797808862	-0.090270589359	0.140563331504	0.2880859375	0.2080078125	0.91845703125	-10.0	-3.25	11.9375
19	02	10	17	42	41	-0.984712073757	-0.0884373245862	0.142879073055	0.33544921875	0.1845703125	0.859375	-9.125	-7.0	11.3125
19	02	10	17	42	41	-0.984421481759	-0.0878893256701	0.145505661387	0.27001953125	0.15673828125	0.93310546875	0.25	-15.0625	6.4375
19	02	10	17	42	41	-0.983914036788	-0.0873993487178	0.14953100863	0.3154296875	0.17578125	0.8720703125	-1.0	-19.5	8.5
19	02	10	17	42	41	-0.983147404056	-0.0876458698923	0.15453993215	0.35400390625	0.20654296875	0.8642578125	1.3125	-23.1875	5.3125
19	02	10	17	42	41	-0.982525540205	-0.0894758629607	0.157650855407	0.28466796875	0.169921875	0.81005859375	11.8125	-15.4375	4.625
19	02	10	17	42	41	-0.981927066136	-0.0925286817667	0.160155185327	0.25634765625	0.212890625	0.77880859375	16.375	-12.9375	11.1875
19	02	10	17	42	41	-0.981468926583	-0.0952112135731	0.16222526005	0.24658203125	0.22314453125	0.78369140625	15.625	-10.6875	19.9375
19	02	10	17	42	41	-0.98092864184	-0.0974703236074	0.164790152624	0.25732421875	0.2294921875	0.81494140625	13.0	-14.25	17.875
19	02	10	17	42	41	-0.980299962019	-0.099543595944	0.167777648835	0.26171875	0.20068359375	0.88232421875	14.625	-18.4375	15.1875
19	02	10	17	42	41	-0.979432608164	-0.101135404233	0.172119396462	0.27880859375	0.2041015625	0.8896484375	11.5625	-26.875	10.3125
19	02	10	17	42	41	-0.978445377167	-0.103697754089	0.176389940741	0.2548828125	0.185546875	0.9013671875	18.3125	-28.6875	8.125
19	02	10	17	42	41	-0.977466165734	-0.10638298638	0.180417732495	0.24755859375	0.1875	0.869140625	19.1875	-27.75	9.375
19	02	10	17	42	41	-0.976496739439	-0.108397912947	0.184691489064	0.26025390625	0.11474609375	0.92333984375	21.4375	-29.8125	10.125
19	02	10	17	42	41	-0.975005933287	-0.112118053174	0.190301627542	0.36328125	0.09521484375	0.93603515625	31.75	-33.4375	-2.375
19	02	10	17	42	41	-0.972927503451	-0.121455726232	0.195000525282	0.3623046875	0.09130859375	0.9130859375	62.8125	-28.9375	-17.6875
19	02	10	17	42	41	-0.970657391155	-0.135735792123	0.196768072754	0.2978515625	0.18408203125	0.8662109375	85.875	-15.5	-21.4375
19	02	10	17	42	41	-0.968345842084	-0.151910550923	0.196342403503	0.24267578125	0.2294921875	0.7197265625	92.875	-1.3125	-17.625
19	02	10	17	42	41	-0.966236713324	-0.168760312826	0.192868928943	0.21484375	0.32373046875	0.67333984375	90.125	14.625	-22.1875
19	02	10	17	42	41	-0.964686546153	-0.184075327293	0.185906315297	0.1220703125	0.388671875	0.62890625	73.625	27.4375	-39.875
19	02	10	17	42	41	-0.964359961083	-0.193897322724	0.176198165157	0.08447265625	0.44677734375	0.66259765625	36.9375	38.3125	-48.4375
19	02	10	17	42	41	-0.965402061216	-0.197132928166	0.164663975292	0.09521484375	0.470703125	0.724609375	-2.4375	47.1875	-52.75
19	02	10	17	42	41	-0.967370038542	-0.195976352919	0.151056204757	0.091796875	0.42236328125	0.7421875	-26.8125	57.4375	-60.6875
19	02	10	17	42	41	-0.969633619794	-0.192681647743	0.135981853396	0.07568359375	0.3564453125	0.83154296875	-33.75	63.8125	-66.375
19	02	10	17	42	41	-0.971355736887	-0.191402550479	0.119382458143	0.07470703125	0.3232421875	0.8837890625	-19.3125	74.125	-69.5
19	02	10	17	42	41	-0.97207548343	-0.194207583869	0.101437147828	0.068359375	0.3369140625	0.90625	4.375	85.1875	-71.3125
19	02	10	17	42	41	-0.971564070336	-0.20128263735	0.083186244605	0.0556640625	0.3994140625	0.92919921875	27.0625	90.5625	-72.1875
19	02	10	17	42	41	-0.969814119974	-0.211967554353	0.065122194211	0.0361328125	0.52880859375	0.94091796875	42.25	92.4375	-72.5625
19	02	10	17	42	41	-0.967671288027	-0.221853366886	0.0487650179207	-0.005859375	0.63037109375	0.94921875	34.6875	82.625	-67.6875
19	02	10	17	42	41	-0.966137333416	-0.227100253799	0.0342389794091	-0.00244140625	0.67822265625	0.89013671875	4.625	72.1875	-64.5
19	02	10	17	42	41	-0.965635385015	-0.226684142592	0.0211181242156	0.00830078125	0.64794921875	0.8896484375	-25.1875	64.125	-61.3125
19	02	10	17	42	41	-0.96570934827	-0.222522674827	0.00854448010857	0.0068359375	0.60400390625	0.8564453125	-45.375	59.125	-62.3125
19	02	10	17	42	41	-0.965733901729	-0.21734048057	-0.00439441578238	-0.06201171875	0.56494140625	0.82373046875	-50.8125	57.3125	-63.375
19	02	10	17	42	41	-0.965921284193	-0.21087185877	-0.0182491131034	-0.1455078125	0.5439453125	0.84765625	-58.0	58.875	-56.5
19	02	10	17	42	41	-0.966081871968	-0.204763704621	-0.0323471724141	-0.23046875	0.4873046875	0.85546875	-53.75	59.5	-43.3125
19	02	10	17	42	41	-0.966029083568	-0.200310048791	-0.0460188229094	-0.21923828125	0.42578125	0.85888671875	-41.1875	63.9375	-30.4375
19	02	10	17	42	41	-0.965398585687	-0.199390389394	-0.059749982007	-0.2109375	0.38232421875	0.87255859375	-18.75	72.3125	-18.3125
19	02	10	17	42	41	-0.963875550084	-0.202686677758	-0.0742146944154	-0.2412109375	0.39892578125	0.861328125	3.3125	81.5625	-10.4375
19	02	10	17	42	41	-0.961693381801	-0.209098275436	-0.0889857809651	-0.31884765625	0.4697265625	0.9189453125	17.9375	86.5625	-0.5
19	02	10	17	42	41	-0.960445989664	-0.21173024518	-0.101928368247	-0.3671875	0.498046875	1.0244140625	-1.1875	74.5625	6.75
19	02	10	17	42	41	-0.960412600504	-0.210563260787	-0.10943186278	-0.26513671875	0.4267578125	1.20361328125	-10.1875	51.0625	8.0625
19	02	10	17	42	41	-0.961976457649	-0.203613569108	-0.112426916756	-0.09912109375	0.3583984375	1.2490234375	-35.125	31.1875	3.6875
19	02	10	17	42	41	-0.963634669441	-0.196706222029	-0.11254305722	0.017578125	0.2802734375	1.23828125	-28.8125	20.75	-0.375
19	02	10	17	42	41	-0.963950262196	-0.194999435717	-0.113948027068	-0.07568359375	0.25048828125	1.1279296875	0.1875	24.125	-0.5
19	02	10	17	42	41	-0.963397639548	-0.197989353354	-0.116572029872	-0.26953125	0.30908203125	0.98583984375	18.125	22.625	13.3125
19	02	10	17	42	41	-0.962940848293	-0.20208513334	-0.118834114954	-0.3564453125	0.42822265625	0.84814453125	12.375	15.875	26.375
19	02	10	17	42	42	-0.962985768653	-0.203119320451	-0.121334497914	-0.37060546875	0.494140625	0.76416015625	-10.4375	11.75	20.3125
19	02	10	17	42	42	-0.963569312429	-0.200184149023	-0.125481283656	-0.36328125	0.46142578125	0.677734375	-34.6875	15.6875	14.25
19	02	10	17	42	42	-0.964570960365	-0.194024998924	-0.131282721826	-0.37109375	0.44873046875	0.64453125	-54.875	22.0625	11.1875
19	02	10	17	42	42	-0.965928351096	-0.184872802696	-0.138975031938	-0.35498046875	0.42578125	0.64794921875	-73.25	32.5	13.1875
19	02	10	17	42	42	-0.967141812943	-0.174434639744	-0.148251133639	-0.31982421875	0.33203125	0.69921875	-75.5	45.1875	12.8125
19	02	10	17	42	42	-0.967744544622	-0.165034135258	-0.15886976852	-0.26708984375	0.2568359375	0.76416015625	-65.0625	59.6875	12.75
19	02	10	17	42	42	-0.967680104877	-0.157831646245	-0.169488972012	-0.2197265625	0.22607421875	0.88720703125	-48.375	68.3125	9.75
19	02	10	17	42	42	-0.967252572187	-0.151972419532	-0.178399751925	-0.22900390625	0.1826171875	1.0439453125	-31.9375	61.6875	-1.9375
19	02	10	17	42	42	-0.96630300514	-0.148741815533	-0.18542373229	-0.21923828125	0.1123046875	1.0859375	-7.375	52.875	-16.375
19	02	10	17	42	42	-0.965099434487	-0.148735048495	-0.190480954596	-0.203125	0.1259765625	1.09912109375	11.875	45.5	-16.8125
19	02	10	17	42	42	-0.963540428491	-0.151668965909	-0.195186057535	-0.26025390625	0.21142578125	1.04248046875	21.6875	42.0625	-11.875
19	02	10	17	42	42	-0.961981969077	-0.155386758867	-0.199390628916	-0.357421875	0.326171875	0.94580078125	17.875	32.125	-8.8125
19	02	10	17	42	42	-0.961041689373	-0.156002956817	-0.203121220769	-0.44140625	0.37548828125	0.83740234375	-5.4375	19.3125	-9.5
19	02	10	17	42	42	-0.960914243071	-0.152340062926	-0.206476936249	-0.4716796875	0.33251953125	0.7705078125	-28.8125	10.75	-8.875
19	02	10	17	42	42	-0.961210630048	-0.146662590895	-0.209160507281	-0.46923828125	0.27001953125	0.73876953125	-37.125	4.75	-9.5625
19	02	10	17	42	42	-0.961390515272	-0.141230170921	-0.211601124711	-0.46630859375	0.21435546875	0.7236328125	-32.0	3.0625	-12.8125
19	02	10	17	42	42	-0.961128375267	-0.137931808998	-0.214160494591	-0.4716796875	0.18310546875	0.73486328125	-17.75	5.125	-13.5
19	02	10	17	42	42	-0.960372892763	-0.137265880891	-0.217098594189	-0.48583984375	0.20166015625	0.74365234375	-3.6875	9.0625	-11.9375
19	02	10	17	42	42	-0.959389455376	-0.138119367486	-0.220270789774	-0.5107421875	0.2021484375	0.78125	4.5	11.875	-7.4375
19	02	10	17	42	42	-0.958619422058	-0.138785291001	-0.222947523319	-0.5	0.20849609375	0.81982421875	3.0625	11.8125	-3.6875
19	02	10	17	42	42	-0.958158153063	-0.138361967832	-0.225150992206	-0.4248046875	0.20654296875	0.85888671875	-2.75	14.5	-3.0625
19	02	10	17	42	42	-0.957685706551	-0.13738770795	-0.227535040088	-0.41259765625	0.17919921875	0.908203125	-3.125	17.625	-5.5625
19	02	10	17	42	42	-0.95706048474	-0.135920776705	-0.230522125557	-0.5078125	0.2001953125	0.94580078125	-6.5	16.375	-9.5625
19	02	10	17	42	42	-0.956643116762	-0.133480827891	-0.233454122854	-0.52783203125	0.2197265625	0.923828125	-14.25	13.875	-7.875
19	02	10	17	42	42	-0.956582997013	-0.130063061739	-0.235590529476	-0.5322265625	0.19873046875	0.939453125	-19.0625	9.4375	-6.25
19	02	10	17	42	42	-0.95633693089	-0.127072148198	-0.238092435216	-0.53271484375	0.1875	0.890625	-16.875	10.25	-6.625
19	02	10	17	42	42	-0.955796639195	-0.125608523848	-0.240963290648	-0.56787109375	0.18896484375	0.8642578125	-9.4375	10.9375	-4.3125
19	02	10	17	42	42	-0.955081569257	-0.125236588927	-0.244003841389	-0.556640625	0.20263671875	0.80908203125	-5.375	12.3125	-2.6875
19	02	10	17	42	42	-0.954462985084	-0.12486931821	-0.246931212843	-0.55615234375	0.17724609375	0.7880859375	-4.8125	11.75	2.125
19	02	10	17	42	42	-0.953811234638	-0.124932915108	-0.249621701412	-0.55322265625	0.1611328125	0.77294921875	-1.4375	10.6875	1.5625
19	02	10	17	42	42	-0.953097068128	-0.125301503642	-0.252311941575	-0.546875	0.162109375	0.76123046875	0.5625	10.9375	1.5
19	02	10	17	42	42	-0.952369485431	-0.125485238532	-0.255059733377	-0.568359375	0.169921875	0.74853515625	-1.1875	9.875	0.125
19	02	10	17	42	42	-0.951856286045	-0.124871631267	-0.257555368499	-0.57373046875	0.18359375	0.7568359375	-6.6875	8.1875	1.375
19	02	10	17	42	42	-0.951433463168	-0.123956723568	-0.259936822095	-0.54150390625	0.17822265625	0.7353515625	-8.6875	8.9375	1.6875
19	02	10	17	42	42	-0.950885131809	-0.122980329948	-0.262622511051	-0.5908203125	0.17138671875	0.765625	-7.75	8.9375	0.375
19	02	10	17	42	42	-0.950314278065	-0.122741298214	-0.265013782618	-0.59814453125	0.1845703125	0.759765625	-4.9375	7.6875	1.0625
19	02	10	17	42	42	-0.949773214101	-0.123161698114	-0.267074128319	-0.5908203125	0.18212890625	0.759765625	-0.8125	6.8125	3.5625
19	02	10	17	42	42	-0.949247240099	-0.124324350806	-0.268667546513	-0.6064453125	0.1884765625	0.76318359375	3.125	4.25	4.625
19	02	10	17	42	42	-0.948818801662	-0.125911050291	-0.269704765505	-0.6005859375	0.1865234375	0.7646484375	6.3125	2.0625	5.5625
19	02	10	17	42	42	-0.948372058037	-0.127678379909	-0.270492628948	-0.58984375	0.1943359375	0.75830078125	7.8125	0.75	2.8125
19	02	10	17	42	42	-0.947982379462	-0.129270324472	-0.271052649188	-0.5869140625	0.1923828125	0.7705078125	7.875	0.1875	1.6875
19	02	10	17	42	42	-0.947653115646	-0.130548722507	-0.271472986307	-0.5751953125	0.18408203125	0.78173828125	7.25	-0.0625	0.375
19	02	10	17	42	42	-0.947331496304	-0.131400896247	-0.272017554376	-0.57080078125	0.1689453125	0.7880859375	5.8125	1.0	-0.375
19	02	10	17	42	42	-0.946963686298	-0.132010985658	-0.272810497406	-0.58349609375	0.1591796875	0.80322265625	5.75	2.0	-0.875
19	02	10	17	42	42	-0.946651383486	-0.132437205993	-0.273662871739	-0.58251953125	0.16650390625	0.796875	3.3125	2.5	0.9375
19	02	10	17	42	42	-0.946455078474	-0.132382863559	-0.27453117579	-0.564453125	0.17529296875	0.78662109375	-1.0	3.3125	2.375
19	02	10	17	42	42	-0.946194383261	-0.1320143489	-0.275747031128	-0.5830078125	0.181640625	0.7861328125	-3.0	4.1875	1.0625
19	02	10	17	42	42	-0.945954747575	-0.131404643624	-0.277091073875	-0.5869140625	0.1904296875	0.76611328125	-5.5625	3.75	1.5
19	02	10	17	42	42	-0.945838524444	-0.130856152572	-0.278069324215	-0.57568359375	0.20361328125	0.76708984375	-6.25	3.0625	2.5
19	02	10	17	42	42	-0.945704518273	-0.130549336211	-0.278920274186	-0.58251953125	0.203125	0.77392578125	-4.3125	2.0	2.25
19	02	10	17	42	43	-0.945751674408	-0.130730516687	-0.279038245702	-0.56689453125	0.2138671875	0.7744140625	-2.5625	-0.6875	4.6875
19	02	10	17	42	43	-0.945897974253	-0.131222134769	-0.278557127016	-0.552734375	0.20458984375	0.78857421875	0.625	-2.75	4.5625
19	02	10	17	42	43	-0.946170642461	-0.131950005096	-0.277510024593	-0.53515625	0.205078125	0.81884765625	2.8125	-4.0	4.4375
19	02	10	17	42	43	-0.94671110973	-0.132803208791	-0.275676513838	-0.5234375	0.21923828125	0.85791015625	2.4375	-6.3125	7.9375
19	02	10	17	42	43	-0.947543419942	-0.132381428525	-0.273429598798	-0.509765625	0.232421875	0.8828125	-4.5625	-8.1875	5.875
19	02	10	17	42	43	-0.948567687669	-0.130182401094	-0.271411691356	-0.490234375	0.216796875	0.90234375	-13.8125	-6.6875	4.5625
19	02	10	17	42	43	-0.949519102775	-0.127257654386	-0.27007919456	-0.46630859375	0.19287109375	0.890625	-17.8125	-2.25	4.9375
19	02	10	17	42	43	-0.950289662426	-0.124202919912	-0.269523387879	-0.4765625	0.17431640625	0.86962890625	-18.9375	0.5	7.0
19	02	10	17	42	43	-0.950874125217	-0.121270018409	-0.269516055004	-0.4833984375	0.162109375	0.83642578125	-18.4375	2.5	7.0625
19	02	10	17	42	43	-0.951198060581	-0.118709029697	-0.270131704596	-0.51220703125	0.17578125	0.80517578125	-17.875	3.4375	5.625
19	02	10	17	42	43	-0.951489572578	-0.115960884407	-0.271043309289	-0.5322265625	0.22119140625	0.794921875	-22.0625	3.5625	5.625
19	02	10	17	42	43	-0.951592214252	-0.112479762113	-0.273173855246	-0.56298828125	0.224609375	0.7724609375	-29.375	8.4375	9.0
19	02	10	17	42	43	-0.951666883495	-0.107659871897	-0.276168322184	-0.591796875	0.15087890625	0.76416015625	-34.8125	11.625	15.375
19	02	10	17	42	43	-0.951723841922	-0.103509275099	-0.278791490952	-0.521484375	0.08984375	0.78369140625	-27.5625	14.75	17.8125
19	02	10	17	42	43	-0.951003756942	-0.103876806207	-0.281846704502	-0.42041015625	0.13525390625	0.70263671875	-3.4375	22.9375	13.25
19	02	10	17	42	43	-0.948800442889	-0.106378436379	-0.288619406562	-0.396484375	0.10693359375	0.6435546875	11.0	45.0	6.9375
19	02	10	17	42	43	-0.945871058933	-0.108148375044	-0.297530094999	-0.54833984375	0.14404296875	0.720703125	7.1875	52.875	-1.3125
19	02	10	17	42	43	-0.943363518821	-0.106560956451	-0.306072850287	-0.64453125	0.19384765625	0.73583984375	-14.1875	44.875	-7.125
19	02	10	17	42	43	-0.942651919037	-0.0977135462854	-0.311450485131	-0.6103515625	0.16357421875	0.82568359375	-52.75	28.6875	-13.3125
19	02	10	17	42	43	-0.943261258154	-0.0863613510377	-0.313464239526	-0.60791015625	0.1337890625	0.9736328125	-65.625	14.0	-9.5
19	02	10	17	42	43	-0.943841798507	-0.0768378159923	-0.314247747851	-0.65380859375	0.04931640625	0.91650390625	-48.8125	2.25	-13.1875
19	02	10	17	42	43	-0.944204445783	-0.0725700766668	-0.313961710996	-0.65966796875	-0.04052734375	0.99560546875	-12.5	1.375	-6.5625
19	02	10	17	42	43	-0.943546107152	-0.0779371525765	-0.314495025236	-0.63427734375	0.1025390625	0.8291015625	30.8125	5.8125	5.3125
19	02	10	17	42	43	-0.942183517724	-0.0866684326727	-0.315912540503	-0.67529296875	0.2119140625	0.75390625	44.6875	7.75	1.75
19	02	10	17	42	43	-0.941005473532	-0.092220733591	-0.317737352134	-0.7587890625	0.2802734375	0.7001953125	21.6875	2.4375	0.6875
19	02	10	17	42	43	-0.94112551131	-0.0919764037318	-0.317736667437	-0.7109375	0.24658203125	0.6494140625	-11.375	-10.8125	2.375
19	02	10	17	42	43	-0.942015873615	-0.086298052821	-0.316995817788	-0.63623046875	0.08544921875	0.6455078125	-32.6875	-14.6875	-0.4375
19	02	10	17	42	43	-0.942356431076	-0.0827003215096	-0.317007726879	-0.62841796875	0.02294921875	0.6591796875	-16.3125	-8.25	-0.5625
19	02	10	17	42	43	-0.941881440076	-0.0844104478762	-0.317927710041	-0.654296875	0.06787109375	0.66650390625	11.0	-1.125	3.5625
19	02	10	17	42	43	-0.941138754345	-0.0880715449105	-0.319144912223	-0.6796875	0.11962890625	0.6884765625	18.8125	1.875	7.0
19	02	10	17	42	43	-0.940453549902	-0.0924035741808	-0.320055708721	-0.6728515625	0.13720703125	0.7265625	21.3125	2.75	10.125
19	02	10	17	42	43	-0.939916805293	-0.0961888886456	-0.320670317858	-0.65478515625	0.14599609375	0.74462890625	18.25	2.4375	10.5
19	02	10	17	42	43	-0.939810574558	-0.0981436163066	-0.320553652265	-0.64306640625	0.12548828125	0.78759765625	10.3125	-0.125	8.5625
19	02	10	17	42	43	-0.939974104517	-0.0991181056903	-0.319936644106	-0.62109375	0.14013671875	0.7998046875	4.1875	-2.125	6.9375
19	02	10	17	42	43	-0.940196886282	-0.0993599825295	-0.319380091264	-0.6015625	0.14501953125	0.80859375	0.125	-0.9375	5.0625
19	02	10	17	42	43	-0.940261882913	-0.0990552405535	-0.319442470152	-0.60302734375	0.16259765625	0.7900390625	-3.9375	1.75	3.0625
19	02	10	17	42	43	-0.940032956286	-0.0983244443954	-0.320485200199	-0.64501953125	0.16259765625	0.7705078125	-6.375	4.4375	1.1875
19	02	10	17	42	43	-0.939500407354	-0.0980820603272	-0.322199873346	-0.68115234375	0.16943359375	0.73095703125	-4.5625	5.125	0.4375
19	02	10	17	42	43	-0.938961692796	-0.098259884654	-0.323830402469	-0.68017578125	0.1630859375	0.71728515625	-2.125	4.4375	2.0625
19	02	10	17	42	43	-0.938469982542	-0.0988698297274	-0.325171884437	-0.67138671875	0.162109375	0.697265625	0.625	2.875	3.0
19	02	10	17	42	43	-0.937994782407	-0.100213900235	-0.326152912823	-0.68115234375	0.150390625	0.69140625	5.8125	0.25	2.8125
19	02	10	17	42	43	-0.937572235637	-0.102167421069	-0.326703826153	-0.6884765625	0.1201171875	0.70166015625	12.1875	-1.75	3.5
19	02	10	17	42	43	-0.937167245732	-0.105282546329	-0.326772610462	-0.662109375	0.109375	0.7177734375	19.6875	-2.5	5.125
19	02	10	17	42	43	-0.936686048041	-0.109067437796	-0.326653008999	-0.642578125	0.11962890625	0.7314453125	25.125	-1.3125	1.6875
19	02	10	17	42	43	-0.936037698605	-0.113152108836	-0.326822838627	-0.64306640625	0.1474609375	0.74853515625	26.3125	1.125	0.5625
19	02	10	17	42	43	-0.935496751631	-0.116509870751	-0.327069878131	-0.65185546875	0.177734375	0.75439453125	18.875	1.875	2.5625
19	02	10	17	42	43	-0.935410423543	-0.117368801023	-0.327082373729	-0.63232421875	0.1708984375	0.7822265625	4.8125	1.375	3.6875
19	02	10	17	42	43	-0.935682971882	-0.116205099371	-0.326887874072	-0.6005859375	0.1494140625	0.79248046875	-6.1875	1.6875	3.625
19	02	10	17	42	43	-0.935942548198	-0.114314991378	-0.326954302621	-0.5791015625	0.12353515625	0.79150390625	-8.75	3.25	1.75
19	02	10	17	42	43	-0.936116148762	-0.112849051966	-0.32707305002	-0.58251953125	0.1298828125	0.78662109375	-6.625	3.9375	1.3125
19	02	10	17	42	43	-0.936038429044	-0.112297757674	-0.327555470345	-0.60009765625	0.13916015625	0.748046875	-2.4375	3.6875	1.6875
19	02	10	17	42	44	-0.935731863976	-0.112358619983	-0.328409415605	-0.6123046875	0.142578125	0.7216796875	0.9375	4.5	0.5
19	02	10	17	42	44	-0.935247504811	-0.113091466093	-0.329570381492	-0.626953125	0.1630859375	0.69775390625	3.0625	5.0	1.4375
19	02	10	17	42	44	-0.934815447394	-0.113518099638	-0.330728269859	-0.63525390625	0.17626953125	0.69189453125	0.3125	4.5	2.1875
19	02	10	17	42	44	-0.934396522691	-0.113091884817	-0.332134936413	-0.6435546875	0.15771484375	0.6689453125	-3.8125	4.125	0.9375
19	02	10	17	42	44	-0.934234587188	-0.111873783126	-0.33305795664	-0.6591796875	0.134765625	0.70068359375	-6.125	1.5625	0.4375
19	02	10	17	42	44	-0.934223395493	-0.110651794344	-0.333542226195	-0.65283203125	0.123046875	0.70849609375	-5.5625	-0.625	0.5
19	02	10	17	42	44	-0.934291964321	-0.10967616017	-0.333728015476	-0.64111328125	0.140625	0.74560546875	-4.625	0.0	0.9375
19	02	10	17	42	44	-0.934328758374	-0.108879907567	-0.333963483299	-0.65478515625	0.14990234375	0.7744140625	-4.5	1.3125	1.375
19	02	10	17	42	44	-0.934304423879	-0.107846610726	-0.334464870842	-0.6572265625	0.15087890625	0.78857421875	-5.75	3.3125	1.1875
19	02	10	17	42	44	-0.934090504396	-0.106866545129	-0.33543034382	-0.6513671875	0.15087890625	0.7880859375	-5.1875	6.375	-0.3125
19	02	10	17	42	44	-0.933648865427	-0.10613946375	-0.336972961105	-0.64794921875	0.14404296875	0.77001953125	-4.1875	9.75	0.5625
19	02	10	17	42	44	-0.933003987625	-0.105281080569	-0.339096628197	-0.63671875	0.119140625	0.740234375	-3.875	12.625	0.6875
19	02	10	17	42	44	-0.932400051419	-0.104549406826	-0.341052005455	-0.62890625	0.11376953125	0.71826171875	-3.3125	11.3125	1.0
19	02	10	17	42	44	-0.931893699111	-0.103998091773	-0.342632210807	-0.6396484375	0.11962890625	0.69287109375	-2.25	7.875	0.3125
19	02	10	17	42	44	-0.931520549996	-0.103692158451	-0.343789245766	-0.625	0.14697265625	0.6669921875	-2.9375	4.875	0.3125
19	02	10	17	42	44	-0.931538790979	-0.102656636731	-0.344162172727	-0.60888671875	0.14306640625	0.66552734375	-7.4375	0.8125	1.0
19	02	10	17	42	44	-0.931564462719	-0.101560850813	-0.344537862285	-0.63037109375	0.13916015625	0.67236328125	-7.5	-0.125	1.8125
19	02	10	17	42	44	-0.931619666562	-0.100766776041	-0.344779841222	-0.6787109375	0.14501953125	0.693359375	-6.625	-2.125	3.9375
19	02	10	17	42	44	-0.931941012131	-0.0999074942278	-0.344336030808	-0.67919921875	0.16552734375	0.720703125	-7.9375	-5.0	4.0625
19	02	10	17	42	44	-0.93218432129	-0.0991140066633	-0.344030576084	-0.68408203125	0.17236328125	0.74365234375	-7.4375	-3.5625	2.0625
19	02	10	17	42	44	-0.932260026741	-0.0988714398246	-0.344035991538	-0.6796875	0.1806640625	0.76171875	-4.625	-0.375	2.9375
19	02	10	17	42	44	-0.932139574292	-0.0988716107087	-0.34446380916	-0.69140625	0.16845703125	0.763671875	-2.375	2.0625	2.875
19	02	10	17	42	44	-0.931901410447	-0.0993605014217	-0.345076336019	-0.658203125	0.15673828125	0.7490234375	0.75	4.3125	4.1875
19	02	10	17	42	44	-0.931499890901	-0.0999125489061	-0.346062402137	-0.63232421875	0.14453125	0.72216796875	2.5	6.5625	2.625
19	02	10	17	42	44	-0.931160477083	-0.100641254946	-0.346782056157	-0.64111328125	0.1416015625	0.71142578125	3.6875	4.3125	2.0625
19	02	10	17	42	44	-0.931104198628	-0.101068992719	-0.34690589047	-0.630859375	0.15380859375	0.6884765625	0.125	0.5	3.9375
19	02	10	17	42	44	-0.931295221297	-0.10070365785	-0.346603680565	-0.62646484375	0.14599609375	0.67724609375	-3.6875	-3.0	3.1875
19	02	10	17	42	44	-0.931709505466	-0.100030910485	-0.345744422145	-0.63916015625	0.14111328125	0.69580078125	-4.3125	-6.8125	2.1875
19	02	10	17	42	44	-0.932286627627	-0.0994845959432	-0.344412009146	-0.67431640625	0.14794921875	0.73583984375	-3.6875	-9.5625	2.6875
19	02	10	17	42	44	-0.932908090114	-0.0989975088102	-0.342951295934	-0.68212890625	0.154296875	0.775390625	-3.5	-9.25	3.5
19	02	10	17	42	44	-0.93351327174	-0.0983255888051	-0.341545620703	-0.67822265625	0.15283203125	0.818359375	-3.875	-7.0625	1.75
19	02	10	17	42	44	-0.93386617056	-0.0972866267481	-0.340869391712	-0.68701171875	0.146484375	0.85498046875	-4.1875	-1.9375	-1.25
19	02	10	17	42	44	-0.93383716669	-0.0959409205958	-0.341347054003	-0.703125	0.14404296875	0.85693359375	-6.1875	4.125	-1.6875
19	02	10	17	42	44	-0.933609882193	-0.0935623945481	-0.342634887797	-0.712890625	0.12353515625	0.857421875	-11.0	8.375	-3.6875
19	02	10	17	42	44	-0.933191376421	-0.0910609243702	-0.344469073154	-0.6923828125	0.11962890625	0.82568359375	-12.375	11.4375	-4.0
19	02	10	17	42	44	-0.932467784676	-0.0883152823947	-0.347157792855	-0.671875	0.119140625	0.76220703125	-14.625	15.375	-5.125
19	02	10	17	42	44	-0.931508846768	-0.0855037603566	-0.350437253367	-0.68603515625	0.1103515625	0.74169921875	-14.8125	17.4375	-5.9375
19	02	10	17	42	44	-0.930320568839	-0.0838588507239	-0.3539893262	-0.71533203125	0.14111328125	0.71533203125	-10.75	17.625	-5.25
19	02	10	17	42	44	-0.929286591464	-0.0826995488923	-0.356981299979	-0.68212890625	0.16064453125	0.67919921875	-9.125	14.75	-5.3125
19	02	10	17	42	44	-0.928329219693	-0.0819078114943	-0.359613133625	-0.64453125	0.12353515625	0.65185546875	-4.875	13.5	-4.875
19	02	10	17	42	44	-0.927312689762	-0.0827587210292	-0.361977857245	-0.6328125	0.09375	0.63818359375	5.8125	13.0625	-1.125
19	02	10	17	42	44	-0.92633712248	-0.0850169726983	-0.363931233453	-0.63623046875	0.1083984375	0.619140625	11.875	10.375	3.125
19	02	10	17	42	44	-0.925758774963	-0.0867288514783	-0.364981373568	-0.64306640625	0.11328125	0.62451171875	9.0	4.4375	2.375
19	02	10	17	42	44	-0.925627158255	-0.0872772541411	-0.365160707361	-0.68017578125	0.1123046875	0.6337890625	3.1875	-2.5	0.625
19	02	10	17	42	44	-0.926000557137	-0.0868506981813	-0.364370111133	-0.7001953125	0.1162109375	0.66650390625	-3.125	-8.125	2.625
19	02	10	17	42	44	-0.92647298444	-0.0858726936171	-0.363509426569	-0.705078125	0.1162109375	0.6884765625	-6.75	-8.3125	3.5625
19	02	10	17	42	44	-0.926861859218	-0.0849592853965	-0.362785914078	-0.70703125	0.10791015625	0.7275390625	-5.125	-5.625	1.8125
19	02	10	17	42	44	-0.926924980486	-0.0850815449264	-0.3626036287	-0.72900390625	0.10693359375	0.75732421875	1.875	-1.8125	1.75
19	02	10	17	42	44	-0.926710376138	-0.0864213575219	-0.362835431121	-0.7314453125	0.11474609375	0.767578125	8.1875	1.4375	3.875
19	02	10	17	42	45	-0.92642153685	-0.0882538732647	-0.36320802199	-0.6845703125	0.12646484375	0.74169921875	8.6875	4.125	6.6875
19	02	10	17	42	45	-0.926125635945	-0.0894754304927	-0.363760958892	-0.64697265625	0.1318359375	0.71630859375	4.8125	5.9375	6.1875
19	02	10	17	42	45	-0.925722355223	-0.0896549406529	-0.3648449525	-0.65234375	0.14794921875	0.69580078125	-1.75	7.6875	3.125
19	02	10	17	42	45	-0.925310535899	-0.0881306255417	-0.366315799516	-0.69921875	0.1533203125	0.6845703125	-10.625	6.1875	-2.3125
19	02	10	17	42	45	-0.925052008731	-0.085443874924	-0.36765278753	-0.7265625	0.14697265625	0.69091796875	-16.6875	4.125	-4.6875
19	02	10	17	42	45	-0.924836104033	-0.082822054588	-0.368884670545	-0.72021484375	0.1396484375	0.693359375	-16.75	4.1875	-2.75
19	02	10	17	42	45	-0.92445560692	-0.0806846446391	-0.370404771796	-0.6982421875	0.1240234375	0.6611328125	-14.25	6.0	-1.0625
19	02	10	17	42	45	-0.923897719873	-0.0794022284024	-0.372110212582	-0.7041015625	0.10400390625	0.671875	-7.375	7.6875	-0.875
19	02	10	17	42	45	-0.923208259155	-0.0795227316507	-0.373811766201	-0.72216796875	0.12548828125	0.669921875	-0.5625	7.3125	-0.0625
19	02	10	17	42	45	-0.922687175115	-0.0800134201995	-0.375043834573	-0.69873046875	0.16455078125	0.66064453125	-1.3125	5.9375	0.5625
19	02	10	17	42	45	-0.922220369478	-0.079954247784	-0.3762732348	-0.68798828125	0.1611328125	0.66552734375	-4.5625	6.25	0.5625
19	02	10	17	42	45	-0.921726670845	-0.0797706766517	-0.377613753974	-0.71435546875	0.1572265625	0.66796875	-5.25	6.1875	1.8125
19	02	10	17	42	45	-0.921379137541	-0.0794618558044	-0.378694942601	-0.71875	0.15625	0.67626953125	-7.1875	5.25	6.0
19	02	10	17	42	45	-0.921157262405	-0.0787313899491	-0.379558538057	-0.7021484375	0.13427734375	0.681640625	-9.125	5.0	6.8125
19	02	10	17	42	45	-0.920863459237	-0.0778779012451	-0.380539744721	-0.6865234375	0.1220703125	0.6943359375	-7.0	7.0625	2.75
19	02	10	17	42	45	-0.920251032959	-0.0773894621165	-0.382186760074	-0.68896484375	0.13232421875	0.69384765625	-5.3125	11.0	1.0625
19	02	10	17	42	45	-0.91968419524	-0.0764114813485	-0.383827321247	-0.6904296875	0.13818359375	0.6962890625	-8.5	11.25	0.9375
19	02	10	17	42	45	-0.919149061651	-0.0748868458596	-0.385481107131	-0.6953125	0.12548828125	0.68896484375	-10.5	10.8125	-0.3125
19	02	10	17	42	45	-0.918628948036	-0.0731802610256	-0.387141280805	-0.6943359375	0.12451171875	0.67138671875	-12.8125	10.25	0.875
19	02	10	17	42	45	-0.918167630755	-0.0712855485723	-0.388713749022	-0.70458984375	0.14990234375	0.669921875	-15.9375	9.3125	1.8125
19	02	10	17	42	45	-0.917746924894	-0.0682954584662	-0.390364389946	-0.7275390625	0.1494140625	0.650390625	-22.125	7.875	-0.3125
19	02	10	17	42	45	-0.917381564918	-0.0653659540967	-0.391829528759	-0.73583984375	0.15673828125	0.65576171875	-22.375	6.5625	-1.125
19	02	10	17	42	45	-0.916856229644	-0.0629873271863	-0.393548726451	-0.74853515625	0.17578125	0.638671875	-20.4375	7.125	-1.0625
19	02	10	17	42	45	-0.916269045341	-0.0607265503307	-0.395363410093	-0.7607421875	0.15966796875	0.61962890625	-19.125	6.5625	0.125
19	02	10	17	42	45	-0.915621009783	-0.059385364786	-0.397143441585	-0.75439453125	0.15380859375	0.6171875	-13.9375	6.625	1.25
19	02	10	17	42	45	-0.914748753754	-0.0586518249504	-0.39927184061	-0.75537109375	0.14501953125	0.6015625	-7.625	8.3125	-3.5625
19	02	10	17	42	45	-0.913724800627	-0.0584695984905	-0.401597033473	-0.7861328125	0.1357421875	0.62158203125	-1.5625	9.4375	-7.625
19	02	10	17	42	45	-0.912691396166	-0.0592022638946	-0.403796059719	-0.80517578125	0.1552734375	0.646484375	2.5	9.375	-5.6875
19	02	10	17	42	45	-0.911714948882	-0.0595074357451	-0.405932261683	-0.7861328125	0.13134765625	0.6474609375	0.375	10.6875	-4.25
19	02	10	17	42	45	-0.910736177525	-0.0593852232095	-0.408128455912	-0.74560546875	0.0771484375	0.6650390625	0.75	13.8125	-1.8125
19	02	10	17	42	45	-0.909666019019	-0.059505157232	-0.410494038505	-0.7138671875	0.0556640625	0.6728515625	2.3125	17.5	1.25
19	02	10	17	42	45	-0.908610661393	-0.0588366143335	-0.412954909316	-0.7041015625	0.056640625	0.68017578125	-3.6875	19.3125	2.5
19	02	10	17	42	45	-0.907708464615	-0.0565181574928	-0.415341319372	-0.732421875	0.0712890625	0.68212890625	-15.375	17.6875	3.125
19	02	10	17	42	45	-0.907048792441	-0.0518766971858	-0.417515865233	-0.7548828125	0.09521484375	0.64990234375	-32.125	13.625	4.0625
19	02	10	17	42	45	-0.906574492689	-0.045102904948	-0.41947532572	-0.775390625	0.107421875	0.62451171875	-48.0	10.4375	4.8125
19	02	10	17	42	45	-0.906158099638	-0.03729121027	-0.421250299973	-0.81005859375	0.11669921875	0.62646484375	-56.25	8.125	6.0625
19	02	10	17	42	45	-0.90557984247	-0.0297831893197	-0.423128794167	-0.8232421875	0.13232421875	0.599609375	-56.125	7.1875	6.4375
19	02	10	17	42	45	-0.904822141602	-0.0238030782614	-0.425098564334	-0.83251953125	0.12939453125	0.591796875	-46.875	7.6875	6.5625
19	02	10	17	42	45	-0.90393638253	-0.0202014004873	-0.42709788704	-0.84375	0.13330078125	0.57958984375	-32.8125	6.9375	8.4375
19	02	10	17	42	45	-0.903082003179	-0.0189807733317	-0.428867827015	-0.8154296875	0.16748046875	0.56396484375	-20.875	6.0625	8.8125
19	02	10	17	42	45	-0.902205523613	-0.0182491849249	-0.430656350603	-0.80712890625	0.16845703125	0.5458984375	-15.5625	5.9375	5.1875
19	02	10	17	42	45	-0.901288043528	-0.0175777718247	-0.432547461535	-0.81689453125	0.1376953125	0.52587890625	-11.125	5.1875	0.625
19	02	10	17	42	45	-0.900607321949	-0.0173334561828	-0.433946737534	-0.826171875	0.10693359375	0.55322265625	-5.75	2.875	-0.3125
19	02	10	17	42	45	-0.900429154359	-0.0180659547001	-0.43425428274	-0.8095703125	0.1064453125	0.5830078125	-1.0	-1.125	2.4375
19	02	10	17	42	45	-0.900461049561	-0.0189198132956	-0.434118167651	-0.7841796875	0.09814453125	0.59326171875	0.1875	-2.625	3.8125
19	02	10	17	42	45	-0.900599657962	-0.0198966853142	-0.433759946404	-0.78515625	0.0830078125	0.626953125	2.125	-2.25	3.875
19	02	10	17	42	45	-0.900587790827	-0.0212391265389	-0.433693198808	-0.79443359375	0.10009765625	0.62744140625	3.375	-0.8125	4.0
19	02	10	17	42	45	-0.900549968663	-0.0216669087682	-0.43370437664	-0.7919921875	0.09716796875	0.6357421875	-1.8125	0.4375	3.8125
19	02	10	17	42	45	-0.900554629961	-0.0212397838852	-0.433645587657	-0.76953125	0.0869140625	0.6318359375	-7.3125	0.8125	4.375
19	02	10	17	42	45	-0.900597824606	-0.0199576774631	-0.433514932785	-0.76123046875	0.07958984375	0.6103515625	-12.25	-0.125	5.25
19	02	10	17	42	45	-0.900776889407	-0.0180655843393	-0.433085765108	-0.755859375	0.07666015625	0.59765625	-17.0625	-2.6875	6.25
19	02	10	17	42	46	-0.90108232318	-0.0159904882602	-0.432353507004	-0.76708984375	0.0830078125	0.5966796875	-18.875	-5.125	7.5625
19	02	10	17	42	46	-0.901381102389	-0.0141594160576	-0.431557029927	-0.7841796875	0.11572265625	0.60107421875	-20.625	-5.75	8.875
19	02	10	17	42	46	-0.901533274067	-0.0125119708336	-0.431022136718	-0.79736328125	0.1416015625	0.60986328125	-21.1875	-4.75	8.625
19	02	10	17	42	46	-0.901473077914	-0.0112302671859	-0.430900469199	-0.81298828125	0.1572265625	0.6103515625	-19.1875	-2.5	8.125
19	02	10	17	42	46	-0.901252535824	-0.0108025799987	-0.431065664016	-0.8310546875	0.162109375	0.61962890625	-14.9375	-1.125	9.8125
19	02	10	17	42	46	-0.901019345834	-0.0108027111165	-0.431253992933	-0.81494140625	0.15380859375	0.61474609375	-11.5625	-0.6875	10.1875
19	02	10	17	42	46	-0.900708583209	-0.0113519309173	-0.431678534289	-0.78515625	0.13671875	0.60693359375	-5.3125	1.125	7.375
19	02	10	17	42	46	-0.900278321792	-0.0122063361371	-0.432409457657	-0.80712890625	0.134765625	0.595703125	-1.6875	2.0	4.9375
19	02	10	17	42	46	-0.899978123127	-0.0127556915593	-0.432900096795	-0.802734375	0.1201171875	0.6025390625	-2.1875	0.875	4.0625
19	02	10	17	42	46	-0.899861819354	-0.0126337083971	-0.43302493274	-0.794921875	0.1005859375	0.59521484375	-4.75	-1.375	3.1875
19	02	10	17	42	46	-0.899872753597	-0.0123897293123	-0.432908128138	-0.796875	0.08203125	0.60107421875	-4.5	-2.625	3.0
19	02	10	17	42	46	-0.899906299194	-0.0124503821659	-0.432711811549	-0.80859375	0.1015625	0.6123046875	-3.75	-3.1875	3.5
19	02	10	17	42	46	-0.899966225926	-0.0124503668852	-0.43246715563	-0.83154296875	0.115234375	0.63427734375	-4.5	-3.3125	3.0
19	02	10	17	42	46	-0.900033623467	-0.012206328385	-0.432165056471	-0.81689453125	0.1171875	0.65380859375	-6.9375	-1.875	3.5625
19	02	10	17	42	46	-0.899924682054	-0.0117182461142	-0.432232390526	-0.78857421875	0.109375	0.65673828125	-7.375	2.125	3.8125
19	02	10	17	42	46	-0.899517446358	-0.0109860999012	-0.432913369997	-0.7744140625	0.10400390625	0.65869140625	-8.3125	6.75	3.375
19	02	10	17	42	46	-0.898881309676	-0.00958204546572	-0.434060556383	-0.77490234375	0.10205078125	0.66259765625	-12.0625	10.3125	2.8125
19	02	10	17	42	46	-0.898230424569	-0.0068967886102	-0.435169051245	-0.7744140625	0.0859375	0.66552734375	-19.1875	11.0625	2.8125
19	02	10	17	42	46	-0.897658657375	-0.00329572800505	-0.436012608668	-0.75341796875	0.07763671875	0.662109375	-25.5	10.625	3.6875
19	02	10	17	42	46	-0.897070710687	0.00103756987901	-0.436755885541	-0.75244140625	0.0908203125	0.6416015625	-31.125	9.875	3.5625
19	02	10	17	42	46	-0.896331866002	0.00622537452895	-0.437729275702	-0.77734375	0.07958984375	0.609375	-35.875	8.5625	1.6875
19	02	10	17	42	46	-0.895533920789	0.0114741618693	-0.438764625949	-0.8125	0.0732421875	0.578125	-35.5625	6.3125	1.25
19	02	10	17	42	46	-0.894721089476	0.0153799259583	-0.439792644663	-0.82177734375	0.08740234375	0.5673828125	-29.3125	4.875	3.25
19	02	10	17	42	46	-0.893894643304	0.0181269089896	-0.440782951928	-0.79296875	0.10693359375	0.548828125	-25.0625	4.5	6.375
19	02	10	17	42	46	-0.893098381754	0.0198968135346	-0.441758087005	-0.78369140625	0.10791015625	0.5576171875	-19.9375	4.75	7.8125
19	02	10	17	42	46	-0.892718798016	0.0208730313066	-0.4419345605	-0.78076171875	0.1142578125	0.5830078125	-15.5	1.375	8.1875
19	02	10	17	42	46	-0.892718083073	0.0216054010671	-0.441384916715	-0.7392578125	0.10791015625	0.6025390625	-13.6875	-0.875	7.4375
19	02	10	17	42	46	-0.892868730502	0.021972297695	-0.440666637106	-0.73486328125	0.10400390625	0.63623046875	-9.875	-0.5	5.0625
19	02	10	17	42	46	-0.892979505429	0.0220330532062	-0.440111763628	-0.7568359375	0.09765625	0.64208984375	-7.0	-0.25	4.4375
19	02	10	17	42	46	-0.893249325884	0.0218490884577	-0.439239915167	-0.78076171875	0.087890625	0.67578125	-5.3125	-1.375	5.6875
19	02	10	17	42	46	-0.893726488094	0.0213010000918	-0.437860672375	-0.79736328125	0.0927734375	0.7001953125	-4.8125	-4.625	8.8125
19	02	10	17	42	46	-0.894250835106	0.0214835035461	-0.4363226331	-0.7900390625	0.080078125	0.6884765625	-8.0	-5.6875	7.6875
19	02	10	17	42	46	-0.894465332643	0.0220320677596	-0.435636841185	-0.82421875	0.05419921875	0.67529296875	-6.0	-2.6875	3.125
19	02	10	17	42	46	-0.894471044815	0.0219711774109	-0.435517561122	-0.87646484375	0.0546875	0.67822265625	-1.125	-1.375	2.375
19	02	10	17	42	46	-0.894282280435	0.0221556420829	-0.435727627629	-0.87353515625	0.08251953125	0.66796875	-4.125	0.1875	1.9375
19	02	10	17	42	46	-0.893930152936	0.0232530476049	-0.436254026981	-0.85302734375	0.06494140625	0.6591796875	-7.5625	3.375	-0.5
19	02	10	17	42	46	-0.893519716035	0.024474139763	-0.436872549684	-0.8271484375	0.0458984375	0.66162109375	-7.625	5.5	0.625
19	02	10	17	42	46	-0.893091746457	0.0258778719673	-0.437482514768	-0.79736328125	0.0380859375	0.66162109375	-8.5	7.0625	1.125
19	02	10	17	42	46	-0.892731893416	0.0275869840585	-0.437912855354	-0.76708984375	0.03662109375	0.65673828125	-10.5625	7.1875	0.6875
19	02	10	17	42	46	-0.892461492983	0.0293560813872	-0.437960997993	-0.7392578125	0.0556640625	0.65087890625	-13.9375	5.75	2.8125
19	02	10	17	42	46	-0.892306059055	0.032042454241	-0.437486308571	-0.71435546875	0.07568359375	0.654296875	-21.8125	4.1875	3.625
19	02	10	17	42	46	-0.892379124191	0.0354607941423	-0.436332559937	-0.7041015625	0.0732421875	0.65673828125	-27.5625	1.4375	4.0625
19	02	10	17	42	46	-0.892636142426	0.0386351232927	-0.434629878305	-0.7060546875	0.0908203125	0.658203125	-28.875	-2.5	5.875
19	02	10	17	42	46	-0.893020085658	0.0415017535708	-0.432472685004	-0.69482421875	0.10205078125	0.63916015625	-29.4375	-6.3125	9.125
19	02	10	17	42	46	-0.89339771373	0.0438825629302	-0.430220008477	-0.6826171875	0.1005859375	0.6220703125	-28.0625	-8.0	11.4375
19	02	10	17	42	46	-0.893642878416	0.0457135989574	-0.428267455119	-0.69140625	0.09521484375	0.599609375	-24.3125	-8.3125	13.125
19	02	10	17	42	46	-0.893828447449	0.0467512864968	-0.426559714525	-0.72802734375	0.09765625	0.60302734375	-19.8125	-8.9375	13.5625
19	02	10	17	42	46	-0.894017562583	0.0474229687416	-0.424914682598	-0.76416015625	0.109375	0.62109375	-17.625	-9.8125	12.625
19	02	10	17	42	46	-0.894236869907	0.0481540329209	-0.423377092994	-0.80419921875	0.09423828125	0.64306640625	-15.3125	-9.8125	10.3125
19	02	10	17	42	47	-0.89450354914	0.0483993800811	-0.422106068904	-0.85888671875	0.0791015625	0.6826171875	-9.25	-9.1875	6.875
19	02	10	17	42	47	-0.89477347213	0.0474820108667	-0.421296042433	-0.8955078125	0.08056640625	0.7109375	-0.4375	-7.9375	4.6875
19	02	10	17	42	47	-0.894930735332	0.0461411468261	-0.421007448157	-0.87939453125	0.0703125	0.7490234375	4.75	-2.375	3.125
19	02	10	17	42	47	-0.894968565572	0.0443700318584	-0.421179628411	-0.85205078125	0.0478515625	0.78125	9.375	3.0625	2.875
19	02	10	17	42	47	-0.894741449582	0.042845054407	-0.421920030079	-0.8056640625	0.04150390625	0.779296875	9.625	8.875	2.8125
19	02	10	17	42	47	-0.894426106956	0.0426614704034	-0.422647614512	-0.751953125	0.02587890625	0.77392578125	2.75	12.625	1.125
19	02	10	17	42	47	-0.893828772079	0.0441879160796	-0.423752349918	-0.72412109375	0.0146484375	0.7509765625	-5.6875	16.5625	-1.9375
19	02	10	17	42	47	-0.893150398724	0.0473002295347	-0.424664512391	-0.728515625	0.01904296875	0.72607421875	-15.6875	15.375	-3.5
19	02	10	17	42	47	-0.892513875799	0.0517540868899	-0.42501823243	-0.7265625	0.01953125	0.70263671875	-25.8125	12.625	-2.8125
19	02	10	17	42	47	-0.891676820548	0.057064875237	-0.425148578504	-0.69775390625	0.0341796875	0.642578125	-34.8125	10.0625	1.25
19	02	10	17	42	47	-0.890460831779	0.0626801421684	-0.425516992403	-0.6982421875	0.044921875	0.5859375	-39.9375	9.375	6.3125
19	02	10	17	42	47	-0.888951271993	0.0686015262424	-0.426135103402	-0.732421875	0.052734375	0.55126953125	-43.5	7.875	7.9375
19	02	10	17	42	47	-0.887541992756	0.0742771699342	-0.426315556278	-0.78271484375	0.068359375	0.56103515625	-44.3125	3.625	9.0
19	02	10	17	42	47	-0.886218969661	0.0792171491371	-0.426295675441	-0.80224609375	0.08056640625	0.57470703125	-41.5	1.9375	10.1875
19	02	10	17	42	47	-0.884795771097	0.0831269807707	-0.426559815423	-0.81640625	0.0966796875	0.59228515625	-37.0625	3.0625	11.4375
19	02	10	17	42	47	-0.883263702356	0.0863611207044	-0.427411256744	-0.83935546875	0.07958984375	0.5908203125	-30.4375	5.125	10.6875
19	02	10	17	42	47	-0.882033599624	0.0881911535744	-0.428261124312	-0.84521484375	0.05224609375	0.61376953125	-19.375	4.9375	10.375
19	02	10	17	42	47	-0.881131157212	0.0886196883197	-0.429121920507	-0.81640625	0.02783203125	0.61279296875	-8.75	4.3125	9.6875
19	02	10	17	42	47	-0.880561417008	0.0878852537075	-0.4297833032	-0.7783203125	0.0224609375	0.6318359375	-0.625	4.75	9.3125
19	02	10	17	42	47	-0.879947207258	0.0866032103689	-0.430635836761	-0.73486328125	0.02392578125	0.61474609375	2.1875	5.875	10.9375
19	02	10	17	42	47	-0.879345695074	0.0858106640251	-0.431067368428	-0.71337890625	0.02294921875	0.591796875	-2.125	3.6875	13.125
19	02	10	17	42	47	-0.878864809986	0.0861165449229	-0.430704789172	-0.701171875	0.0146484375	0.5693359375	-9.875	-0.125	14.3125
19	02	10	17	42	47	-0.878500101967	0.0875814677173	-0.429606934678	-0.69921875	0.01025390625	0.541015625	-17.6875	-5.375	14.0625
19	02	10	17	42	47	-0.878415314791	0.0894100212721	-0.427520272362	-0.767578125	0.01123046875	0.5439453125	-22.0	-13.6875	15.25
19	02	10	17	42	47	-0.87860445801	0.0905091977791	-0.424532690325	-0.8125	0.04150390625	0.5478515625	-22.8125	-22.1875	19.6875
19	02	10	17	42	47	-0.878868517495	0.0897788603635	-0.42136862811	-0.83984375	0.09228515625	0.578125	-17.5625	-26.125	24.8125
19	02	10	17	42	47	-0.878888042846	0.0879498381764	-0.418936633756	-0.90380859375	0.11767578125	0.60205078125	-11.6875	-25.0	26.375
19	02	10	17	42	47	-0.879295275234	0.0847131145988	-0.416607867616	-0.94775390625	0.099609375	0.66845703125	0.5	-24.875	23.9375
19	02	10	17	42	47	-0.88017302023	0.0790391832188	-0.414787868073	-0.93359375	0.09716796875	0.72265625	19.75	-22.9375	19.3125
19	02	10	17	42	47	-0.881321348538	0.0711038345601	-0.413561873802	-0.875	0.111328125	0.76513671875	35.625	-17.9375	16.1875
19	02	10	17	42	47	-0.882226246844	0.0633518397941	-0.413373806287	-0.85205078125	0.08740234375	0.74462890625	40.9375	-11.8125	11.8125
19	02	10	17	42	47	-0.883391749902	0.0565775979107	-0.413010361447	-0.859375	0.0078125	0.755859375	43.0625	-11.625	7.8125
19	02	10	17	42	47	-0.884741225656	0.0499864144462	-0.411914909765	-0.806640625	-0.02587890625	0.7431640625	42.5	-13.9375	10.5625
19	02	10	17	42	47	-0.886079902184	0.0450424967497	-0.410326159415	-0.78173828125	-0.037109375	0.7236328125	33.375	-15.3125	9.5625
19	02	10	17	42	47	-0.887241648075	0.0415026704747	-0.408435104142	-0.794921875	0.0048828125	0.734375	21.9375	-15.125	9.0625
19	02	10	17	42	47	-0.887739681743	0.0394279707395	-0.406669611513	-0.80908203125	0.09228515625	0.73486328125	5.3125	-12.75	13.375
19	02	10	17	42	47	-0.887402210565	0.0396706627832	-0.405067982911	-0.79541015625	0.18115234375	0.734375	-16.5625	-7.75	18.375
19	02	10	17	42	47	-0.886340318907	0.0428460889597	-0.403619923491	-0.7783203125	0.19775390625	0.70751953125	-37.25	-2.4375	21.5
19	02	10	17	42	47	-0.885081237141	0.0481539853885	-0.401710433241	-0.71728515625	0.12744140625	0.68603515625	-47.8125	-0.5	23.8125
19	02	10	17	42	47	-0.884010949624	0.0531602828723	-0.39934297455	-0.64404296875	0.07275390625	0.642578125	-43.9375	-2.4375	25.4375
19	02	10	17	42	47	-0.883260563582	0.0562718518258	-0.396527355002	-0.5693359375	0.06298828125	0.61328125	-34.25	-6.0625	27.5
19	02	10	17	42	47	-0.882553806185	0.0574941691166	-0.394036471143	-0.529296875	0.10546875	0.59228515625	-25.3125	-6.5625	27.25
19	02	10	17	42	47	-0.881723209645	0.0575527782028	-0.392127889664	-0.56298828125	0.17724609375	0.57421875	-21.3125	-7.8125	24.8125
19	02	10	17	42	47	-0.88101772926	0.0579207360629	-0.389820591395	-0.650390625	0.216796875	0.5634765625	-24.9375	-14.375	22.375
19	02	10	17	42	47	-0.880861942927	0.0581626433597	-0.386021741081	-0.70703125	0.197265625	0.583984375	-25.75	-25.875	24.0
19	02	10	17	42	47	-0.881374981612	0.0565774259369	-0.381333071471	-0.736328125	0.1923828125	0.6376953125	-15.5	-34.125	24.25
19	02	10	17	42	47	-0.882228323776	0.0519998984336	-0.376633067176	-0.76220703125	0.2314453125	0.68994140625	0.0	-38.5625	25.3125
19	02	10	17	42	47	-0.882940889492	0.0457735305951	-0.372718601792	-0.81689453125	0.26708984375	0.75634765625	10.1875	-37.4375	26.4375
19	02	10	17	42	47	-0.88373150102	0.0389989246652	-0.369421738652	-0.8681640625	0.24267578125	0.83056640625	19.0	-34.8125	23.625
19	02	10	17	42	47	-0.884652109195	0.0314922723935	-0.366982623842	-0.880859375	0.18310546875	0.9384765625	32.3125	-28.125	21.0625
19	02	10	17	42	48	-0.885164897227	0.0233146928732	-0.366016264819	-0.84619140625	0.15966796875	1.0107421875	42.75	-15.875	20.75
19	02	10	17	42	48	-0.885080666794	0.0177602036986	-0.366250798609	-0.76806640625	0.06982421875	1.05712890625	37.5	1.9375	20.375
19	02	10	17	42	48	-0.884045804644	0.0159903348855	-0.368632147742	-0.74609375	-0.06396484375	1.0078125	28.5625	19.6875	19.4375
19	02	10	17	42	48	-0.882362989298	0.0151363368158	-0.371633688997	-0.7001953125	-0.103515625	0.86328125	22.875	22.0	25.8125
19	02	10	17	42	48	-0.881742298557	0.0126338101891	-0.371873456435	-0.59228515625	-0.0341796875	0.73828125	21.125	2.625	24.5
19	02	10	17	42	48	-0.882597260522	0.0106807634736	-0.368699955108	-0.43310546875	0.1474609375	0.595703125	2.0	-15.75	9.4375
19	02	10	17	42	48	-0.883583650102	0.0100095129251	-0.365713423459	-0.3837890625	0.291015625	0.51025390625	-11.25	-14.875	-4.6875
19	02	10	17	42	48	-0.883563408445	0.0122064434406	-0.363141692357	-0.4677734375	0.34619140625	0.4697265625	-33.375	-12.0625	1.9375
19	02	10	17	42	48	-0.882883871853	0.0166006092316	-0.358560953072	-0.46484375	0.341796875	0.5283203125	-56.4375	-15.4375	19.25
19	02	10	17	42	48	-0.883069195319	0.0227648634912	-0.351543200293	-0.39306640625	0.22998046875	0.58935546875	-62.6875	-20.5625	17.375
19	02	10	17	42	48	-0.883782789822	0.0275857897244	-0.345066493588	-0.37548828125	0.1015625	0.5595703125	-44.5625	-21.6875	12.375
19	02	10	17	42	48	-0.884766308951	0.0285625048347	-0.341102221199	-0.49169921875	0.04052734375	0.775390625	-8.0625	-13.125	7.0625
19	02	10	17	42	48	-0.885587862749	0.0232535476022	-0.338732780032	-0.5947265625	0.201171875	0.91357421875	21.75	-15.875	10.3125
19	02	10	17	42	48	-0.887814979946	0.0220321171211	-0.334448758514	-0.7158203125	0.04833984375	1.0732421875	11.875	-21.125	-3.5
19	02	10	17	42	48	-0.890208067952	0.0223986261441	-0.330730667779	-0.828125	-0.10107421875	1.1845703125	17.0	-17.9375	-5.75
19	02	10	17	42	48	-0.891120794754	0.019530077003	-0.331095836692	-0.908203125	-0.0048828125	1.10888671875	34.1875	-7.5625	0.375
19	02	10	17	42	48	-0.891844947451	0.0186754638965	-0.329994226433	-0.9150390625	0.255859375	1.02734375	2.3125	-15.375	-4.125
19	02	10	17	42	48	-0.892913549323	0.0277700386153	-0.324634803066	-0.80810546875	0.26123046875	0.8994140625	-64.375	-20.75	-12.25
19	02	10	17	42	48	-0.894431034535	0.041318990814	-0.316270325552	-0.71435546875	0.10205078125	0.91259765625	-86.5625	-23.8125	-13.1875
19	02	10	17	42	48	-0.895486919697	0.0527941784036	-0.307426909386	-0.61376953125	0.0478515625	0.92333984375	-78.3125	-24.4375	-1.6875
19	02	10	17	42	48	-0.896497376351	0.0613980775144	-0.297591477098	-0.4794921875	-0.02734375	1.0029296875	-63.25	-25.0625	9.0
19	02	10	17	42	48	-0.897907156803	0.0648773319522	-0.288194507506	-0.37841796875	-0.07861328125	1.03515625	-31.4375	-26.5625	13.375
19	02	10	17	42	48	-0.899461423329	0.0627431867532	-0.280513313539	-0.33349609375	-0.0126953125	1.009765625	-1.5625	-27.875	14.1875
19	02	10	17	42	48	-0.900656342741	0.0590794429609	-0.274768235754	-0.3740234375	0.0654296875	0.97021484375	6.0	-24.875	12.75
19	02	10	17	42	48	-0.901954222357	0.0556015899694	-0.267510174353	-0.44921875	0.08251953125	1.05517578125	0.375	-35.5	15.25
19	02	10	17	42	48	-0.90395294364	0.0508401054657	-0.25682492653	-0.4306640625	0.1103515625	1.1796875	-0.625	-53.25	18.0
19	02	10	17	42	48	-0.90575976788	0.0470548333021	-0.249311276315	-0.46044921875	0.1435546875	0.6298828125	-1.75	-55.9375	4.375
19	02	10	17	42	48	-0.907765681543	0.0454676235545	-0.243999408015	-0.70556640625	-0.28466796875	0.9736328125	23.5	-44.4375	4.0625
19	02	10	17	42	48	-0.908011207887	0.0389400518002	-0.239377559813	-0.55029296875	-0.00732421875	0.92138671875	26.75	-42.0625	29.1875
19	02	10	17	42	48	-0.911159580802	0.0310657262126	-0.22740843982	-0.25927734375	0.07275390625	1.19287109375	21.125	-61.9375	4.75
19	02	10	17	42	48	-0.915630418461	0.0264887082797	-0.213435513489	-0.099609375	0.033203125	1.197265625	6.4375	-59.125	-18.8125
19	02	10	17	42	48	-0.920551056331	0.0183707397703	-0.203481881708	-0.06787109375	-0.06103515625	1.12890625	44.4375	-46.625	-33.9375
19	02	10	17	42	48	-0.92494229218	0.0112299163155	-0.205983519374	-0.427734375	-0.23583984375	0.490234375	77.4375	-18.5	-62.375
19	02	10	17	42	48	-0.931320971354	-0.0100096100205	-0.21996728362	-1.8017578125	-0.7119140625	0.10205078125	173.0625	29.75	-140.6875
19	02	10	17	42	48	-0.931283627964	-0.0329571504752	-0.235277435337	-1.84375	-0.08203125	-0.28564453125	165.4375	42.75	-46.0625
19	02	10	17	42	48	-0.922389774957	-0.0396713659579	-0.256704254183	-1.13818359375	0.58544921875	0.0234375	24.125	49.1875	69.9375
19	02	10	17	42	48	-0.921651928661	-0.0174552977682	-0.253406980187	-0.7216796875	0.560546875	0.59228515625	-140.125	15.3125	6.5625
19	02	10	17	42	48	-0.923361411607	0.0147088439551	-0.241749920773	-0.3671875	0.28369140625	0.939453125	-198.9375	-7.8125	-25.9375
19	02	10	17	42	48	-0.924509457288	0.0418678035186	-0.231005300755	-0.07861328125	-0.041015625	1.53955078125	-162.9375	-1.5	-27.9375
19	02	10	17	42	48	-0.925854299892	0.0566986581806	-0.221545887186	0.42626953125	0.47607421875	1.705078125	-101.8125	-6.8125	-25.4375
19	02	10	17	42	48	-0.929541735693	0.0582260548819	-0.21502137458	-0.169921875	-0.49267578125	1.17529296875	23.625	-9.4375	-32.1875
19	02	10	17	42	48	-0.930182062688	0.032285697209	-0.226488132973	-0.9970703125	-0.4375	0.8974609375	173.75	10.3125	3.125
19	02	10	17	42	48	-0.927880967119	0.00628637371658	-0.240041823566	-0.64013671875	0.4638671875	0.37939453125	156.75	25.75	27.625
19	02	10	17	42	48	-0.926019340348	0.000122061469762	-0.249798797868	-0.69189453125	-0.18115234375	0.72607421875	70.1875	25.6875	12.3125
19	02	10	17	42	48	-0.92434751992	-0.00482162126601	-0.252372201708	-0.1923828125	0.3251953125	0.689453125	13.1875	18.375	18.0
19	02	10	17	42	48	-0.924323764202	0.0194080526257	-0.256271738916	-1.16162109375	-0.5400390625	0.3857421875	-80.6875	2.9375	-28.5625
19	02	10	17	42	48	-0.924987442402	0.0380223790325	-0.254194556453	-1.0810546875	-0.8388671875	0.71923828125	-43.8125	-22.625	-5.25
19	02	10	17	42	48	-0.923962349801	0.0490086377496	-0.25340456281	-0.52294921875	-0.44384765625	0.65234375	-33.5625	5.5625	15.5625
19	02	10	17	42	48	-0.923803730695	0.0637800540814	-0.250603734027	-0.53173828125	-0.18115234375	0.71240234375	-71.0	1.8125	-14.3125
19	02	10	17	42	48	-0.924075529677	0.0823923099573	-0.243392986748	-0.66552734375	-0.11865234375	0.8505859375	-109.3125	-11.375	-25.9375
19	02	10	17	42	49	-0.922966689751	0.102714602847	-0.234418769777	-0.62353515625	-0.017578125	0.88720703125	-129.625	-17.0625	-7.125
19	02	10	17	42	49	-0.921694837047	0.122733963535	-0.224534187889	-0.6201171875	-0.0849609375	0.970703125	-128.875	-20.9375	-9.4375
19	02	10	17	42	49	-0.921596656604	0.137324005123	-0.215751270271	-0.56396484375	-0.17822265625	1.00732421875	-90.5625	-23.0625	-21.625
19	02	10	17	42	49	-0.922202153898	0.142999314797	-0.210318241054	-0.50927734375	-0.22265625	0.9794921875	-33.8125	-18.0625	-13.5
19	02	10	17	42	49	-0.923151996133	0.141286319651	-0.208664331269	-0.37158203125	-0.09619140625	0.90380859375	5.3125	-5.125	-6.6875
19	02	10	17	42	49	-0.923906624615	0.138726367932	-0.209401745875	-0.37841796875	0.00537109375	0.857421875	8.6875	5.125	-10.4375
19	02	10	17	42	49	-0.924221332573	0.140986018506	-0.20909874433	-0.49267578125	-0.037109375	0.84814453125	-16.1875	1.0625	-17.1875
19	02	10	17	42	49	-0.923815097372	0.147641960924	-0.206356953238	-0.4462890625	-0.09814453125	0.82470703125	-42.9375	-3.5625	-11.5
19	02	10	17	42	49	-0.922268265761	0.160150349372	-0.202995450461	-0.4150390625	-0.25341796875	0.78564453125	-68.25	4.375	-8.5625
19	02	10	17	42	49	-0.920906287214	0.171804042581	-0.20085509916	-0.453125	-0.37744140625	0.7490234375	-53.1875	7.6875	-11.4375
19	02	10	17	42	49	-0.919710013995	0.180170148073	-0.201165585382	-0.43798828125	-0.365234375	0.74755859375	-32.75	16.625	-10.25
19	02	10	17	42	49	-0.918523112924	0.188526106035	-0.201098581866	-0.6259765625	-0.44287109375	0.7802734375	-30.125	5.0625	-11.125
19	02	10	17	42	49	-0.918088291118	0.191710897647	-0.200133726006	-0.4423828125	-0.30908203125	0.80615234375	-13.8125	1.5	-1.5
19	02	10	17	42	49	-0.917263345249	0.197197276499	-0.199028263282	-0.4794921875	-0.30859375	0.7646484375	-26.125	1.375	-5.875
19	02	10	17	42	49	-0.916646151456	0.200613616075	-0.199759161976	-0.4697265625	-0.29052734375	0.76904296875	-13.3125	9.5625	-5.5625
19	02	10	17	42	49	-0.916047063664	0.203606702937	-0.200677110089	-0.560546875	-0.30078125	0.75634765625	-10.1875	4.0625	-6.0625
19	02	10	17	42	49	-0.915542793124	0.204640689644	-0.201589083774	-0.5419921875	-0.28955078125	0.79736328125	-2.5625	1.9375	2.0625
19	02	10	17	42	49	-0.915283690712	0.204773058305	-0.201416122923	-0.5263671875	-0.2744140625	0.81982421875	-1.25	-4.25	4.125
19	02	10	17	42	49	-0.914673086675	0.206298881153	-0.200744680507	-0.52587890625	-0.26416015625	0.78369140625	-10.4375	-6.3125	4.8125
19	02	10	17	42	49	-0.913852544691	0.208856168298	-0.199945297296	-0.43994140625	-0.28759765625	0.78955078125	-15.3125	0.6875	6.0
19	02	10	17	42	49	-0.912787137129	0.212999940397	-0.199756104562	-0.5029296875	-0.34375	0.78076171875	-18.875	3.5	1.125
19	02	10	17	42	49	-0.911920416229	0.216673413936	-0.199217471292	-0.49609375	-0.36572265625	0.80517578125	-16.3125	2.625	1.3125
19	02	10	17	42	49	-0.911397412911	0.21898439145	-0.198660589234	-0.4521484375	-0.349609375	0.82763671875	-10.375	3.1875	1.6875
19	02	10	17	42	49	-0.910875903063	0.220883134092	-0.198849751553	-0.46533203125	-0.328125	0.79931640625	-7.3125	5.1875	1.1875
19	02	10	17	42	49	-0.910316663578	0.222589666247	-0.199335851374	-0.45947265625	-0.2939453125	0.7919921875	-8.4375	6.625	0.8125
19	02	10	17	42	49	-0.909799363951	0.224596609602	-0.199634649459	-0.48291015625	-0.30322265625	0.80322265625	-9.875	5.5625	-1.375
19	02	10	17	42	49	-0.909488244836	0.226242982392	-0.199633341086	-0.49365234375	-0.34326171875	0.82177734375	-6.1875	3.3125	-1.5
19	02	10	17	42	49	-0.909641789881	0.225884612477	-0.199762317383	-0.43212890625	-0.31103515625	0.8203125	3.375	4.0	0.6875
19	02	10	17	42	49	-0.909747702037	0.225209245976	-0.200918384215	-0.43310546875	-0.3251953125	0.8251953125	7.9375	9.125	1.1875
19	02	10	17	42	49	-0.910059706198	0.224051316575	-0.202689845368	-0.45703125	-0.337890625	0.8173828125	13.3125	11.0625	-1.5625
19	02	10	17	42	49	-0.910215130295	0.223449178033	-0.203917974272	-0.4755859375	-0.33544921875	0.83056640625	8.6875	8.1875	-0.75
19	02	10	17	42	49	-0.910326584183	0.223446572222	-0.204525939229	-0.46728515625	-0.3291015625	0.8330078125	3.5625	6.375	-1.75
19	02	10	17	42	49	-0.910300332842	0.22405045403	-0.205252431736	-0.484375	-0.2958984375	0.79541015625	-0.3125	6.1875	-4.1875
19	02	10	17	42	49	-0.909745052039	0.226551297006	-0.205556241464	-0.51611328125	-0.3095703125	0.77197265625	-11.25	4.5625	-3.9375
19	02	10	17	42	49	-0.908991558785	0.23051303327	-0.204574976839	-0.50634765625	-0.3486328125	0.7841796875	-20.125	0.875	-3.625
19	02	10	17	42	49	-0.908441304363	0.234190357756	-0.203062632331	-0.53271484375	-0.3984375	0.80810546875	-17.0625	-2.75	-3.8125
19	02	10	17	42	49	-0.90818975103	0.236019473604	-0.201901323683	-0.53564453125	-0.41796875	0.81640625	-6.3125	-5.0	0.0625
19	02	10	17	42	49	-0.908278311664	0.235949734773	-0.200917363392	-0.50341796875	-0.41748046875	0.83642578125	3.3125	-5.1875	4.5
19	02	10	17	42	49	-0.908349567022	0.236135488464	-0.19994310163	-0.560546875	-0.41796875	0.8203125	2.5	-8.625	2.0625
19	02	10	17	42	49	-0.90866611016	0.234612609313	-0.199518371448	-0.5078125	-0.3671875	0.82275390625	9.875	-5.875	5.25
19	02	10	17	42	49	-0.908724542192	0.233147138906	-0.199761933414	-0.509765625	-0.31591796875	0.7958984375	7.6875	-3.9375	5.9375
19	02	10	17	42	49	-0.908107722954	0.234610261915	-0.198600882485	-0.568359375	-0.34130859375	0.78759765625	-9.875	-9.875	5.375
19	02	10	17	42	49	-0.907865840473	0.236014602024	-0.196099021542	-0.52734375	-0.36083984375	0.783203125	-10.1875	-15.4375	3.125
19	02	10	17	42	49	-0.908028384671	0.235826164697	-0.194507760582	-0.51953125	-0.35791015625	0.76318359375	1.25	-13.1875	2.5
19	02	10	17	42	49	-0.908095804214	0.234851310882	-0.193837776341	-0.5615234375	-0.33447265625	0.759765625	5.25	-12.6875	4.1875
19	02	10	17	42	49	-0.908357667452	0.233330065354	-0.192987095645	-0.56201171875	-0.333984375	0.76904296875	7.875	-14.8125	4.125
19	02	10	17	42	49	-0.908711125824	0.231800984343	-0.191336515512	-0.548828125	-0.357421875	0.8037109375	7.5	-17.5625	5.5625
19	02	10	17	42	49	-0.909325871631	0.229665967847	-0.189872661698	-0.5048828125	-0.36669921875	0.8056640625	12.125	-14.9375	4.5
19	02	10	17	42	49	-0.910142945592	0.226437119645	-0.189450355628	-0.4951171875	-0.34765625	0.8134765625	19.875	-10.0625	4.125
19	02	10	17	42	49	-0.910904202907	0.223194416753	-0.189748821899	-0.51318359375	-0.326171875	0.8232421875	20.375	-7.0	2.4375
19	02	10	17	42	50	-0.911730872349	0.219723600245	-0.189999879878	-0.513671875	-0.32666015625	0.85205078125	21.5	-6.875	2.4375
19	02	10	17	42	50	-0.912706921882	0.215939353325	-0.190304947334	-0.51025390625	-0.294921875	0.8310546875	22.4375	-7.5625	0.3125
19	02	10	17	42	50	-0.913531113532	0.211843031472	-0.191153089764	-0.48486328125	-0.26171875	0.826171875	23.3125	-4.3125	2.8125
19	02	10	17	42	50	-0.914087537355	0.20867098152	-0.19225317104	-0.50732421875	-0.26953125	0.81591796875	19.625	-2.875	2.125
19	02	10	17	42	50	-0.91434785355	0.206721592682	-0.192744844904	-0.544921875	-0.30322265625	0.84521484375	13.0625	-5.1875	3.125
19	02	10	17	42	50	-0.914636481207	0.204703774054	-0.192985490029	-0.52099609375	-0.32421875	0.8623046875	14.1875	-5.0	5.125
19	02	10	17	42	50	-0.914644424767	0.203301786928	-0.193414398911	-0.5302734375	-0.35400390625	0.87255859375	12.5	-3.6875	7.5625
19	02	10	17	42	50	-0.914535237359	0.202267069982	-0.193905395695	-0.50439453125	-0.36376953125	0.8349609375	11.5	-1.6875	8.75
19	02	10	17	42	50	-0.914406732912	0.200434635622	-0.195674007857	-0.4814453125	-0.326171875	0.82275390625	16.625	4.5625	9.3125
19	02	10	17	42	50	-0.914257016702	0.199146905574	-0.19823142792	-0.53271484375	-0.30712890625	0.794921875	15.5625	7.25	3.5625
19	02	10	17	42	50	-0.913991864821	0.198667346911	-0.200620451397	-0.5703125	-0.28955078125	0.80419921875	9.75	5.8125	1.0
19	02	10	17	42	50	-0.913596990124	0.199149373958	-0.20177377576	-0.58984375	-0.28076171875	0.8134765625	1.375	0.1875	1.5625
19	02	10	17	42	50	-0.913021218777	0.199645190629	-0.202635901219	-0.53515625	-0.25439453125	0.7890625	-1.625	0.375	5.1875
19	02	10	17	42	50	-0.912200063383	0.201103921373	-0.203667309749	-0.56103515625	-0.2666015625	0.78662109375	-5.6875	1.8125	4.5625
19	02	10	17	42	50	-0.911520528659	0.203055158945	-0.204336841644	-0.58740234375	-0.2861328125	0.7841796875	-7.5	0.0625	0.625
19	02	10	17	42	50	-0.911084764127	0.204090799252	-0.205250406066	-0.5390625	-0.27978515625	0.7861328125	-1.9375	2.5625	0.75
19	02	10	17	42	50	-0.91064479669	0.204759285094	-0.206712279766	-0.54150390625	-0.27490234375	0.7890625	0.6875	5.25	1.125
19	02	10	17	42	50	-0.91006988476	0.205865852142	-0.20812409007	-0.53466796875	-0.2666015625	0.75634765625	-2.125	5.375	1.1875
19	02	10	17	42	50	-0.909582120258	0.206781468391	-0.209344875024	-0.50341796875	-0.25390625	0.7490234375	-1.75	5.5625	0.9375
19	02	10	17	42	50	-0.909129380104	0.208301461755	-0.210071383346	-0.54833984375	-0.2734375	0.75537109375	-4.875	2.125	-1.4375
19	02	10	17	42	50	-0.908842173772	0.209648302122	-0.210136565999	-0.56640625	-0.2587890625	0.73388671875	-5.5625	-3.5	-2.5625
19	02	10	17	42	50	-0.908613052687	0.210811411566	-0.209956935665	-0.5771484375	-0.2607421875	0.7314453125	-5.125	-6.3125	-2.75
19	02	10	17	42	50	-0.90841361979	0.212211378393	-0.209586963878	-0.59912109375	-0.28857421875	0.72314453125	-4.625	-7.9375	-3.25
19	02	10	17	42	50	-0.908226073956	0.213003763061	-0.209341807249	-0.61181640625	-0.30712890625	0.73486328125	-0.9375	-9.375	-0.375
19	02	10	17	42	50	-0.908269792757	0.212816608476	-0.209093691035	-0.60791015625	-0.322265625	0.75927734375	4.8125	-10.125	0.9375
19	02	10	17	42	50	-0.908479332906	0.211480073129	-0.209527010404	-0.5859375	-0.3095703125	0.76220703125	11.875	-6.9375	2.0
19	02	10	17	42	50	-0.908729695982	0.209284312413	-0.210810153128	-0.583984375	-0.29736328125	0.78271484375	16.875	-3.25	3.0
19	02	10	17	42	50	-0.908963704767	0.20702376194	-0.212455694373	-0.57421875	-0.2763671875	0.78759765625	17.125	-0.375	2.4375
19	02	10	17	42	50	-0.909033028783	0.205377745525	-0.214166570297	-0.5703125	-0.27490234375	0.8115234375	14.0	2.625	2.3125
19	02	10	17	42	50	-0.909040261854	0.204280767855	-0.215511022197	-0.578125	-0.28125	0.8359375	10.0625	1.8125	1.6875
19	02	10	17	42	50	-0.908900234137	0.203666403526	-0.216605353945	-0.5302734375	-0.26611328125	0.80908203125	6.0	3.4375	2.75
19	02	10	17	42	50	-0.908704327319	0.203663532827	-0.21776190744	-0.55517578125	-0.28759765625	0.833984375	4.625	4.5625	1.5
19	02	10	17	42	50	-0.90843250059	0.203915142735	-0.219051615468	-0.58251953125	-0.27587890625	0.8046875	2.9375	3.5	0.1875
19	02	10	17	42	50	-0.908094023293	0.203846632018	-0.220447315823	-0.55908203125	-0.27294921875	0.8046875	4.25	4.75	2.875
19	02	10	17	42	50	-0.907691260388	0.204340394014	-0.221795995176	-0.5654296875	-0.291015625	0.7939453125	2.625	5.0625	2.0
19	02	10	17	42	50	-0.907357422188	0.204822190682	-0.222887556725	-0.609375	-0.31298828125	0.794921875	3.1875	1.25	1.9375
19	02	10	17	42	50	-0.907202620088	0.204462377375	-0.22399311193	-0.591796875	-0.3017578125	0.76416015625	8.25	-0.1875	2.3125
19	02	10	17	42	50	-0.90693352654	0.203785400075	-0.225939967379	-0.59423828125	-0.28466796875	0.71533203125	10.875	2.0625	3.1875
19	02	10	17	42	50	-0.906510628979	0.202809857948	-0.22880955686	-0.62451171875	-0.24560546875	0.6962890625	12.1875	4.4375	3.125
19	02	10	17	42	50	-0.905919920116	0.202753215295	-0.231255849715	-0.68994140625	-0.2490234375	0.70458984375	6.5	0.75	1.375
19	02	10	17	42	50	-0.905303299327	0.203484204136	-0.232719037304	-0.67236328125	-0.255859375	0.693359375	0.5625	-2.6875	1.8125
19	02	10	17	42	50	-0.904564967254	0.204337326116	-0.234304359307	-0.6484375	-0.27783203125	0.689453125	1.3125	-0.25	4.125
19	02	10	17	42	50	-0.903873224991	0.20488199975	-0.236496201677	-0.64892578125	-0.287109375	0.67236328125	5.0625	2.5	3.1875
19	02	10	17	42	50	-0.903228624638	0.205132198622	-0.238944527702	-0.64990234375	-0.26513671875	0.67529296875	6.25	3.625	2.375
19	02	10	17	42	50	-0.902687825748	0.205195163635	-0.24114398915	-0.66748046875	-0.25732421875	0.70703125	6.0625	2.5	1.75
19	02	10	17	42	50	-0.902120010039	0.205618179678	-0.242542786002	-0.66943359375	-0.24365234375	0.71240234375	1.0625	-1.1875	2.375
19	02	10	17	42	50	-0.90152931964	0.206171961393	-0.24352460804	-0.66845703125	-0.23486328125	0.71337890625	-1.25	-3.1875	2.875
19	02	10	17	42	50	-0.900955215983	0.207081767229	-0.244372353665	-0.626953125	-0.23974609375	0.677734375	-2.1875	-2.0625	2.1875
19	02	10	17	42	50	-0.900508230278	0.207579537154	-0.245360111544	-0.6435546875	-0.2587890625	0.7255859375	0.9375	-1.0625	2.0
19	02	10	17	42	50	-0.900404220329	0.20738653431	-0.245775624976	-0.71533203125	-0.27490234375	0.7548828125	4.625	-8.125	0.9375
19	02	10	17	42	51	-0.900481349224	0.205925448847	-0.245841051557	-0.6904296875	-0.26513671875	0.74853515625	9.5	-11.9375	5.0625
19	02	10	17	42	51	-0.900498154842	0.203671027702	-0.246700118061	-0.63623046875	-0.25048828125	0.72509765625	14.75	-7.125	8.3125
19	02	10	17	42	51	-0.900349951173	0.201773111346	-0.248584961438	-0.68310546875	-0.25390625	0.720703125	15.75	-2.8125	5.6875
19	02	10	17	42	51	-0.900351279266	0.199759336838	-0.250416302795	-0.6953125	-0.25244140625	0.74169921875	16.375	-3.1875	3.6875
19	02	10	17	42	51	-0.900384488524	0.197691523748	-0.252134512072	-0.66748046875	-0.23388671875	0.75390625	15.875	-1.625	3.5
19	02	10	17	42	51	-0.900197373585	0.196592022531	-0.253659250432	-0.6982421875	-0.2353515625	0.75927734375	10.4375	-1.875	2.875
19	02	10	17	42	51	-0.899971621344	0.196216517199	-0.254623735538	-0.69482421875	-0.2421875	0.748046875	5.75	-4.1875	2.5
19	02	10	17	42	51	-0.899821573342	0.196162689868	-0.255182391517	-0.6728515625	-0.25390625	0.7470703125	4.5	-4.5	1.5
19	02	10	17	42	51	-0.899552163916	0.196218210665	-0.256517928281	-0.67431640625	-0.2529296875	0.7138671875	6.25	-0.75	0.8125
19	02	10	17	42	51	-0.899321148773	0.195915906859	-0.258108526512	-0.72998046875	-0.25341796875	0.73193359375	8.5	-2.0	0.0625
19	02	10	17	42	51	-0.899163901282	0.19548102734	-0.259135948201	-0.7470703125	-0.25	0.72802734375	7.375	-7.0	0.875
19	02	10	17	42	51	-0.898993441818	0.194751396663	-0.259994030017	-0.701171875	-0.2314453125	0.70654296875	7.875	-6.6875	3.3125
19	02	10	17	42	51	-0.898655326006	0.193841980127	-0.261894186627	-0.6962890625	-0.2255859375	0.68701171875	10.4375	-1.5625	3.375
19	02	10	17	42	51	-0.898253343755	0.192613639957	-0.264386022907	-0.7177734375	-0.20263671875	0.681640625	12.5	-0.125	3.125
19	02	10	17	42	51	-0.897857877042	0.191888054206	-0.266104299089	-0.712890625	-0.19384765625	0.68798828125	7.4375	-2.5	2.875
19	02	10	17	42	51	-0.897438220622	0.192011741164	-0.267022049457	-0.70849609375	-0.22021484375	0.71240234375	2.625	-4.25	3.125
19	02	10	17	42	51	-0.89707466558	0.191829206281	-0.267633175165	-0.68408203125	-0.22265625	0.7138671875	3.375	-5.25	5.375
19	02	10	17	42	51	-0.896785800387	0.191087269703	-0.268474257241	-0.64697265625	-0.20654296875	0.724609375	5.75	-2.6875	5.625
19	02	10	17	42	51	-0.896586562244	0.190974768772	-0.269403205292	-0.66796875	-0.21533203125	0.7373046875	4.6875	-0.9375	1.25
19	02	10	17	42	51	-0.89656934223	0.190726970352	-0.269642161605	-0.7080078125	-0.232421875	0.77978515625	4.1875	-5.25	0.9375
19	02	10	17	42	51	-0.896690973271	0.189750356378	-0.269458933228	-0.66357421875	-0.22021484375	0.78369140625	6.3125	-7.125	4.0625
19	02	10	17	42	51	-0.89686003989	0.188160565021	-0.26988193919	-0.63818359375	-0.2109375	0.78564453125	10.6875	-2.8125	4.1875
19	02	10	17	42	51	-0.896865411751	0.187185179846	-0.271470387987	-0.6748046875	-0.21435546875	0.740234375	11.375	1.0625	-0.5
19	02	10	17	42	51	-0.89694417313	0.185785115882	-0.273611916722	-0.6806640625	-0.23046875	0.755859375	16.625	4.5625	-1.125
19	02	10	17	42	51	-0.896929069774	0.184134118366	-0.27556033955	-0.7177734375	-0.20751953125	0.77685546875	14.9375	1.75	0.875
19	02	10	17	42	51	-0.896684566923	0.182913398249	-0.276841900052	-0.677734375	-0.15234375	0.73779296875	7.5625	-1.625	3.75
19	02	10	17	42	51	-0.896169789727	0.183225615253	-0.277707045104	-0.63623046875	-0.150390625	0.724609375	-2.0625	1.4375	3.1875
19	02	10	17	42	51	-0.895408021209	0.185538844283	-0.278186201395	-0.6728515625	-0.185546875	0.72607421875	-10.8125	1.4375	0.0625
19	02	10	17	42	51	-0.894851790353	0.187551463085	-0.278306108581	-0.66259765625	-0.20947265625	0.7333984375	-8.8125	-0.125	0.375
19	02	10	17	42	51	-0.894650437417	0.18853699012	-0.278014240854	-0.6572265625	-0.20751953125	0.7724609375	-4.375	-2.625	0.625
19	02	10	17	42	51	-0.89455690987	0.18865220771	-0.278248274005	-0.65673828125	-0.19970703125	0.76220703125	1.1875	-1.625	0.75
19	02	10	17	42	51	-0.894516111343	0.188290270435	-0.278681807068	-0.6787109375	-0.2060546875	0.775390625	4.5625	-2.0625	1.1875
19	02	10	17	42	51	-0.894564469108	0.187433136701	-0.279044057635	-0.68603515625	-0.2109375	0.7890625	6.875	-3.125	2.6875
19	02	10	17	42	51	-0.894564219185	0.18670068544	-0.279471212366	-0.6650390625	-0.2138671875	0.78515625	6.5625	-1.625	3.25
19	02	10	17	42	51	-0.894409292501	0.185839392403	-0.280742596077	-0.65283203125	-0.20654296875	0.77685546875	8.6875	3.25	3.125
19	02	10	17	42	51	-0.893992385022	0.185353281903	-0.282637816428	-0.67822265625	-0.18310546875	0.75537109375	6.75	5.8125	2.4375
19	02	10	17	42	51	-0.89328981681	0.185237400521	-0.284600329037	-0.69677734375	-0.15673828125	0.74169921875	2.4375	5.0	3.5625
19	02	10	17	42	51	-0.892358861898	0.186027618567	-0.286121219108	-0.68359375	-0.14501953125	0.72314453125	-4.5	4.5	4.875
19	02	10	17	42	51	-0.891109911819	0.187865500588	-0.287535533875	-0.7060546875	-0.140625	0.70166015625	-10.8125	3.9375	4.8125
19	02	10	17	42	51	-0.889887608819	0.18975724114	-0.288877781382	-0.73779296875	-0.15380859375	0.67822265625	-10.1875	1.1875	4.5
19	02	10	17	42	51	-0.888218523945	0.191095457876	-0.289786404981	-0.791015625	-0.24560546875	0.70068359375	-7.5625	-5.1875	19.8125
19	02	10	17	42	51	-0.88741366588	0.186698652264	-0.291674684267	-0.93505859375	-0.34765625	0.5263671875	32.375	-26.6875	32.75
19	02	10	17	42	51	-0.888835075601	0.170284272535	-0.293023223097	-0.9208984375	-0.3232421875	0.42529296875	94.25	-59.625	53.0625
19	02	10	17	42	51	-0.892206634335	0.142699350874	-0.291074937689	-0.79150390625	-0.09326171875	0.4609375	130.9375	-76.375	69.375
19	02	10	17	42	51	-0.896084122016	0.112910749607	-0.287586730891	-0.79248046875	0.03857421875	0.65576171875	141.375	-85.9375	60.5625
19	02	10	17	42	51	-0.898570959318	0.0879468010852	-0.281661684253	-0.63134765625	0.2265625	0.72802734375	97.375	-91.9375	56.1875
19	02	10	17	42	51	-0.900550174973	0.0729961375308	-0.267754226879	-0.58837890625	0.32421875	1.2626953125	32.25	-104.625	61.375
19	02	10	17	42	51	-0.901688104466	0.0581025501186	-0.249865378346	-0.4482421875	0.54638671875	1.5068359375	16.0625	-122.125	78.25
19	02	10	17	42	51	-0.902813476433	0.0446157822656	-0.222590640113	-0.4912109375	0.470703125	1.7939453125	-13.75	-169.8125	93.5625
19	02	10	17	42	52	-0.904381249432	0.0305773387748	-0.186332565428	-0.24560546875	0.15966796875	1.71044921875	-25.1875	-216.8125	94.875
19	02	10	17	42	52	-0.905796417451	-0.00073240058011	-0.152827587716	0.07080078125	0.19287109375	1.62890625	75.875	-237.1875	88.625
19	02	10	17	42	52	-0.901963989651	-0.0435784469218	-0.123838471715	0.16943359375	0.47216796875	1.39794921875	139.125	-237.0625	128.25
19	02	10	17	42	52	-0.893072684732	-0.0843454144946	-0.092706718247	0.271484375	0.65380859375	1.2392578125	118.9375	-239.3125	162.875
19	02	10	17	42	52	-0.881152577765	-0.120298658362	-0.0592032971138	0.45751953125	0.7138671875	1.0771484375	88.375	-236.875	171.875
19	02	10	17	42	52	-0.867541342761	-0.147275732382	-0.0246578515883	0.515625	0.63671875	0.859375	42.375	-218.875	172.8125
19	02	10	17	42	52	-0.852530898824	-0.16802817615	0.00793449433327	0.57470703125	0.650390625	0.75341796875	17.0625	-192.5625	172.1875
19	02	10	17	42	52	-0.836945799582	-0.181023936524	0.0391221656481	0.4765625	0.68505859375	0.65869140625	-17.375	-166.3125	172.6875
19	02	10	17	42	52	-0.821650095967	-0.185972949221	0.0690303267374	0.39404296875	0.51953125	0.63916015625	-50.25	-138.75	168.9375
19	02	10	17	42	52	-0.805842995201	-0.187193854903	0.0944208977941	0.42333984375	0.37646484375	0.611328125	-51.4375	-106.125	167.1875
19	02	10	17	42	52	-0.788836429777	-0.187062565359	0.114251589674	0.4755859375	0.37255859375	0.62353515625	-38.5	-75.625	170.8125
19	02	10	17	42	52	-0.772188994764	-0.184746766294	0.129572971537	0.416015625	0.3681640625	0.6298828125	-34.3125	-49.5625	163.75
19	02	10	17	42	52	-0.757229814482	-0.178764094996	0.143731459104	0.40966796875	0.3583984375	0.60205078125	-50.625	-33.125	150.0
19	02	10	17	42	52	-0.74519941513	-0.169607631011	0.15575339127	0.37939453125	0.2861328125	0.6416015625	-61.5625	-14.6875	126.0
19	02	10	17	42	52	-0.735757094064	-0.157954322641	0.165034191817	0.24853515625	0.2578125	0.67529296875	-67.125	3.875	105.125
19	02	10	17	42	52	-0.728410322499	-0.143973183978	0.170704957857	0.17236328125	0.09765625	0.73095703125	-70.1875	18.0	91.5625
19	02	10	17	42	52	-0.721641088253	-0.130119993247	0.173208508835	0.18408203125	-0.0927734375	0.77734375	-47.9375	31.125	79.25
19	02	10	17	42	52	-0.714875387597	-0.119013660532	0.169243528542	0.18212890625	-0.13037109375	0.7890625	-10.4375	48.8125	73.5625
19	02	10	17	42	52	-0.709205529307	-0.108394924273	0.159906926574	0.09130859375	-0.0673828125	0.7158203125	7.125	67.6875	65.625
19	02	10	17	42	52	-0.705482615818	-0.0957000382043	0.150629907072	-0.05224609375	-0.08935546875	0.72412109375	-3.5625	67.625	49.9375
19	02	10	17	42	52	-0.702838177532	-0.0826365832214	0.142691529964	-0.119140625	-0.0771484375	0.6240234375	-13.3125	62.8125	39.4375
19	02	10	17	42	52	-0.699607281466	-0.0657922576482	0.139335551216	-0.17333984375	-0.16162109375	0.76171875	-43.0	53.625	44.0
19	02	10	17	42	52	-0.69596623341	-0.0465686429967	0.144283449599	-0.45458984375	-0.0654296875	0.833984375	-95.375	9.75	43.6875
19	02	10	17	42	52	-0.691742947836	-0.0325303503791	0.164421695912	-0.4990234375	-0.40625	0.923828125	-131.8125	-39.8125	32.625
19	02	10	17	42	52	-0.689672018279	-0.019408469187	0.181572942865	-0.03271484375	-0.6259765625	0.55712890625	-114.5625	-20.5625	14.375
19	02	10	17	42	52	-0.680218261368	-0.0112301624129	0.190912761019	0.49755859375	-0.40185546875	0.7109375	-48.3125	5.75	75.4375
19	02	10	17	42	52	-0.672085239959	0.00122064155459	0.192128980693	0.51220703125	-0.2626953125	0.68017578125	-41.25	58.3125	81.1875
19	02	10	17	42	52	-0.671016921955	0.0117186873763	0.193114202389	0.48779296875	-0.43310546875	1.16259765625	-39.5	49.9375	20.75
19	02	10	17	42	52	-0.672832545979	0.0134883883038	0.187799867923	0.48486328125	-0.1220703125	1.318359375	-4.25	40.0	1.5625
19	02	10	17	42	52	-0.669455968062	0.0184315527719	0.188343615411	0.3876953125	-0.017578125	1.193359375	-42.375	20.625	38.25
19	02	10	17	42	52	-0.664221678272	0.0239859523625	0.191460388196	0.412109375	-0.470703125	0.8486328125	-18.25	18.625	43.625
19	02	10	17	42	52	-0.65994899757	0.0231314778581	0.183037736402	0.3486328125	-0.44677734375	0.6591796875	59.75	36.3125	42.125
19	02	10	17	42	52	-0.65481394858	0.0226429280383	0.169852476363	0.05517578125	-0.2802734375	0.74462890625	67.875	35.3125	49.375
19	02	10	17	42	52	-0.648824261623	0.0199572508278	0.159963163363	0.0732421875	-0.13037109375	0.908203125	50.5	12.375	51.8125
19	02	10	17	42	52	-0.640780808431	0.0152581390711	0.155694051082	0.35546875	-0.03173828125	0.74462890625	30.75	1.875	65.9375
19	02	10	17	42	52	-0.630769537832	0.0121454415122	0.154778088819	0.419921875	-0.1943359375	0.572265625	24.75	1.125	77.3125
19	02	10	17	42	52	-0.622104693264	0.00805629544892	0.148370107851	0.318359375	-0.17041015625	0.64892578125	49.8125	10.375	68.375
19	02	10	17	42	52	-0.613085645895	0.00769027291019	0.142819354046	0.1669921875	-0.1591796875	0.83349609375	29.5	12.0	70.0625
19	02	10	17	42	52	-0.602708217188	0.0100705676796	0.141110015001	0.17822265625	-0.19921875	0.89794921875	4.125	10.125	78.375
19	02	10	17	42	52	-0.59146942221	0.0150140829495	0.140131440862	0.17919921875	-0.24560546875	0.85009765625	-4.125	19.4375	84.75
19	02	10	17	42	52	-0.580166574196	0.0244126477675	0.139579313611	0.02392578125	-0.42919921875	0.90283203125	-10.875	29.0625	83.5625
19	02	10	17	42	52	-0.569194125421	0.0343005681414	0.137080206487	-0.02294921875	-0.47412109375	0.90966796875	-1.25	36.1875	80.875
19	02	10	17	42	52	-0.55857884702	0.0456530788429	0.135738565972	-0.02294921875	-0.49658203125	1.07421875	-14.4375	39.75	78.1875
19	02	10	17	42	52	-0.54989270751	0.0546841138656	0.138175037714	0.125	-0.49365234375	1.1630859375	-29.0625	30.125	63.0625
19	02	10	17	42	52	-0.543762860312	0.0620117932514	0.144348317952	0.2724609375	-0.55029296875	1.0888671875	-38.8125	23.5625	44.1875
19	02	10	17	42	52	-0.537222984834	0.0682972642615	0.145810691976	0.171875	-0.52734375	1.14892578125	-16.125	26.5625	48.625
19	02	10	17	42	52	-0.531241202305	0.073179940437	0.149350554003	0.177734375	-0.5556640625	1.1357421875	-21.0	15.375	42.375
19	02	10	17	42	52	-0.526421779587	0.0736685319376	0.151853610158	0.2236328125	-0.4765625	1.1318359375	-7.875	1.25	34.0
19	02	10	17	42	52	-0.521782869037	0.075011246467	0.154111796037	0.19970703125	-0.44677734375	1.03125	-9.875	5.1875	33.125
19	02	10	17	42	52	-0.517209333181	0.0768428782717	0.15826337042	0.11865234375	-0.447265625	1.0341796875	-21.4375	-2.9375	29.1875
19	02	10	17	42	52	-0.512602236344	0.0775098035667	0.16277058749	0.19140625	-0.4501953125	1.0712890625	-20.875	-5.375	30.0
19	02	10	17	42	53	-0.508648220133	0.0788545116885	0.16985457123	0.2490234375	-0.490234375	0.96533203125	-31.6875	-4.5625	24.625
19	02	10	17	42	53	-0.505034500505	0.0787914852147	0.174366594313	0.31787109375	-0.4111328125	0.8984375	-19.0625	0.4375	26.0625
19	02	10	17	42	53	-0.499794296488	0.0818444439602	0.178214598332	0.1748046875	-0.40087890625	0.85986328125	-24.6875	6.3125	35.9375
19	02	10	17	42	53	-0.493750234389	0.084956777042	0.179434572201	0.09375	-0.296875	0.84765625	-18.6875	7.875	42.0625
19	02	10	17	42	53	-0.486928160745	0.0900859821083	0.186946723034	0.07861328125	-0.39111328125	0.83544921875	-51.25	-0.75	41.5
19	02	10	17	42	53	-0.48149112033	0.0905122742362	0.19219362884	0.25439453125	-0.31494140625	0.7490234375	-29.25	-4.9375	35.875
19	02	10	17	42	53	-0.473565848005	0.0952136516158	0.191403853505	-0.05859375	-0.19873046875	0.6328125	-14.3125	9.75	53.5625
19	02	10	17	42	53	-0.463787148438	0.100703881421	0.191337374701	-0.076171875	-0.50244140625	0.6748046875	-2.875	9.0	64.25
19	02	10	17	42	53	-0.455442877663	0.0985714617296	0.179503819781	-0.01220703125	-0.44091796875	0.6240234375	77.5625	7.25	64.8125
19	02	10	17	42	53	-0.446999896354	0.0929520538159	0.157218969553	-0.4619140625	-0.25244140625	0.64697265625	130.4375	9.25	69.8125
19	02	10	17	42	53	-0.439436900695	0.0868498207901	0.134577550838	-0.9384765625	-0.41845703125	0.6748046875	135.8125	1.3125	60.625
19	02	10	17	42	53	-0.430970555588	0.0753176130287	0.112488136801	-0.4140625	-0.32373046875	1.01123046875	143.875	-19.875	63.6875
19	02	10	17	42	53	-0.420947056228	0.0603619890691	0.0879490659742	0.05712890625	-0.4306640625	1.25537109375	166.3125	-24.0625	73.9375
19	02	10	17	42	53	-0.413682501183	0.0392442974714	0.0698218916131	0.07080078125	-0.22265625	1.53076171875	144.6875	-69.75	48.25
19	02	10	17	42	53	-0.40464453984	0.0103144686626	0.0610933913093	0.29443359375	-0.07568359375	1.23486328125	112.8125	-130.25	50.9375
19	02	10	17	42	53	-0.395367593298	-0.0204458388013	0.068600366605	0.4638671875	-0.1591796875	1.4052734375	32.75	-175.875	45.625
19	02	10	17	42	53	-0.390371910031	-0.0500476807732	0.0847148547722	0.3603515625	-0.41748046875	1.2626953125	-12.6875	-191.4375	15.5625
19	02	10	17	42	53	-0.388053514107	-0.0792219976896	0.110593420504	0.50927734375	-0.5478515625	1.0888671875	-65.125	-209.1875	-4.0
19	02	10	17	42	53	-0.390361417804	-0.110651227404	0.142265863806	1.0283203125	-0.7197265625	0.97265625	-93.3125	-226.0	-37.75
19	02	10	17	42	53	-0.402197684329	-0.143118902846	0.164724059181	1.41259765625	-0.806640625	0.82666015625	-52.125	-200.875	-105.0625
19	02	10	17	42	53	-0.418258442889	-0.169793519352	0.175713710357	1.2802734375	-0.60595703125	0.69775390625	-13.5	-143.9375	-132.0
19	02	10	17	42	53	-0.431555363756	-0.189381458596	0.184071698075	1.17724609375	-0.34765625	0.615234375	-16.625	-104.4375	-107.375
19	02	10	17	42	53	-0.445957401068	-0.201587148724	0.194690585659	1.23681640625	-0.14501953125	0.62548828125	-50.1875	-72.6875	-101.9375
19	02	10	17	42	53	-0.464452465387	-0.206165627868	0.206531819037	1.0986328125	-0.13671875	0.75732421875	-83.125	-39.1875	-115.4375
19	02	10	17	42	53	-0.485209331243	-0.207266778478	0.218985041572	0.8251953125	0.0595703125	0.78564453125	-102.1875	-27.625	-124.125
19	02	10	17	42	53	-0.503168281664	-0.205503105818	0.226437933646	0.6923828125	0.01708984375	0.619140625	-79.0	-1.1875	-106.25
19	02	10	17	42	53	-0.516481407576	-0.205628203985	0.228150260165	0.78857421875	-0.10009765625	0.57177734375	-35.0	23.4375	-81.375
19	02	10	17	42	53	-0.526774991576	-0.203971964065	0.219047091272	0.7353515625	0.03662109375	0.45068359375	13.8125	68.6875	-58.3125
19	02	10	17	42	53	-0.535149423005	-0.198911036676	0.200070689851	0.365234375	0.25830078125	0.49169921875	43.5625	94.8125	-39.3125
19	02	10	17	42	53	-0.542640882403	-0.189445202899	0.182304388228	0.0380859375	0.26904296875	0.55517578125	25.9375	90.9375	-29.4375
19	02	10	17	42	53	-0.549275391496	-0.17894171643	0.167773116803	0.06884765625	0.2841796875	0.58740234375	7.3125	86.375	-21.6875
19	02	10	17	42	53	-0.551073503898	-0.161983506407	0.160396629554	0.0732421875	0.31640625	0.44775390625	-23.1875	104.1875	15.25
19	02	10	17	42	53	-0.544514723868	-0.141896069602	0.151050654738	0.14404296875	1.01318359375	0.89892578125	-22.3125	121.3125	79.25
19	02	10	17	42	53	-0.527989080687	-0.11095643841	0.173636450648	-1.0	0.67529296875	0.68701171875	-190.9375	47.8125	159.1875
19	02	10	17	42	53	-0.518418374348	-0.0875830429939	0.204340089159	-0.36474609375	-0.83935546875	0.97412109375	-198.5625	-2.6875	87.25
19	02	10	17	42	53	-0.506879957696	-0.0826388275401	0.228507954439	0.7900390625	-1.2373046875	0.748046875	-106.8125	-53.75	72.5625
19	02	10	17	42	53	-0.505524367931	-0.0938665311938	0.234239107101	1.41796875	-0.79638671875	0.865234375	35.0	-8.5625	-3.5625
19	02	10	17	42	53	-0.501398289115	-0.0954579335576	0.226010695629	0.80908203125	-0.3779296875	0.8828125	57.6875	39.3125	32.125
19	02	10	17	42	53	-0.493641182328	-0.0953957922823	0.206965535271	0.203125	-0.22900390625	1.306640625	98.3125	29.5	51.375
19	02	10	17	42	53	-0.486547955642	-0.101008136802	0.197377833485	0.37841796875	0.0712890625	1.0078125	51.3125	-7.25	46.6875
19	02	10	17	42	53	-0.477516465827	-0.106257178809	0.197805581	0.69091796875	-0.173828125	0.7275390625	21.4375	-9.3125	57.375
19	02	10	17	42	53	-0.47027366275	-0.108947240494	0.191893626955	0.4970703125	-0.095703125	0.61376953125	42.5	13.3125	47.6875
19	02	10	17	42	53	-0.463488877356	-0.10711390305	0.186823736317	0.275390625	-0.02490234375	0.828125	18.3125	15.1875	49.5
19	02	10	17	42	53	-0.456285737327	-0.105648824413	0.186823253339	0.4072265625	-0.0087890625	0.9326171875	-9.4375	4.5625	53.9375
19	02	10	17	42	53	-0.448949916889	-0.105096758684	0.192494295523	0.54150390625	-0.24365234375	0.8984375	-22.25	-6.4375	50.125
19	02	10	17	42	53	-0.441456020942	-0.104001252549	0.194880281331	0.33740234375	-0.33447265625	0.85107421875	0.1875	-6.375	46.3125
19	02	10	17	42	53	-0.433398436397	-0.102719274533	0.194269430087	0.2880859375	-0.3115234375	0.8623046875	13.9375	-1.25	49.8125
19	02	10	17	42	53	-0.426846729137	-0.101005338393	0.19773854767	0.17724609375	-0.45654296875	0.9521484375	-3.375	-17.5625	35.4375
19	02	10	17	42	53	-0.42441934191	-0.107355999773	0.197867055863	0.44140625	-0.482421875	0.96484375	30.0	-31.0625	1.75
19	02	10	17	42	53	-0.420568789156	-0.113274658638	0.195789388421	0.4404296875	-0.36328125	0.97509765625	34.5	-25.3125	13.8125
19	02	10	17	42	54	-0.416497274103	-0.11956596717	0.191769407273	0.47216796875	-0.30810546875	0.9677734375	43.875	-20.625	15.5
19	02	10	17	42	54	-0.413370296338	-0.125726090426	0.185659595668	0.4931640625	-0.09130859375	0.919921875	40.625	-11.9375	14.6875
19	02	10	17	42	54	-0.408311468568	-0.12829158549	0.183099313259	0.43115234375	-0.03173828125	0.97265625	12.4375	-8.875	32.75
19	02	10	17	42	54	-0.403495632539	-0.128354457	0.187130178394	0.384765625	-0.216796875	1.0283203125	-18.25	-16.8125	31.125
19	02	10	17	42	54	-0.400311001536	-0.130304007971	0.192373879683	0.5166015625	-0.28564453125	0.9345703125	-17.4375	-18.3125	18.9375
19	02	10	17	42	54	-0.396294140491	-0.131101157212	0.19439347566	0.45751953125	-0.2744140625	0.8642578125	-1.5625	-6.9375	24.0
19	02	10	17	42	54	-0.391409535662	-0.129879852158	0.193965305525	0.28759765625	-0.3134765625	0.92724609375	9.3125	-3.5	28.0
19	02	10	17	42	54	-0.387371520102	-0.131036183025	0.192983889485	0.43505859375	-0.2509765625	0.96484375	12.0	-5.5625	23.125
19	02	10	17	42	54	-0.383642446815	-0.132132659458	0.192126379665	0.43359375	-0.13916015625	0.9345703125	4.25	-4.875	24.375
19	02	10	17	42	54	-0.380281433248	-0.132619411723	0.194809554635	0.3701171875	-0.27880859375	0.86376953125	-7.1875	-11.5625	19.4375
19	02	10	17	42	54	-0.376637004635	-0.13500584253	0.194452357279	0.42041015625	-0.25341796875	0.859375	12.0625	-11.875	18.6875
19	02	10	17	42	54	-0.372729253386	-0.136592118729	0.193291885619	0.3603515625	-0.20703125	0.7861328125	13.4375	-7.75	21.75
19	02	10	17	42	54	-0.369193128949	-0.13903487316	0.19262250206	0.3984375	-0.15234375	0.8330078125	8.0625	-12.375	20.1875
19	02	10	17	42	54	-0.365215077041	-0.141716144534	0.193532254227	0.43896484375	-0.1552734375	0.853515625	0.25	-15.625	23.5
19	02	10	17	42	54	-0.361814409395	-0.145323904988	0.195616596173	0.50439453125	-0.1708984375	0.85498046875	-4.5625	-19.625	19.6875
19	02	10	17	42	54	-0.357105389007	-0.148860031411	0.196099746176	0.38427734375	-0.21484375	0.875	7.9375	-24.9375	23.75
19	02	10	17	42	54	-0.352149697341	-0.152944045327	0.195604814554	0.40869140625	-0.26953125	0.84228515625	18.75	-23.625	22.6875
19	02	10	17	42	54	-0.347582622045	-0.158197393563	0.191826546284	0.5107421875	-0.166015625	0.837890625	32.1875	-16.4375	21.3125
19	02	10	17	42	54	-0.342700554514	-0.1613713742	0.190178972015	0.4736328125	-0.11572265625	0.8564453125	14.1875	-13.1875	28.0
19	02	10	17	42	54	-0.338002815469	-0.163569437605	0.191156521858	0.5146484375	-0.1875	0.93017578125	0.625	-14.0	28.3125
19	02	10	17	42	54	-0.33317842256	-0.165704234704	0.192314564844	0.54248046875	-0.21484375	0.9052734375	1.9375	-11.5	28.3125
19	02	10	17	42	54	-0.328183090592	-0.166746550771	0.192381086395	0.4814453125	-0.2578125	0.8740234375	8.9375	-6.375	28.5
19	02	10	17	42	54	-0.322678101002	-0.167045576403	0.190604068362	0.390625	-0.228515625	0.86669921875	16.9375	-4.4375	30.6875
19	02	10	17	42	54	-0.318167061936	-0.167841822429	0.18981384282	0.41064453125	-0.18994140625	0.84228515625	9.0	-6.0	26.375
19	02	10	17	42	54	-0.314382065421	-0.168878892452	0.191094980942	0.40185546875	-0.19775390625	0.90966796875	-3.8125	-14.0	22.375
19	02	10	17	42	54	-0.311576620529	-0.171077231605	0.193110367748	0.44384765625	-0.25341796875	0.90625	-4.0	-18.4375	14.1875
19	02	10	17	42	54	-0.308828396472	-0.174188980935	0.192743098036	0.4775390625	-0.2333984375	0.8798828125	9.5	-16.375	12.5625
19	02	10	17	42	54	-0.305355928562	-0.176511961903	0.190549911847	0.4130859375	-0.26171875	0.91943359375	20.875	-14.4375	14.25
19	02	10	17	42	54	-0.302788974553	-0.179683680928	0.186702574714	0.43701171875	-0.2373046875	0.96240234375	27.8125	-15.0	7.875
19	02	10	17	42	54	-0.300706891237	-0.182303934265	0.184012842922	0.44580078125	-0.208984375	0.97900390625	18.5	-14.0625	7.0
19	02	10	17	42	54	-0.299177419632	-0.18419368675	0.183766464813	0.5126953125	-0.2724609375	0.9501953125	7.875	-10.0	5.75
19	02	10	17	42	54	-0.297414281277	-0.184869250562	0.183099290751	0.50537109375	-0.32958984375	0.94775390625	11.75	-2.6875	6.6875
19	02	10	17	42	54	-0.295210359884	-0.18401059232	0.182118609447	0.4931640625	-0.330078125	0.953125	12.3125	5.0625	10.625
19	02	10	17	42	54	-0.293393562046	-0.183164984335	0.179808078591	0.5341796875	-0.21826171875	0.9345703125	12.4375	11.4375	11.5625
19	02	10	17	42	54	-0.291911280337	-0.180651764541	0.180041454525	0.51171875	-0.205078125	0.923828125	-5.3125	15.25	14.0625
19	02	10	17	42	54	-0.289729643915	-0.177243498195	0.182309341979	0.47412109375	-0.23486328125	0.8681640625	-14.3125	15.4375	19.5
19	02	10	17	42	54	-0.286979681161	-0.174067641572	0.18572504674	0.48876953125	-0.251953125	0.79296875	-18.0	15.3125	23.375
19	02	10	17	42	54	-0.283807094461	-0.170284256677	0.188899560722	0.419921875	-0.2509765625	0.76171875	-17.0625	15.375	25.75
19	02	10	17	42	54	-0.281365155641	-0.167842554883	0.190852243316	0.447265625	-0.1572265625	0.72021484375	-14.5	14.0625	22.4375
19	02	10	17	42	54	-0.278245597351	-0.165336109503	0.194143286943	0.40380859375	-0.1015625	0.72900390625	-25.4375	8.8125	28.0625
19	02	10	17	42	54	-0.273666152524	-0.163564961812	0.199207475879	0.4228515625	-0.20361328125	0.81689453125	-28.5625	-1.25	34.4375
19	02	10	17	42	54	-0.269646757913	-0.164241608317	0.20226558527	0.416015625	-0.26611328125	0.8232421875	-11.4375	-11.1875	24.6875
19	02	10	17	42	54	-0.264456517797	-0.165888025703	0.201653435218	0.30517578125	-0.27099609375	0.8330078125	11.9375	-18.3125	25.4375
19	02	10	17	42	54	-0.258411632023	-0.168937977666	0.200247653441	0.322265625	-0.3056640625	0.85791015625	20.8125	-25.375	26.6875
19	02	10	17	42	54	-0.253654024641	-0.174432916849	0.197869669848	0.412109375	-0.27783203125	0.890625	25.75	-32.1875	18.0
19	02	10	17	42	54	-0.249203711963	-0.179502355347	0.194272695365	0.3525390625	-0.259765625	0.93994140625	29.6875	-32.875	14.4375
19	02	10	17	42	54	-0.24278585662	-0.182119908535	0.190725440407	0.27099609375	-0.14453125	0.9609375	21.875	-27.125	31.1875
19	02	10	17	42	54	-0.236015663178	-0.183588082452	0.193231339442	0.3330078125	-0.2880859375	0.96435546875	-4.4375	-27.3125	36.0625
19	02	10	17	42	54	-0.231555971583	-0.186453213808	0.193899135931	0.458984375	-0.42431640625	0.95703125	12.375	-22.4375	18.0
19	02	10	17	42	54	-0.226126767008	-0.187004700165	0.191460099353	0.35107421875	-0.3388671875	0.96630859375	23.25	-12.5625	24.25
19	02	10	17	42	55	-0.21953975793	-0.185909953476	0.192623707541	0.375	-0.3779296875	1.11376953125	2.0	-12.8125	35.5625
19	02	10	17	42	55	-0.215995016843	-0.187248576342	0.195121805269	0.71923828125	-0.43603515625	1.02978515625	-2.1875	-2.1875	21.5625
19	02	10	17	42	55	-0.2095242272	-0.182853068654	0.198416330506	0.5048828125	-0.3466796875	0.994140625	-14.5	14.375	45.25
19	02	10	17	42	55	-0.200976928856	-0.174611294703	0.20592048526	0.2802734375	-0.474609375	0.9423828125	-31.75	17.0	57.8125
19	02	10	17	42	55	-0.193661991825	-0.166745843576	0.210812644111	0.25537109375	-0.26220703125	0.83544921875	-29.75	22.1875	54.75
19	02	10	17	42	55	-0.187190199183	-0.159908158415	0.223016950705	0.50927734375	-0.2802734375	0.8857421875	-73.5	21.9375	59.8125
19	02	10	17	42	55	-0.183589502196	-0.156917756033	0.230829620115	0.7509765625	-0.12841796875	0.89990234375	-59.625	23.0625	46.0
19	02	10	17	42	55	-0.176869592229	-0.151236317993	0.237901197554	0.59033203125	-0.16552734375	0.81982421875	-50.6875	28.3125	62.75
19	02	10	17	42	55	-0.167103683574	-0.144583136007	0.239181642048	0.40478515625	-0.1962890625	0.73779296875	-11.125	29.0625	72.1875
19	02	10	17	42	55	-0.155453111792	-0.137448138106	0.238764261221	0.2412109375	-0.185546875	0.6748046875	0.8125	24.25	78.125
19	02	10	17	42	55	-0.144041178411	-0.131101886113	0.239254838717	0.2568359375	-0.130859375	0.63525390625	-6.5625	21.25	78.25
19	02	10	17	42	55	-0.133848766831	-0.124754618971	0.244138197595	0.2890625	-0.15283203125	0.6328125	-32.625	21.125	74.0625
19	02	10	17	42	55	-0.12450727677	-0.118709143783	0.250906575883	0.26123046875	-0.2685546875	0.677734375	-40.0625	16.8125	67.375
19	02	10	17	42	55	-0.11505094444	-0.114013349716	0.255126232233	0.236328125	-0.3271484375	0.7265625	-23.125	9.125	62.875
19	02	10	17	42	55	-0.105586276749	-0.110896106851	0.256397658162	0.1875	-0.39794921875	0.8125	-4.3125	-0.875	56.8125
19	02	10	17	42	55	-0.0971045801239	-0.108945113464	0.255059736227	0.134765625	-0.380859375	0.865234375	8.0	-7.75	46.6875
19	02	10	17	42	55	-0.0893547374325	-0.10742099582	0.25481969179	0.1181640625	-0.44677734375	0.8701171875	4.5	-10.5	40.9375
19	02	10	17	42	55	-0.0828213894346	-0.106563114188	0.254750537583	0.07666015625	-0.5380859375	0.90771484375	7.0625	-15.8125	30.8125
19	02	10	17	42	55	-0.077510100074	-0.107110413882	0.255111982921	0.2099609375	-0.55126953125	1.00390625	1.5625	-15.3125	25.9375
19	02	10	17	42	55	-0.0733629345144	-0.109128890942	0.254878215085	0.359375	-0.58984375	1.13037109375	2.5	-15.3125	21.6875
19	02	10	17	42	55	-0.0692134966719	-0.110961320061	0.255430761527	0.40576171875	-0.65576171875	1.21484375	-1.5625	-13.3125	22.5
19	02	10	17	42	55	-0.0648785213356	-0.112240452245	0.25310557665	0.40478515625	-0.63037109375	1.068359375	19.25	-6.5	23.25
19	02	10	17	42	55	-0.0580428587294	-0.109555132933	0.250603551991	0.23828125	-0.6044921875	1.10302734375	18.8125	2.5	37.75
19	02	10	17	42	55	-0.05193871275	-0.107661444525	0.25188139544	0.25927734375	-0.68896484375	1.1767578125	-1.4375	-2.6875	34.4375
19	02	10	17	42	55	-0.0480951984994	-0.110106266615	0.254941172756	0.43701171875	-0.68408203125	1.171875	-13.6875	-13.5625	22.6875
19	02	10	17	42	55	-0.0450428799768	-0.111996862815	0.255181952823	0.48876953125	-0.4853515625	0.95166015625	-2.4375	-2.1875	22.5625
19	02	10	17	42	55	-0.0382078072628	-0.108764077544	0.253721812766	0.25390625	-0.3193359375	0.80322265625	4.875	11.125	44.875
19	02	10	17	42	55	-0.0316756142429	-0.105646412822	0.251940145655	0.1806640625	-0.240234375	0.79345703125	2.4375	7.3125	42.125
19	02	10	17	42	55	-0.0263058510539	-0.105711679873	0.251217825842	0.2607421875	-0.263671875	0.728515625	-1.0	-3.3125	33.875
19	02	10	17	42	55	-0.0189206411694	-0.106199727854	0.251217287269	0.2470703125	-0.35205078125	0.787109375	-0.8125	-10.5	43.125
19	02	10	17	42	55	-0.0137323962922	-0.108089217037	0.247061067514	0.224609375	-0.2470703125	0.72900390625	18.375	-14.5	27.0
19	02	10	17	42	55	-0.00738525949124	-0.110717857166	0.245544619283	0.21044921875	-0.318359375	0.75537109375	6.625	-21.9375	32.4375
19	02	10	17	42	55	-0.000915489149068	-0.114558208853	0.241139841865	0.23291015625	-0.21826171875	0.76806640625	17.6875	-27.6875	31.75
