19	03	23	12	12	38	0.542400035459	0.404083753628	0.476110767115	0.05419921875	1.0859375	0.20068359375	-2.0625	19.25	-12.4375
19	03	23	12	12	38	0.54343062114	0.399683669238	0.476348710252	-0.01171875	1.05517578125	0.17724609375	-25.3125	17.3125	-13.9375
19	03	23	12	12	38	0.545434255128	0.392961698132	0.475240724085	0.01025390625	0.94580078125	0.22412109375	-40.0	22.125	-16.375
19	03	23	12	12	38	0.546553668966	0.386750507769	0.475808113646	-0.015625	0.8681640625	0.19482421875	-29.5	26.0625	-17.125
19	03	23	12	12	39	0.546901859284	0.381061195035	0.477379401949	-0.04052734375	0.82177734375	0.2001953125	-20.375	27.8125	-15.4375
19	03	23	12	12	39	0.54599647432	0.376368279559	0.480867548875	-0.04296875	0.85888671875	0.20263671875	-5.9375	31.5625	-17.125
19	03	23	12	12	39	0.545135923472	0.371542085564	0.486660924627	-0.10302734375	0.84375	0.18115234375	5.8125	34.1875	-25.25
19	03	23	12	12	39	0.545452340527	0.365873022507	0.492347647571	-0.19189453125	0.84765625	0.20166015625	3.5	30.3125	-27.75
19	03	23	12	12	39	0.546534460565	0.360673679638	0.497520927861	-0.240234375	0.9169921875	0.20751953125	2.5625	23.4375	-28.375
19	03	23	12	12	39	0.548431188619	0.355610473555	0.500943212576	-0.26611328125	0.96337890625	0.23095703125	-4.8125	16.125	-24.8125
19	03	23	12	12	39	0.549892128556	0.350541735409	0.503259029853	-0.2548828125	0.9541015625	0.25146484375	-10.3125	17.0625	-18.5
19	03	23	12	12	39	0.55003104652	0.347073191712	0.505349798484	-0.24169921875	0.9375	0.29150390625	-1.5625	16.875	-8.75
19	03	23	12	12	39	0.547512600856	0.345720331243	0.509424767753	-0.17578125	0.845703125	0.17724609375	12.6875	22.625	-3.125
19	03	23	12	12	39	0.547083986217	0.342789653753	0.512536453449	-0.3212890625	0.8876953125	0.23681640625	4.375	16.75	-4.5625
19	03	23	12	12	39	0.5468907671	0.341501544858	0.514419127803	-0.31982421875	0.93603515625	0.24560546875	5.625	7.0	0.8125
19	03	23	12	12	39	0.547464371919	0.340845250618	0.514686094773	-0.23828125	0.87451171875	0.2802734375	2.9375	0.0	-0.8125
19	03	23	12	12	39	0.546645079822	0.342355097446	0.516187744535	-0.24560546875	0.87646484375	0.2822265625	20.1875	-1.0625	5.0
19	03	23	12	12	39	0.544467714887	0.344870245416	0.517854718957	-0.20556640625	0.98046875	0.22607421875	20.125	1.125	9.8125
19	03	23	12	12	39	0.542880908689	0.34603011821	0.518282189755	-0.16162109375	1.00244140625	0.236328125	7.125	3.375	7.875
19	03	23	12	12	39	0.541643517402	0.346446766371	0.518388369765	-0.1396484375	1.0087890625	0.22314453125	0.75	5.0	4.8125
19	03	23	12	12	39	0.541102326471	0.345658485595	0.517541638595	-0.138671875	0.99267578125	0.21826171875	-10.5	5.25	4.125
19	03	23	12	12	39	0.541176873447	0.344568401828	0.515967528902	-0.1279296875	0.95751953125	0.23583984375	-14.3125	3.1875	3.4375
19	03	23	12	12	39	0.54024281523	0.344800775419	0.515400557203	-0.10498046875	0.9560546875	0.224609375	-3.5	3.5	4.4375
19	03	23	12	12	39	0.53878243188	0.345597159772	0.515649029627	-0.10107421875	0.99755859375	0.201171875	1.625	4.625	4.125
19	03	23	12	12	39	0.5377355873	0.34571332196	0.516067467721	-0.1416015625	1.00927734375	0.1787109375	-1.9375	4.75	2.5625
19	03	23	12	12	39	0.537556113293	0.34522736196	0.515765772377	-0.16845703125	0.9853515625	0.18212890625	-8.0	1.9375	2.25
19	03	23	12	12	39	0.537509846754	0.344931653873	0.515047477505	-0.1484375	0.93505859375	0.189453125	-8.0625	0.125	2.9375
19	03	23	12	12	39	0.537264813812	0.34505316888	0.514680403325	-0.1396484375	0.912109375	0.208984375	-2.6875	0.25	2.5625
19	03	23	12	12	39	0.536649988633	0.345416547506	0.515286533672	-0.1513671875	0.91015625	0.20556640625	4.0625	1.875	1.375
19	03	23	12	12	39	0.536400903674	0.345413372086	0.51589217545	-0.18798828125	0.9296875	0.21875	3.0	1.5	0.9375
19	03	23	12	12	39	0.536157705965	0.345230872602	0.516198283168	-0.1865234375	0.9365234375	0.23193359375	1.75	2.0	2.0
19	03	23	12	12	39	0.53646952961	0.34431956042	0.516204666278	-0.2138671875	0.94970703125	0.25732421875	-2.375	1.9375	0.75
19	03	23	12	12	39	0.536841097438	0.343529470879	0.516270835944	-0.27392578125	0.9462890625	0.2646484375	-0.75	0.4375	4.125
19	03	23	12	12	39	0.537330561393	0.3430418897	0.516760255907	-0.357421875	0.9755859375	0.279296875	3.875	-2.1875	7.25
19	03	23	12	12	39	0.536659778925	0.343164385477	0.516699844018	-0.30224609375	0.91015625	0.3017578125	5.25	1.0625	14.3125
19	03	23	12	12	39	0.534703109441	0.344444023582	0.517001750796	-0.306640625	0.9228515625	0.31494140625	13.0	2.625	22.5
19	03	23	12	12	39	0.532153887658	0.346162502513	0.517992416915	-0.31982421875	0.93212890625	0.2333984375	13.1875	3.5	24.1875
19	03	23	12	12	39	0.530005801813	0.345422415347	0.518469340158	-0.39404296875	0.900390625	0.28662109375	2.8125	10.9375	27.125
19	03	23	12	12	39	0.526099781814	0.344018838648	0.520728302432	-0.4775390625	0.91943359375	0.2421875	6.3125	23.0	34.0625
19	03	23	12	12	39	0.521322132703	0.346205261292	0.521322132703	-0.40185546875	1.21826171875	0.29052734375	11.75	10.375	43.75
19	03	23	12	12	39	0.519449201013	0.352077907338	0.514138733271	0.044921875	1.12353515625	0.50048828125	0.25	-21.125	38.9375
19	03	23	12	12	39	0.515239013381	0.361723302132	0.509501249223	0.123046875	0.98046875	0.4111328125	29.0625	-25.25	42.0625
19	03	23	12	12	39	0.508759851954	0.3703844969	0.509309202724	-0.1787109375	0.88134765625	0.2529296875	41.75	-10.9375	55.75
19	03	23	12	12	39	0.505944289116	0.363786700824	0.512353283006	-0.88623046875	0.78662109375	0.18505859375	-13.0	35.9375	50.6875
19	03	23	12	12	39	0.504104862772	0.351207092915	0.507339825567	-1.912109375	0.50146484375	0.18505859375	-89.125	61.0	18.375
19	03	23	12	12	39	0.508444849223	0.340102605026	0.497335970164	-0.80224609375	0.419921875	0.14208984375	-106.625	15.75	17.25
19	03	23	12	12	39	0.511698319996	0.340420079997	0.486427759996	0.46435546875	1.74609375	0.3056640625	-76.4375	-20.0625	-13.875
19	03	23	12	12	39	0.507420658369	0.352319504403	0.468599590316	1.158203125	0.51318359375	0.22998046875	-45.25	-37.125	36.1875
19	03	23	12	12	39	0.493598308024	0.377935046777	0.471869484275	0.5244140625	1.0068359375	0.02392578125	127.0625	-56.1875	85.125
19	03	23	12	12	39	0.477196572836	0.396137855935	0.475304388932	0.7353515625	1.02734375	-0.24169921875	68.6875	-0.5	50.375
19	03	23	12	12	39	0.474577555054	0.383934768011	0.485808715199	-0.8330078125	0.87255859375	-0.07275390625	-12.5625	69.375	14.5625
19	03	23	12	12	39	0.477013213012	0.367693870145	0.480980693351	-2.05810546875	0.65576171875	-0.07080078125	-98.625	63.625	-12.1875
19	03	23	12	12	39	0.480253040519	0.359396276382	0.462979068675	-0.009765625	1.32177734375	0.3173828125	-140.1875	4.625	46.3125
19	03	23	12	12	39	0.486184564603	0.356596387496	0.447057846974	1.64453125	0.34521484375	0.55712890625	-100.9375	-32.5	25.375
19	03	23	12	12	40	0.482502389639	0.367751663198	0.450213488423	0.31201171875	0.53955078125	0.52783203125	87.3125	-29.8125	1.8125
19	03	23	12	12	40	0.475614148063	0.379722229864	0.460354453887	-0.0927734375	1.39501953125	0.240234375	105.75	-18.3125	13.8125
19	03	23	12	12	40	0.475615508087	0.383507730661	0.463773951546	0.06494140625	1.1572265625	0.25048828125	29.75	-14.8125	-10.625
19	03	23	12	12	40	0.475868456124	0.382843375681	0.464637081583	-0.05078125	1.0224609375	0.2138671875	-3.5625	1.375	1.125
19	03	23	12	12	40	0.477331738244	0.377531560235	0.465123765399	-0.29345703125	0.92236328125	0.21044921875	-24.4375	14.5	6.3125
19	03	23	12	12	40	0.478176777231	0.372152643704	0.463954771985	-0.212890625	0.8935546875	0.2314453125	-32.625	16.5625	10.8125
19	03	23	12	12	40	0.479142822288	0.367688708466	0.461930303066	-0.17236328125	0.81005859375	0.29833984375	-27.75	11.0	11.4375
19	03	23	12	12	40	0.480236136163	0.364937958581	0.461009600462	-0.18896484375	0.76171875	0.341796875	-10.6875	3.0	8.75
19	03	23	12	12	40	0.480136569299	0.364832986867	0.461153290243	-0.119140625	0.79736328125	0.3818359375	8.5625	-2.1875	9.5
19	03	23	12	12	40	0.480002225635	0.36555612021	0.461690848767	-0.10986328125	0.82568359375	0.36328125	12.625	-5.5	8.625
19	03	23	12	12	40	0.479836731694	0.366485146558	0.461951963549	-0.091796875	0.85107421875	0.33984375	9.9375	-6.625	8.9375
19	03	23	12	12	40	0.479633449934	0.367751531669	0.462909147913	-0.07958984375	0.876953125	0.3154296875	13.4375	-6.625	6.0
19	03	23	12	12	40	0.478731902251	0.370020756273	0.463288937662	-0.04541015625	1.0400390625	0.29541015625	9.875	-8.3125	11.6875
19	03	23	12	12	40	0.47768476001	0.372149754891	0.461997948954	0.080078125	0.93017578125	0.283203125	1.5	-6.875	10.875
19	03	23	12	12	40	0.477136212818	0.372577643986	0.46230391146	0.0712890625	0.95068359375	0.25927734375	1.4375	1.0	0.4375
19	03	23	12	12	40	0.475626407309	0.373689022785	0.463784579406	0.03466796875	1.01806640625	0.279296875	11.3125	2.5625	4.3125
19	03	23	12	12	40	0.474888967044	0.374478639179	0.462375825881	0.07568359375	0.951171875	0.279296875	-5.3125	-1.8125	8.8125
19	03	23	12	12	40	0.473837706124	0.375749699716	0.461935303355	0.1123046875	0.8955078125	0.2763671875	3.5	-1.1875	4.6875
19	03	23	12	12	40	0.473179535978	0.37618749745	0.463169029799	0.005859375	0.90283203125	0.26953125	8.625	1.25	1.75
19	03	23	12	12	40	0.472687098394	0.376367335834	0.464385775385	-0.00244140625	0.96630859375	0.25927734375	5.6875	1.6875	1.1875
19	03	23	12	12	40	0.472691060098	0.375882173048	0.464511746817	-0.009765625	0.94482421875	0.28564453125	-1.3125	1.3125	2.9375
19	03	23	12	12	40	0.47238866032	0.375396079722	0.464270338596	-0.013671875	0.916015625	0.29541015625	-1.8125	2.25	6.125
19	03	23	12	12	40	0.471903418934	0.374910205548	0.464212327124	0.0205078125	0.91845703125	0.3017578125	-0.625	3.5625	4.0625
19	03	23	12	12	40	0.471653339457	0.374173025866	0.464389621662	0.0087890625	0.92578125	0.31689453125	0.5	4.0625	2.5625
19	03	23	12	12	40	0.471153831478	0.373736871374	0.464073400794	0.068359375	0.96826171875	0.31005859375	-2.5625	4.4375	2.25
19	03	23	12	12	40	0.470971312605	0.372821770009	0.463280490238	0.083984375	0.93017578125	0.3056640625	-7.0	4.6875	0.8125
19	03	23	12	12	40	0.470677318039	0.372098162464	0.463108392162	0.083984375	0.90185546875	0.2861328125	-3.25	5.3125	-1.25
19	03	23	12	12	40	0.470368332232	0.371973088064	0.46395921273	0.04736328125	0.91845703125	0.27099609375	3.5	3.125	-1.75
19	03	23	12	12	40	0.470053267487	0.372575658323	0.464071548202	0.04443359375	0.9443359375	0.2587890625	1.25	-1.5625	2.3125
19	03	23	12	12	40	0.469629229968	0.373493794928	0.464013699794	0.07763671875	0.89892578125	0.2314453125	0.875	-2.0625	1.5625
19	03	23	12	12	40	0.469281931749	0.374058230718	0.465924685879	0.0009765625	0.90234375	0.23291015625	10.625	0.0	-2.375
19	03	23	12	12	40	0.468890477959	0.374526421863	0.46718142649	0.02294921875	0.9609375	0.23388671875	5.6875	0.5	-0.5
19	03	23	12	12	40	0.468590657607	0.374957979638	0.467125739568	0.06396484375	0.98486328125	0.25927734375	-0.5625	-0.6875	1.375
19	03	23	12	12	40	0.467740120599	0.375571572758	0.466458306358	0.08056640625	0.92578125	0.2705078125	-1.125	0.375	6.0
19	03	23	12	12	40	0.465735715374	0.376861377027	0.466468196184	0.1513671875	0.93359375	0.2744140625	5.75	4.0625	6.125
19	03	23	12	12	40	0.464450303967	0.377163678303	0.466830848303	0.1328125	0.990234375	0.2744140625	2.625	5.875	1.125
19	03	23	12	12	40	0.464202510093	0.376428255061	0.465972644582	0.09326171875	0.99951171875	0.29248046875	-7.875	4.1875	2.0
19	03	23	12	12	40	0.463402527074	0.376178842776	0.464928483762	0.10791015625	0.9560546875	0.28759765625	-6.6875	4.3125	5.0625
19	03	23	12	12	40	0.462194892912	0.376372650514	0.46500273299	0.08349609375	0.94482421875	0.29150390625	2.375	4.6875	5.25
19	03	23	12	12	40	0.461107311872	0.376381742786	0.466051671451	0.03271484375	0.97021484375	0.27294921875	5.375	4.9375	3.8125
19	03	23	12	12	40	0.460538323473	0.376304673851	0.466886366633	0.0029296875	0.98388671875	0.2744140625	3.375	2.6875	3.8125
19	03	23	12	12	40	0.460530447074	0.375932011071	0.46626800334	0.04541015625	0.9638671875	0.28076171875	-5.3125	0.8125	3.4375
19	03	23	12	12	40	0.460767818567	0.375316110262	0.466200105738	0.0244140625	0.91796875	0.302734375	-0.9375	1.0	0.5
19	03	23	12	12	40	0.460595361371	0.375019599823	0.467614771199	-0.0205078125	0.9541015625	0.2841796875	7.25	2.25	0.3125
19	03	23	12	12	40	0.460587402627	0.374707933306	0.468400175955	-0.00390625	0.96923828125	0.28076171875	2.9375	1.1875	0.625
19	03	23	12	12	40	0.46078438545	0.374169861281	0.468353237456	0.0517578125	0.96337890625	0.28369140625	-2.8125	1.5625	-1.3125
19	03	23	12	12	40	0.461279053991	0.373076297207	0.468725930342	0.02294921875	0.94873046875	0.27978515625	-2.5	3.0	-3.375
19	03	23	12	12	40	0.461329149275	0.372518099765	0.469142080091	0.06201171875	0.95166015625	0.2607421875	-1.4375	3.4375	-3.0
19	03	23	12	12	40	0.461330816495	0.372092174829	0.469815201715	0.0537109375	0.92919921875	0.2509765625	0.3125	2.875	-3.5
19	03	23	12	12	40	0.460839831532	0.37209001497	0.470728050434	0.048828125	0.93994140625	0.23974609375	3.125	2.875	-0.75
19	03	23	12	12	41	0.460226686199	0.372026744348	0.471213530166	0.0771484375	0.94140625	0.22998046875	-0.25	4.125	-0.1875
19	03	23	12	12	41	0.459869281684	0.371118294749	0.472260237907	0.041015625	0.9365234375	0.2158203125	-1.6875	7.0625	-2.875
19	03	23	12	12	41	0.459977319321	0.369642070834	0.472917233293	-0.00634765625	0.93212890625	0.23291015625	-5.125	6.875	-1.6875
19	03	23	12	12	41	0.459745391041	0.36867527375	0.473112921662	0.0361328125	0.94140625	0.2333984375	-5.6875	5.9375	0.3125
19	03	23	12	12	41	0.459504546252	0.367762339422	0.473543606512	0.02392578125	0.9267578125	0.23583984375	-3.5	5.5625	-0.25
19	03	23	12	12	41	0.459449305685	0.366668258171	0.474770386558	-0.0185546875	0.92236328125	0.23583984375	0.125	5.875	-1.9375
19	03	23	12	12	41	0.459930542789	0.365319747657	0.475861779905	-0.02880859375	0.9443359375	0.23828125	-2.25	4.75	-4.1875
19	03	23	12	12	41	0.460958030471	0.364151961042	0.476034385546	-0.00439453125	0.966796875	0.24951171875	-6.3125	0.8125	-5.0625
19	03	23	12	12	41	0.462434385401	0.363001226238	0.475374735151	0.00927734375	0.89208984375	0.2763671875	-7.875	-2.0	-5.6875
19	03	23	12	12	41	0.463117093097	0.362826941	0.475996717012	0.021484375	0.88427734375	0.27001953125	3.1875	-1.5	-5.8125
19	03	23	12	12	41	0.463533817107	0.362696594845	0.47763393717	-0.00390625	0.88427734375	0.275390625	10.0	0.0	-7.125
19	03	23	12	12	41	0.463717794231	0.362575187276	0.479954326187	-0.04443359375	0.90283203125	0.2548828125	12.5	1.0625	-5.8125
19	03	23	12	12	41	0.464029716793	0.362092117866	0.481243131702	-0.029296875	0.9365234375	0.22509765625	2.3125	1.5625	-4.1875
19	03	23	12	12	41	0.464691719023	0.360925014394	0.481416470239	-0.01513671875	0.9013671875	0.2314453125	-6.0625	2.5625	-3.5625
19	03	23	12	12	41	0.465184921389	0.359402810279	0.482398167397	-0.0458984375	0.884765625	0.21875	-3.0	5.125	-4.375
19	03	23	12	12	41	0.465664212424	0.357808836444	0.483792705161	-0.056640625	0.90380859375	0.21435546875	-1.5	6.0	-5.8125
19	03	23	12	12	41	0.46608615659	0.356400873275	0.485496240115	-0.05810546875	0.9375	0.2138671875	0.0625	5.6875	-6.5
19	03	23	12	12	41	0.466760032626	0.354754715526	0.487024754848	-0.091796875	0.92724609375	0.22314453125	-0.875	4.875	-5.9375
19	03	23	12	12	41	0.467448480835	0.353180583718	0.488690589914	-0.08642578125	0.94921875	0.23486328125	0.6875	4.9375	-6.75
19	03	23	12	12	41	0.46803156512	0.35108471082	0.4907373218	-0.10546875	0.93994140625	0.2421875	1.5625	8.0	-7.75
19	03	23	12	12	41	0.46882211682	0.348457943617	0.493297793014	-0.13818359375	0.94970703125	0.25439453125	3.0	9.8125	-10.0625
19	03	23	12	12	41	0.470245545944	0.345115305915	0.495210554808	-0.1494140625	0.95556640625	0.27490234375	-2.1875	9.5625	-11.6875
19	03	23	12	12	41	0.471959126762	0.341456202161	0.496741253698	-0.169921875	0.94775390625	0.28662109375	-5.1875	9.125	-11.4375
19	03	23	12	12	41	0.472686962788	0.338461932936	0.498262355015	-0.1611328125	0.93603515625	0.30029296875	-1.5	10.5625	-6.0
19	03	23	12	12	41	0.472794992178	0.336071420983	0.499407258715	-0.1572265625	0.93896484375	0.28515625	-2.125	9.8125	-1.0
19	03	23	12	12	41	0.472801966686	0.334184194114	0.500025007887	-0.134765625	0.90283203125	0.2939453125	-1.875	7.8125	1.1875
19	03	23	12	12	41	0.472513045763	0.332730734073	0.501629274006	-0.1591796875	0.9208984375	0.265625	3.3125	7.5625	0.75
19	03	23	12	12	41	0.473095270068	0.331001890025	0.502820130928	-0.1943359375	0.9013671875	0.248046875	-0.875	4.25	-0.6875
19	03	23	12	12	41	0.473527065881	0.329479131429	0.504106733322	-0.1787109375	0.91796875	0.24658203125	0.4375	4.25	-1.375
19	03	23	12	12	41	0.474148908275	0.327594900967	0.505583857781	-0.2041015625	0.90087890625	0.2490234375	0.125	5.0625	-2.125
19	03	23	12	12	41	0.474451899438	0.325884303499	0.507412664354	-0.2216796875	0.91455078125	0.2568359375	3.625	5.8125	-1.0
19	03	23	12	12	41	0.474641533934	0.324301757946	0.509006655282	-0.2236328125	0.93359375	0.259765625	2.625	5.375	0.6875
19	03	23	12	12	41	0.475000886269	0.322893175066	0.509731740071	-0.1953125	0.93798828125	0.26513671875	-1.5	3.4375	1.25
19	03	23	12	12	41	0.475128867561	0.321737443591	0.510409505466	-0.17236328125	0.92333984375	0.28125	0.8125	3.6875	1.875
19	03	23	12	12	41	0.475056693728	0.320631223456	0.511191033018	-0.173828125	0.9052734375	0.28076171875	1.625	4.3125	2.375
19	03	23	12	12	41	0.474814083563	0.319960846643	0.511986184975	-0.177734375	0.9130859375	0.2666015625	2.25	3.3125	4.125
19	03	23	12	12	41	0.474329879081	0.319536342426	0.512845147863	-0.1669921875	0.87646484375	0.25439453125	3.9375	3.1875	5.125
19	03	23	12	12	41	0.473900682697	0.319168813733	0.514613170508	-0.17529296875	0.89306640625	0.2392578125	8.125	3.8125	1.3125
19	03	23	12	12	41	0.473908010084	0.318563357113	0.516330223764	-0.205078125	0.90625	0.22900390625	6.625	2.5625	0.75
19	03	23	12	12	41	0.473977878123	0.318325129995	0.517377526719	-0.18603515625	0.9169921875	0.2158203125	3.0625	-0.1875	2.25
19	03	23	12	12	41	0.473977750971	0.318202964045	0.518354032356	-0.185546875	0.89794921875	0.208984375	3.0	-0.3125	2.625
19	03	23	12	12	41	0.473660995445	0.318134163435	0.52005047438	-0.18798828125	0.912109375	0.1962890625	6.875	1.25	1.9375
19	03	23	12	12	41	0.473355306816	0.317950714791	0.52200317007	-0.1953125	0.93798828125	0.205078125	8.125	2.5	0.625
19	03	23	12	12	41	0.473290827805	0.317399059142	0.523586371023	-0.20703125	0.96142578125	0.21923828125	4.875	2.5625	0.9375
19	03	23	12	12	41	0.473223155123	0.316723197721	0.524067330051	-0.16796875	0.96630859375	0.240234375	-0.4375	2.4375	2.3125
19	03	23	12	12	41	0.472985246077	0.315933879687	0.524379435934	-0.14697265625	0.93896484375	0.259765625	-0.5625	4.25	2.1875
19	03	23	12	12	41	0.472747163508	0.31508339032	0.524874481473	-0.1533203125	0.9404296875	0.27197265625	1.3125	4.5625	1.875
19	03	23	12	12	41	0.472365157286	0.314218352463	0.525467326409	-0.15185546875	0.9580078125	0.25634765625	0.3125	5.375	2.0
19	03	23	12	12	41	0.472497681351	0.312760382282	0.525906216577	-0.193359375	0.9052734375	0.25390625	-2.375	4.875	1.625
19	03	23	12	12	42	0.47269443806	0.310999246115	0.526898035813	-0.22705078125	0.90625	0.2529296875	-0.0625	6.0	0.75
19	03	23	12	12	42	0.472814230732	0.309166547722	0.528238362091	-0.26611328125	0.91064453125	0.23779296875	0.6875	6.5625	1.5625
19	03	23	12	12	42	0.473176175751	0.307332565133	0.529210196564	-0.2578125	0.91748046875	0.23486328125	-1.875	5.25	1.1875
19	03	23	12	12	42	0.474076601688	0.305125393567	0.529559494817	-0.2802734375	0.86279296875	0.26220703125	-4.0625	3.4375	1.625
19	03	23	12	12	42	0.474026330114	0.304155704733	0.529998792735	-0.22265625	0.908203125	0.2802734375	1.0625	3.5625	4.4375
19	03	23	12	12	42	0.474389473554	0.302688805887	0.529934303834	-0.23046875	0.8544921875	0.29638671875	-1.5625	3.125	3.8125
19	03	23	12	12	42	0.474025229845	0.302140727238	0.529692369893	-0.1396484375	0.9365234375	0.2919921875	-1.125	3.4375	3.5
19	03	23	12	12	42	0.474457097333	0.301289107479	0.52890399439	-0.15478515625	0.86328125	0.3203125	-2.1875	0.8125	2.5625
19	03	23	12	12	42	0.47389831417	0.301527263266	0.529137620497	-0.11767578125	0.92724609375	0.30029296875	5.3125	1.875	2.8125
19	03	23	12	12	42	0.473122859209	0.301843960623	0.529768197017	-0.130859375	0.916015625	0.2802734375	7.25	2.8125	3.625
19	03	23	12	12	42	0.472198728099	0.302021627021	0.531162529979	-0.1513671875	0.9423828125	0.2451171875	8.375	4.25	2.25
19	03	23	12	12	42	0.47151337558	0.301585448381	0.532550705752	-0.17578125	0.951171875	0.22265625	4.75	5.25	1.5
19	03	23	12	12	42	0.471638019148	0.300549450794	0.533530209055	-0.23583984375	0.9345703125	0.2236328125	0.375	3.25	1.375
19	03	23	12	12	42	0.471282967279	0.299763068555	0.534702602431	-0.240234375	0.96044921875	0.21630859375	1.875	4.25	3.6875
19	03	23	12	12	42	0.471167433471	0.298424353185	0.535686668758	-0.2451171875	0.9267578125	0.224609375	-0.5625	5.4375	2.8125
19	03	23	12	12	42	0.47121717302	0.2968912344	0.53701666946	-0.265625	0.94775390625	0.23828125	1.5625	5.5625	0.8125
19	03	23	12	12	42	0.471398806196	0.294998113472	0.537686402147	-0.27392578125	0.9501953125	0.265625	-2.125	6.125	2.5625
19	03	23	12	12	42	0.471643226497	0.293289207107	0.537686706641	-0.2392578125	0.943359375	0.28466796875	-4.5	4.875	2.4375
19	03	23	12	12	42	0.471594212401	0.292014847544	0.537395216927	-0.19970703125	0.9443359375	0.3125	-2.75	5.1875	3.5
19	03	23	12	12	42	0.471462794577	0.290727251498	0.537140418472	-0.19873046875	0.93994140625	0.32568359375	-1.6875	5.4375	3.5625
19	03	23	12	12	42	0.471530264036	0.289266268125	0.537208783661	-0.21484375	0.908203125	0.30712890625	-1.125	5.3125	2.3125
19	03	23	12	12	42	0.47129225623	0.288415478654	0.538009318276	-0.2001953125	0.94091796875	0.298828125	4.375	5.25	0.5625
19	03	23	12	12	42	0.470735476133	0.287617422658	0.537634605002	-0.13525390625	0.923828125	0.27001953125	-4.3125	5.4375	3.125
19	03	23	12	12	42	0.470059247228	0.287004100827	0.538849894109	-0.173828125	0.8837890625	0.255859375	5.625	6.5625	0.8125
19	03	23	12	12	42	0.469027117863	0.286702286908	0.540260153593	-0.1806640625	0.9130859375	0.2099609375	5.0	6.4375	2.8125
19	03	23	12	12	42	0.467935761696	0.287011994716	0.541245290758	-0.13916015625	0.9638671875	0.1962890625	3.25	4.1875	2.6875
19	03	23	12	12	42	0.46803925484	0.286146065035	0.541284834627	-0.2041015625	0.84765625	0.1953125	-5.0	1.6875	3.0
19	03	23	12	12	42	0.466884809788	0.286515531069	0.543366267059	-0.1953125	0.95849609375	0.16650390625	8.5625	4.3125	2.0625
19	03	23	12	12	42	0.466700220144	0.285782164624	0.544341167047	-0.24658203125	0.93408203125	0.19091796875	-0.1875	2.875	3.4375
19	03	23	12	12	42	0.46670436285	0.285113272152	0.544895350139	-0.2314453125	0.9541015625	0.21875	-0.8125	1.8125	2.0
19	03	23	12	12	42	0.466759875247	0.284194321845	0.544766821836	-0.2119140625	0.94384765625	0.26416015625	-2.875	2.75	3.0625
19	03	23	12	12	42	0.466519289511	0.283219874831	0.54440475509	-0.17333984375	0.93115234375	0.28466796875	-3.6875	4.625	2.8125
19	03	23	12	12	42	0.466223103094	0.281943507881	0.543804873719	-0.14013671875	0.9052734375	0.30517578125	-4.5625	6.9375	1.5
19	03	23	12	12	42	0.466594805953	0.279749345327	0.543750200344	-0.21142578125	0.8525390625	0.29150390625	-4.4375	7.1875	-0.9375
19	03	23	12	12	42	0.465777987063	0.279002906417	0.543723012548	-0.109375	0.92822265625	0.2705078125	-2.0	7.75	0.6875
19	03	23	12	12	42	0.466268647819	0.277295256845	0.543237461132	-0.16796875	0.79443359375	0.27587890625	-5.625	4.5	-1.375
19	03	23	12	12	42	0.46583600749	0.276742722479	0.54432986305	-0.1484375	0.890625	0.2421875	4.8125	5.5	-2.75
19	03	23	12	12	42	0.465904103163	0.275831343141	0.5450095293	-0.1591796875	0.8701171875	0.22216796875	0.0	4.1875	-3.25
19	03	23	12	12	42	0.465654497089	0.275400850815	0.545735595553	-0.14306640625	0.900390625	0.216796875	1.25	3.75	-2.8125
19	03	23	12	12	42	0.465728881991	0.274432117095	0.545995393108	-0.17333984375	0.85986328125	0.2177734375	-2.8125	3.5625	-1.375
19	03	23	12	12	42	0.465481536837	0.273636733496	0.5473955445	-0.20849609375	0.89306640625	0.2109375	3.6875	4.875	-1.75
19	03	23	12	12	42	0.465480974071	0.272293551709	0.548066308181	-0.2431640625	0.90283203125	0.21533203125	-2.4375	5.0	1.0
19	03	23	12	12	42	0.465716777683	0.270640654292	0.548911006776	-0.2470703125	0.8984375	0.23828125	-1.0625	5.625	-2.0625
19	03	23	12	12	42	0.466028229098	0.268324832366	0.549772922002	-0.271484375	0.8994140625	0.25439453125	-2.375	7.9375	-2.25
19	03	23	12	12	42	0.466701139963	0.265823105485	0.550201945543	-0.2763671875	0.90869140625	0.2734375	-4.8125	7.0	-3.125
19	03	23	12	12	42	0.467438981954	0.26362874942	0.54984204093	-0.24560546875	0.88720703125	0.29150390625	-6.875	4.6875	-1.875
19	03	23	12	12	42	0.467617387979	0.262405319269	0.549714423201	-0.22900390625	0.88330078125	0.30029296875	-1.625	4.25	1.25
19	03	23	12	12	42	0.467449755756	0.261376319424	0.550037836135	-0.216796875	0.86083984375	0.28369140625	1.125	5.125	0.875
19	03	23	12	12	42	0.467498620848	0.260026651627	0.550939098026	-0.2421875	0.89208984375	0.26318359375	2.0625	5.75	-1.5
19	03	23	12	12	42	0.467625630603	0.258625479293	0.551128027505	-0.25	0.90380859375	0.2529296875	-4.0625	4.1875	0.4375
19	03	23	12	12	42	0.46755624303	0.257827359081	0.550935071748	-0.21435546875	0.87890625	0.2578125	-3.3125	3.1875	2.3125
19	03	23	12	12	43	0.467074690842	0.257159654015	0.551431358739	-0.2119140625	0.89208984375	0.240234375	-0.0625	4.6875	1.625
19	03	23	12	12	43	0.466828588925	0.256242993764	0.551856337928	-0.2265625	0.91943359375	0.23583984375	-2.125	4.5	1.1875
19	03	23	12	12	43	0.466573615773	0.255504599114	0.551721469515	-0.22509765625	0.91162109375	0.23583984375	-5.125	2.8125	3.3125
19	03	23	12	12	43	0.466215172617	0.255081592873	0.551425486963	-0.18896484375	0.908203125	0.24853515625	-4.25	2.75	2.8125
19	03	23	12	12	43	0.465718359206	0.254588633846	0.551659571494	-0.2080078125	0.9140625	0.25439453125	-0.375	4.0625	2.75
19	03	23	12	12	43	0.465426896789	0.253802627783	0.551675841728	-0.22705078125	0.908203125	0.2646484375	-2.5625	3.75	2.9375
19	03	23	12	12	43	0.465001356489	0.253132137748	0.551555822688	-0.21826171875	0.89697265625	0.2666015625	-2.6875	3.9375	4.1875
19	03	23	12	12	43	0.464552985105	0.25257131157	0.551225595648	-0.2001953125	0.90576171875	0.2802734375	-2.875	3.8125	4.0
19	03	23	12	12	43	0.464022537508	0.25191015684	0.550942833931	-0.20361328125	0.89306640625	0.29736328125	-2.0625	4.5	4.4375
19	03	23	12	12	43	0.463575362983	0.251288975563	0.550919187134	-0.21728515625	0.89892578125	0.29296875	-0.125	4.25	3.875
19	03	23	12	12	43	0.463345517944	0.250686344645	0.551363465102	-0.240234375	0.9296875	0.283203125	1.875	3.5	2.25
19	03	23	12	12	43	0.463150867071	0.250130766112	0.551654920478	-0.23291015625	0.927734375	0.279296875	0.625	2.75	2.0
19	03	23	12	12	43	0.462668024364	0.249889563555	0.552088691343	-0.2060546875	0.93701171875	0.28173828125	2.6875	3.5	1.75
19	03	23	12	12	43	0.462118134888	0.24958407787	0.552759454437	-0.22998046875	0.9384765625	0.2861328125	4.1875	4.0	3.0625
19	03	23	12	12	43	0.461264846407	0.24946267398	0.553310286182	-0.2255859375	0.970703125	0.2783203125	2.8125	4.5625	4.375
19	03	23	12	12	43	0.460775110831	0.248973596116	0.553369605881	-0.2021484375	0.94189453125	0.27392578125	-0.9375	4.0	2.5
19	03	23	12	12	43	0.460536055138	0.248365965322	0.554047153412	-0.220703125	0.95703125	0.27783203125	2.375	4.0	-0.8125
19	03	23	12	12	43	0.460278385342	0.247748304748	0.554702289616	-0.216796875	0.95947265625	0.27880859375	2.5	4.375	-0.5625
19	03	23	12	12	43	0.459845533601	0.24719596643	0.555672118119	-0.22607421875	0.96630859375	0.26806640625	3.8125	5.0	-0.375
19	03	23	12	12	43	0.45913275035	0.246474082148	0.556123170492	-0.20751953125	0.9560546875	0.271484375	-0.0625	6.4375	1.875
19	03	23	12	12	43	0.458275480779	0.24567911696	0.556119859533	-0.181640625	0.92724609375	0.26904296875	-2.8125	7.1875	2.375
19	03	23	12	12	43	0.457419591591	0.244701780449	0.556118214436	-0.1923828125	0.89404296875	0.26123046875	-3.6875	7.8125	3.625
19	03	23	12	12	43	0.456565603232	0.243908576272	0.556668222122	-0.220703125	0.8779296875	0.2509765625	0.5625	7.0	3.4375
19	03	23	12	12	43	0.455612798092	0.24337194882	0.557429806025	-0.236328125	0.865234375	0.228515625	1.3125	6.0	5.5
19	03	23	12	12	43	0.454503472523	0.243183163381	0.558576588377	-0.23876953125	0.8642578125	0.2138671875	4.375	5.6875	5.8125
19	03	23	12	12	43	0.453758654932	0.242505129949	0.559354898278	-0.255859375	0.861328125	0.208984375	0.1875	5.0625	5.125
19	03	23	12	12	43	0.453279798228	0.241899789978	0.560343192531	-0.265625	0.8974609375	0.20947265625	1.625	4.125	3.0
19	03	23	12	12	43	0.452738653703	0.241598974161	0.561391047338	-0.24609375	0.9228515625	0.2197265625	3.3125	3.5	2.3125
19	03	23	12	12	43	0.45242987913	0.241536026945	0.562729500229	-0.2001953125	0.95849609375	0.2158203125	5.5	2.875	-3.1875
19	03	23	12	12	43	0.451951328715	0.241541249017	0.563657289216	-0.173828125	0.970703125	0.224609375	3.875	3.4375	-2.625
19	03	23	12	12	43	0.450962637875	0.241717927177	0.564252656269	-0.14306640625	0.96728515625	0.23193359375	2.4375	4.875	-0.0625
19	03	23	12	12	43	0.449799647356	0.241472032154	0.564309640359	-0.15087890625	0.92578125	0.22021484375	-3.0625	6.5	3.0625
19	03	23	12	12	43	0.448205603204	0.240979943	0.564605996137	-0.12548828125	0.9208984375	0.1943359375	-4.3125	9.6875	2.3125
19	03	23	12	12	43	0.447422440659	0.23933743381	0.564924241241	-0.19384765625	0.8564453125	0.1904296875	-6.875	9.6875	0.6875
19	03	23	12	12	43	0.446663825403	0.238163739645	0.565501549926	-0.2080078125	0.8916015625	0.19482421875	-3.6875	7.9375	1.0
19	03	23	12	12	43	0.445890563841	0.236892714342	0.566259652397	-0.2353515625	0.88818359375	0.18603515625	-3.4375	8.125	1.8125
19	03	23	12	12	43	0.445049990044	0.235557250251	0.56780345733	-0.26953125	0.89892578125	0.177734375	0.8125	9.1875	1.5625
19	03	23	12	12	43	0.444049046096	0.234079462787	0.569237306377	-0.2470703125	0.916015625	0.18359375	-0.3125	10.6875	0.1875
19	03	23	12	12	43	0.443395471097	0.23195247662	0.570725172736	-0.2734375	0.91455078125	0.19189453125	-1.4375	12.0625	-1.5625
19	03	23	12	12	43	0.442540782379	0.229816006297	0.572251011697	-0.275390625	0.93310546875	0.1865234375	-1.875	12.625	-1.0
19	03	23	12	12	43	0.44172999152	0.227975890331	0.573571470266	-0.24658203125	0.91357421875	0.19091796875	-1.5625	11.5625	-1.875
19	03	23	12	12	43	0.440693679331	0.22657270605	0.575404337266	-0.232421875	0.9248046875	0.18505859375	3.375	11.625	-2.5625
19	03	23	12	12	43	0.439856123861	0.225238564675	0.576952551031	-0.23486328125	0.9130859375	0.1787109375	1.4375	10.0	-2.125
19	03	23	12	12	43	0.438681261384	0.224376278955	0.578275535042	-0.2197265625	0.92529296875	0.1669921875	0.6875	9.1875	0.0
19	03	23	12	12	43	0.437201300799	0.223819233566	0.579293249461	-0.19921875	0.89892578125	0.1640625	-0.25	9.1875	2.6875
19	03	23	12	12	43	0.435452573363	0.223524996307	0.580481353053	-0.1748046875	0.89208984375	0.13623046875	0.0	9.25	2.625
19	03	23	12	12	43	0.433684371844	0.223342873551	0.582620313758	-0.22265625	0.9130859375	0.1376953125	7.125	9.6875	2.9375
19	03	23	12	12	43	0.431906495407	0.223094720282	0.584318948634	-0.25341796875	0.9384765625	0.12646484375	2.875	8.5625	5.5
19	03	23	12	12	43	0.430493128575	0.222540471683	0.585587845675	-0.26708984375	0.927734375	0.1416015625	0.6875	8.1875	5.75
19	03	23	12	12	43	0.428860214696	0.221693751747	0.587012337708	-0.28564453125	0.9443359375	0.140625	0.1875	10.125	6.25
19	03	23	12	12	44	0.427395559065	0.220351038021	0.588111426962	-0.28564453125	0.935546875	0.150390625	-2.75	11.0625	5.625
19	03	23	12	12	44	0.425975537583	0.218816779229	0.5890657563	-0.29833984375	0.9677734375	0.17041015625	-3.1875	11.875	5.5
19	03	23	12	12	44	0.424771722638	0.217116398538	0.589455457036	-0.28759765625	0.94775390625	0.19482421875	-5.5625	11.25	5.3125
19	03	23	12	12	44	0.42354891815	0.21577250694	0.589818878236	-0.27490234375	0.951171875	0.21923828125	-2.875	10.4375	5.6875
19	03	23	12	12	44	0.421896886328	0.214915934138	0.590240580265	-0.23779296875	0.9296875	0.21337890625	-1.3125	10.875	7.0
19	03	23	12	12	44	0.42056118589	0.213820875787	0.591105155901	-0.26513671875	0.888671875	0.19287109375	0.75	10.3125	5.375
19	03	23	12	12	44	0.418423361598	0.213759097347	0.591835581919	-0.19580078125	0.93896484375	0.1943359375	1.75	9.875	7.5
19	03	23	12	12	44	0.417136982712	0.213207415952	0.591462885935	-0.1953125	0.85693359375	0.17919921875	-6.0	7.25	6.625
19	03	23	12	12	44	0.414986793725	0.214054814766	0.593030105579	-0.16357421875	0.9462890625	0.158203125	8.375	7.375	5.25
19	03	23	12	12	44	0.413426899102	0.213885701233	0.593862439297	-0.1982421875	0.91943359375	0.12890625	-0.625	7.1875	4.6875
19	03	23	12	12	44	0.411767780166	0.214185167596	0.595799777973	-0.2080078125	1.00390625	0.12158203125	6.9375	7.0	2.0625
19	03	23	12	12	44	0.410442981373	0.213523133379	0.596985776	-0.2412109375	0.97119140625	0.10205078125	-2.0	7.9375	3.0
19	03	23	12	12	44	0.409015475603	0.212656307566	0.598782542257	-0.24462890625	1.01513671875	0.10546875	1.4375	10.0	0.625
19	03	23	12	12	44	0.407551936811	0.211192107438	0.599761169852	-0.2509765625	0.9892578125	0.103515625	-6.0	11.5	2.3125
19	03	23	12	12	44	0.406032825971	0.209486569262	0.600442710325	-0.24462890625	0.9609375	0.1318359375	-6.75	13.0	3.25
19	03	23	12	12	44	0.404144330441	0.207840423675	0.601546953103	-0.2255859375	0.9853515625	0.138671875	-3.5	15.3125	2.125
19	03	23	12	12	44	0.402246158164	0.205762033258	0.602209498702	-0.21142578125	0.9716796875	0.1494140625	-7.5	16.5	1.4375
19	03	23	12	12	44	0.40042563677	0.203631086016	0.602591750945	-0.2041015625	0.9677734375	0.1552734375	-8.625	16.5	1.3125
19	03	23	12	12	44	0.39845781562	0.20142628547	0.603058091042	-0.21240234375	0.935546875	0.15966796875	-7.75	17.375	3.0625
19	03	23	12	12	44	0.396269974695	0.199538901306	0.604171320014	-0.23388671875	0.94140625	0.15087890625	-3.0625	17.1875	3.9375
19	03	23	12	12	44	0.393939667983	0.197824366894	0.605741751636	-0.25634765625	0.93017578125	0.1337890625	-0.375	17.5	5.375
19	03	23	12	12	44	0.391917907501	0.195867398407	0.60750022323	-0.27734375	0.9287109375	0.10986328125	-0.625	16.4375	3.4375
19	03	23	12	12	44	0.389924731645	0.193924682598	0.609364213527	-0.28076171875	0.93359375	0.10009765625	-0.25	16.4375	3.5
19	03	23	12	12	44	0.388076243077	0.19190181004	0.611412350882	-0.30859375	0.92138671875	0.080078125	-0.25	16.0625	3.75
19	03	23	12	12	44	0.38550825646	0.190984061821	0.613724749636	-0.24365234375	0.97412109375	0.08837890625	5.0	15.5	4.5
19	03	23	12	12	44	0.383074139664	0.189950083275	0.614896252863	-0.2080078125	0.90869140625	0.07421875	-3.375	14.25	5.625
19	03	23	12	12	44	0.380518239061	0.189648727745	0.617411291001	-0.19873046875	0.94287109375	0.07177734375	8.375	13.8125	3.1875
19	03	23	12	12	44	0.377943349073	0.189154786624	0.619163005975	-0.20166015625	0.94189453125	0.056640625	1.4375	13.0625	5.25
19	03	23	12	12	44	0.375505363897	0.189034478542	0.620999930475	-0.2119140625	0.9677734375	0.05615234375	3.375	11.1875	5.625
19	03	23	12	12	44	0.372583420707	0.189038475414	0.622416962802	-0.18408203125	0.96533203125	0.0517578125	0.625	12.8125	8.3125
19	03	23	12	12	44	0.369658629086	0.188430678333	0.624073616871	-0.17919921875	0.9833984375	0.06298828125	0.9375	15.4375	5.25
19	03	23	12	12	44	0.366962231859	0.186899260471	0.624849029864	-0.19580078125	0.97998046875	0.07470703125	-7.0	17.375	5.1875
19	03	23	12	12	44	0.363919688818	0.185622236447	0.625109280976	-0.16845703125	0.96533203125	0.083984375	-9.125	17.5	7.625
19	03	23	12	12	44	0.36030075927	0.18469762791	0.625628118332	-0.14892578125	0.9384765625	0.08447265625	-6.625	19.1875	10.125
19	03	23	12	12	44	0.356708691975	0.183481575646	0.627047979578	-0.19482421875	0.95458984375	0.0654296875	-1.875	20.1875	9.5625
19	03	23	12	12	44	0.353541044186	0.182080962501	0.628585233602	-0.208984375	0.97998046875	0.0537109375	-2.0625	19.1875	7.0
19	03	23	12	12	44	0.351160991917	0.18025002766	0.629990022175	-0.23974609375	0.98388671875	0.0419921875	-4.5	17.1875	4.4375
19	03	23	12	12	44	0.348643994049	0.178838743446	0.631428942304	-0.23046875	0.99462890625	0.0498046875	-2.375	16.0	5.25
19	03	23	12	12	44	0.345791358427	0.177870435738	0.633106437705	-0.20654296875	0.99755859375	0.052734375	1.0	16.3125	6.0625
19	03	23	12	12	44	0.343164602196	0.176831706254	0.634506588371	-0.20556640625	0.9716796875	0.06396484375	0.125	15.9375	5.875
19	03	23	12	12	44	0.340341757868	0.175603163089	0.635882430679	-0.19580078125	0.9697265625	0.0673828125	-0.1875	16.75	5.6875
19	03	23	12	12	44	0.337902575488	0.174383608774	0.636741269418	-0.208984375	0.9501953125	0.078125	-2.5	15.3125	6.6875
19	03	23	12	12	44	0.334985239074	0.173474498806	0.637924696349	-0.16455078125	0.966796875	0.07275390625	-0.0625	16.4375	5.75
19	03	23	12	12	44	0.332237676069	0.172009144068	0.639693339188	-0.18701171875	0.98974609375	0.06298828125	2.25	18.375	2.8125
19	03	23	12	12	44	0.328994322887	0.170600952221	0.641569448583	-0.16015625	1.04833984375	0.04736328125	1.75	20.4375	2.625
19	03	23	12	12	44	0.325579237384	0.169137620321	0.642796203392	-0.1376953125	1.015625	0.0263671875	-4.4375	20.5	3.75
19	03	23	12	12	44	0.322215585806	0.167791370597	0.643515613025	-0.10791015625	1.001953125	0.02490234375	-7.8125	19.4375	3.875
19	03	23	12	12	44	0.318856103032	0.16644728043	0.643815883381	-0.10888671875	0.92724609375	0.03271484375	-9.5	19.3125	6.0
19	03	23	12	12	44	0.315574343188	0.165233993619	0.64494361898	-0.171875	0.9638671875	0.025390625	-3.4375	18.375	7.8125
19	03	23	12	12	44	0.312386298761	0.164188969064	0.64576925379	-0.171875	0.8876953125	0.0107421875	-5.5	17.0625	9.75
19	03	23	12	12	45	0.309289825773	0.162976876814	0.647207425039	-0.15673828125	0.90478515625	0.01611328125	-0.875	18.125	6.1875
19	03	23	12	12	45	0.306418695889	0.161327612198	0.648606586159	-0.19384765625	0.95654296875	0.021484375	-1.6875	18.5625	5.75
19	03	23	12	12	45	0.303486383021	0.160349703981	0.649211820155	-0.17919921875	0.974609375	0.041015625	-4.8125	15.9375	9.125
19	03	23	12	12	45	0.300740389017	0.159922837269	0.64976282547	-0.15087890625	0.98486328125	0.06201171875	-2.0	13.1875	8.25
19	03	23	12	12	45	0.298113409293	0.159128103609	0.650917566892	-0.1591796875	1.03076171875	0.06201171875	1.3125	14.625	5.125
19	03	23	12	12	45	0.295852930223	0.157784160228	0.651706568185	-0.17236328125	1.0673828125	0.0791015625	-1.0625	15.3125	2.6875
19	03	23	12	12	45	0.29328097832	0.156497903936	0.652115290816	-0.150390625	1.09521484375	0.0966796875	-3.25	16.3125	3.9375
19	03	23	12	12	45	0.290421012301	0.154915621946	0.651707681449	-0.13427734375	1.03466796875	0.103515625	-9.375	18.0625	6.1875
19	03	23	12	12	45	0.287307612829	0.153145273123	0.651584611631	-0.15087890625	0.99462890625	0.11376953125	-7.0	19.9375	7.3125
19	03	23	12	12	45	0.28389373189	0.151499514631	0.651655446497	-0.1708984375	0.990234375	0.09912109375	-6.5	20.9375	10.5
19	03	23	12	12	45	0.280535574919	0.149789882692	0.651897288976	-0.13671875	0.947265625	0.10107421875	-4.6875	21.125	7.8125
19	03	23	12	12	45	0.277050813068	0.147650565502	0.652921909537	-0.11572265625	0.95947265625	0.08251953125	-0.8125	23.8125	3.75
19	03	23	12	12	45	0.27381305511	0.145451741045	0.654014018169	-0.1240234375	0.98046875	0.07568359375	-1.25	23.0625	2.625
19	03	23	12	12	45	0.270341905861	0.144174211254	0.655009932669	-0.09521484375	0.94677734375	0.06494140625	0.0625	20.1875	5.0625
19	03	23	12	12	45	0.266918502185	0.143072711896	0.656217886347	-0.10888671875	0.95263671875	0.0283203125	-0.1875	19.0625	6.1875
19	03	23	12	12	45	0.263141709046	0.142344343655	0.658006871611	-0.11328125	0.91943359375	-0.001953125	3.25	18.9375	8.75
19	03	23	12	12	45	0.259598831799	0.141427343823	0.660319812463	-0.14111328125	0.91259765625	-0.04296875	4.625	18.375	8.0625
19	03	23	12	12	45	0.256361069848	0.140754435017	0.662815442258	-0.17626953125	0.9208984375	-0.05908203125	5.8125	16.375	9.3125
19	03	23	12	12	45	0.25306337634	0.140631456606	0.665313748698	-0.16357421875	0.9775390625	-0.05126953125	8.0	14.375	10.375
19	03	23	12	12	45	0.25031816502	0.140754374186	0.667454068396	-0.162109375	1.02197265625	-0.02587890625	8.25	10.875	9.1875
19	03	23	12	12	45	0.247570463212	0.141120047077	0.669343614296	-0.12255859375	1.08544921875	0.01318359375	9.5625	10.6875	7.0625
19	03	23	12	12	45	0.244456382096	0.141363540808	0.670439176267	-0.05810546875	1.15087890625	0.05810546875	6.5625	13.0	5.625
19	03	23	12	12	45	0.240795490372	0.141425386867	0.670809236802	-0.0009765625	1.13916015625	0.07373046875	0.875	15.75	5.25
19	03	23	12	12	45	0.237195853352	0.140571809127	0.670325491897	-0.03076171875	1.09716796875	0.0810546875	-6.6875	18.5625	6.3125
19	03	23	12	12	45	0.233408286689	0.139410179602	0.669644956397	-0.0400390625	1.01904296875	0.05615234375	-10.0625	20.1875	8.1875
19	03	23	12	12	45	0.229751420542	0.137765397493	0.669782767696	-0.08349609375	0.94921875	0.03125	-6.5	21.625	7.8125
19	03	23	12	12	45	0.226880934357	0.135322849467	0.670632452456	-0.15087890625	0.94970703125	0.02392578125	-2.625	21.6875	5.0625
19	03	23	12	12	45	0.224444761129	0.133067603824	0.671380997458	-0.16650390625	0.9755859375	0.03076171875	-2.0625	19.375	4.5625
19	03	23	12	12	45	0.222172062785	0.131289040399	0.671460127116	-0.1455078125	0.98193359375	0.0341796875	-6.0625	16.0	5.5625
19	03	23	12	12	45	0.219427655283	0.129825486172	0.672260415936	-0.08251953125	0.94873046875	0.03662109375	0.25	17.75	3.125
19	03	23	12	12	45	0.216322716994	0.128487392571	0.673811081516	-0.080078125	0.97607421875	0.0205078125	5.1875	18.875	3.3125
19	03	23	12	12	45	0.213026523991	0.127632797039	0.675336808435	-0.06787109375	0.99755859375	-0.01025390625	4.0	17.5625	5.4375
19	03	23	12	12	45	0.209852416328	0.127327556853	0.675885923792	-0.03759765625	0.9892578125	-0.0126953125	-2.3125	14.0625	6.875
19	03	23	12	12	45	0.206919530338	0.127020514051	0.676669590951	-0.0400390625	0.9482421875	-0.01708984375	-0.5	13.375	6.0
19	03	23	12	12	45	0.203934606945	0.126535899491	0.678520530023	-0.0751953125	1.0	-0.02685546875	6.9375	14.4375	5.75
19	03	23	12	12	45	0.200996654243	0.126286692265	0.679408976126	-0.05810546875	1.02880859375	-0.01220703125	1.125	13.3125	6.9375
19	03	23	12	12	45	0.198375760425	0.125556596675	0.679177565	-0.05126953125	1.0166015625	0.005859375	-7.1875	13.625	5.9375
19	03	23	12	12	45	0.196118626755	0.124214567521	0.678510630253	-0.06494140625	0.943359375	0.03662109375	-9.25	14.5625	4.1875
19	03	23	12	12	45	0.193490971052	0.122625665881	0.678561238227	-0.05517578125	0.94775390625	0.0380859375	-3.875	17.0	3.125
19	03	23	12	12	45	0.191112720658	0.121040091046	0.678569184143	-0.08837890625	0.9501953125	0.0498046875	-3.8125	16.1875	4.5625
19	03	23	12	12	45	0.188727686803	0.119694370576	0.678675016029	-0.0673828125	0.89013671875	0.037109375	-2.75	15.25	4.0625
19	03	23	12	12	45	0.1865957983	0.117988118454	0.679545640325	-0.11181640625	0.923828125	0.0078125	0.4375	15.875	3.4375
19	03	23	12	12	45	0.184394111066	0.116764625776	0.680750586137	-0.119140625	0.99365234375	-0.0029296875	2.75	14.0625	4.8125
19	03	23	12	12	45	0.182378587913	0.116031357304	0.681173039195	-0.1103515625	1.02734375	0.0087890625	-1.25	11.0625	6.5625
19	03	23	12	12	45	0.180677693157	0.11530410891	0.680776456683	-0.0498046875	1.068359375	0.04296875	-5.4375	9.8125	2.3125
19	03	23	12	12	45	0.178845941251	0.114327115346	0.679980814177	-0.03076171875	1.10107421875	0.0751953125	-6.9375	11.5	1.1875
19	03	23	12	12	45	0.176892873709	0.112984371717	0.678821824886	-0.046875	1.10595703125	0.10888671875	-8.3125	13.375	2.375
19	03	23	12	12	45	0.174327625684	0.112067759368	0.677106565725	-0.04638671875	1.07373046875	0.13232421875	-10.75	14.125	7.3125
19	03	23	12	12	45	0.171883909928	0.110418321399	0.675266937335	-0.09423828125	1.00341796875	0.13134765625	-13.1875	16.25	8.875
19	03	23	12	12	45	0.169870343745	0.108343463941	0.673926865	-0.18408203125	0.96435546875	0.1435546875	-8.6875	16.1875	10.6875
19	03	23	12	12	46	0.167305751358	0.106633764182	0.673556718802	-0.177734375	0.97802734375	0.1259765625	-2.25	16.6875	12.4375
19	03	23	12	12	46	0.165782068599	0.104681976306	0.673260757232	-0.22998046875	1.009765625	0.14697265625	-0.5	13.8125	10.5625
19	03	23	12	12	46	0.16382497969	0.103275657838	0.672939791761	-0.15283203125	1.03271484375	0.13037109375	-1.25	13.625	9.0
19	03	23	12	12	46	0.162174200612	0.101625910433	0.673538691666	-0.16455078125	1.0419921875	0.11083984375	4.125	13.3125	6.25
19	03	23	12	12	46	0.159920871037	0.100896641154	0.674292313872	-0.0595703125	0.994140625	0.0947265625	5.9375	12.5	4.75
19	03	23	12	12	46	0.157239542957	0.101265683915	0.675104559434	0.0283203125	0.9853515625	0.0595703125	5.3125	10.0	5.0
19	03	23	12	12	46	0.1540632853	0.102362967293	0.676132730296	0.06005859375	0.9208984375	0.03466796875	6.9375	8.6875	8.0
19	03	23	12	12	46	0.150828989177	0.10376741465	0.677479138356	0.0712890625	0.91455078125	-0.01171875	7.0625	7.6875	8.5625
19	03	23	12	12	46	0.147591425261	0.104559185886	0.679298995751	0.091796875	0.9140625	-0.0400390625	8.125	10.4375	4.375
19	03	23	12	12	46	0.145329984118	0.104129757625	0.680505666916	0.0458984375	0.9716796875	-0.0361328125	2.125	11.25	-0.5
19	03	23	12	12	46	0.143133929186	0.103459279305	0.680939067801	0.033203125	1.01123046875	-0.02294921875	-3.0	11.8125	0.5625
19	03	23	12	12	46	0.141184492127	0.102729572092	0.680224807723	-0.0341796875	0.97705078125	0.029296875	-8.9375	10.4375	5.6875
19	03	23	12	12	46	0.139229008738	0.101812357113	0.680458127754	-0.0625	1.04248046875	0.07080078125	1.4375	11.6875	5.4375
19	03	23	12	12	46	0.137883891869	0.0999185174809	0.680385897593	-0.1376953125	1.1015625	0.1162109375	0.4375	13.3125	4.8125
19	03	23	12	12	46	0.13739629149	0.0972943974386	0.679901062151	-0.15576171875	1.15576171875	0.17431640625	0.4375	12.6875	-0.375
19	03	23	12	12	46	0.137211301991	0.0940581033665	0.678671026173	-0.1650390625	1.220703125	0.19091796875	-5.75	13.75	-2.6875
19	03	23	12	12	46	0.137577928986	0.0903961458863	0.67696397976	-0.1826171875	1.14306640625	0.20361328125	-8.875	13.25	-5.0625
19	03	23	12	12	46	0.137274805649	0.0872235203526	0.675875465965	-0.1181640625	1.12890625	0.15869140625	-7.0625	14.3125	-5.625
19	03	23	12	12	46	0.136970478324	0.0836227964812	0.674109609006	-0.1015625	0.9150390625	0.14453125	-13.0625	15.6875	-7.5
19	03	23	12	12	46	0.135868582932	0.0811183049044	0.672628833744	-0.08740234375	0.88134765625	0.099609375	-13.0	14.25	-0.6875
19	03	23	12	12	46	0.134100061049	0.0797153753889	0.672026250407	-0.078125	0.7578125	0.07958984375	-6.0	12.625	4.875
19	03	23	12	12	46	0.132022723331	0.0784933990773	0.672198914493	-0.1337890625	0.7109375	0.06396484375	-0.125	12.9375	10.0625
19	03	23	12	12	46	0.130013641644	0.077641949376	0.673446248008	-0.14208984375	0.7099609375	0.044921875	7.125	11.125	11.0
19	03	23	12	12	46	0.128001195003	0.0769105892723	0.674493659888	-0.1728515625	0.75537109375	0.037109375	5.25	10.4375	13.1875
19	03	23	12	12	46	0.127204272976	0.0764202254154	0.675635363517	-0.23486328125	0.79296875	0.0615234375	7.9375	4.625	13.3125
19	03	23	12	12	46	0.12573911078	0.0774577337769	0.677160046116	-0.18212890625	0.93408203125	0.07470703125	13.5625	1.375	17.0625
19	03	23	12	12	46	0.125007300113	0.079289298265	0.678506419949	-0.1171875	1.00927734375	0.13427734375	17.0	-4.5625	12.875
19	03	23	12	12	46	0.124150396263	0.0810578791727	0.680019451704	-0.01318359375	1.150390625	0.14794921875	18.875	-3.125	5.3125
19	03	23	12	12	46	0.123110708248	0.082094151013	0.679580875375	0.04052734375	1.23486328125	0.1982421875	6.0	0.625	1.4375
19	03	23	12	12	46	0.121951904178	0.0818506023537	0.67793783769	0.05908203125	1.2607421875	0.1748046875	-7.0625	6.1875	-2.5625
19	03	23	12	12	46	0.120732444057	0.0802034537365	0.674893141525	-0.01904296875	1.19482421875	0.16162109375	-20.9375	11.25	-0.25
19	03	23	12	12	46	0.119569852839	0.0776380055187	0.671275774131	-0.1201171875	1.05908203125	0.16162109375	-26.0625	13.9375	3.9375
19	03	23	12	12	46	0.117681044312	0.0750765998465	0.668425890178	-0.1435546875	0.9853515625	0.16015625	-20.3125	17.0625	8.1875
19	03	23	12	12	46	0.114994586667	0.0726956224633	0.666284983048	-0.09521484375	0.984375	0.1474609375	-16.25	19.875	8.1875
19	03	23	12	12	46	0.11304172466	0.0700712202535	0.663662350014	-0.11865234375	0.9658203125	0.19189453125	-17.3125	17.5	6.1875
19	03	23	12	12	46	0.111273401799	0.0684242915065	0.660926162741	-0.076171875	0.95849609375	0.2080078125	-15.9375	13.1875	6.125
19	03	23	12	12	46	0.110171444113	0.0674456763129	0.659868965266	-0.07373046875	0.9501953125	0.19384765625	-4.0	8.0625	4.25
19	03	23	12	12	46	0.109382248302	0.0673262387706	0.660322077081	-0.05859375	0.99658203125	0.1875	8.0625	3.625	3.5
19	03	23	12	12	46	0.108647264133	0.0676298700337	0.660978215338	-0.0390625	1.015625	0.16064453125	7.875	1.9375	3.375
19	03	23	12	12	46	0.107972496647	0.0679329501232	0.661629091946	-0.037109375	1.04248046875	0.13916015625	6.4375	1.75	2.8125
19	03	23	12	12	46	0.107242538771	0.0678124419888	0.661400199271	-0.04345703125	1.0205078125	0.154296875	0.4375	3.25	2.6875
19	03	23	12	12	46	0.106815366601	0.0673852369872	0.66103452588	-0.08056640625	1.02392578125	0.1669921875	0.0	3.3125	3.4375
19	03	23	12	12	46	0.106148940272	0.0669611198838	0.660394125818	-0.09375	1.02685546875	0.193359375	-0.5	3.8125	5.375
19	03	23	12	12	46	0.105232608888	0.0663502586204	0.659168760664	-0.09423828125	1.01904296875	0.20751953125	-4.3125	5.4375	6.4375
19	03	23	12	12	46	0.104193822655	0.0657391605149	0.657269526857	-0.09033203125	0.97607421875	0.24365234375	-6.9375	6.0	7.5
19	03	23	12	12	46	0.102973340708	0.064823762793	0.655196110942	-0.0654296875	0.97607421875	0.23974609375	-9.3125	8.0625	5.75
19	03	23	12	12	46	0.102054359207	0.0637839745041	0.652122472346	-0.06689453125	0.9326171875	0.27685546875	-14.125	7.1875	4.8125
19	03	23	12	12	46	0.101382708539	0.0628072288298	0.64894699409	-0.0576171875	0.9140625	0.2939453125	-14.1875	6.125	3.625
19	03	23	12	12	46	0.101079130952	0.0618926562716	0.646088527253	-0.08154296875	0.89453125	0.28466796875	-12.625	4.0625	3.75
19	03	23	12	12	46	0.100835764574	0.0610385984102	0.644201367621	-0.0751953125	0.8935546875	0.28076171875	-5.625	4.125	2.4375
19	03	23	12	12	47	0.101079341465	0.0598174846831	0.642488616096	-0.09423828125	0.92431640625	0.2744140625	-5.625	3.5	-0.125
19	03	23	12	12	47	0.101753788618	0.0581711820953	0.640920684156	-0.1220703125	0.9326171875	0.26953125	-5.5625	3.5	-2.25
19	03	23	12	12	47	0.102055874182	0.0566434516992	0.639008939482	-0.09814453125	0.93359375	0.27685546875	-7.9375	4.6875	-1.4375
19	03	23	12	12	47	0.102544794898	0.0549347115526	0.637181615442	-0.109375	0.8994140625	0.29150390625	-6.4375	4.5625	-2.125
19	03	23	12	12	47	0.102790366159	0.0535315624235	0.635786492819	-0.12060546875	0.9482421875	0.279296875	-4.625	4.0	-0.1875
19	03	23	12	12	47	0.103277352375	0.0520049079336	0.633641959223	-0.1259765625	0.9013671875	0.2900390625	-9.4375	3.5625	-0.625
19	03	23	12	12	47	0.103826018796	0.0502344582416	0.631928731683	-0.11962890625	0.90185546875	0.287109375	-6.625	4.5625	-2.5
19	03	23	12	12	47	0.104678909904	0.0479142532214	0.629904577382	-0.13720703125	0.89453125	0.279296875	-10.125	5.5625	-5.0
19	03	23	12	12	47	0.105959594857	0.0452281450396	0.627883843485	-0.1787109375	0.86376953125	0.2890625	-9.625	5.375	-5.5
19	03	23	12	12	47	0.106880196765	0.0428497419356	0.625899221949	-0.17431640625	0.896484375	0.28271484375	-10.375	5.0	-3.5
19	03	23	12	12	47	0.107913346436	0.0404064679528	0.623736700921	-0.18603515625	0.88330078125	0.2880859375	-11.375	4.875	-3.4375
19	03	23	12	12	47	0.10913468658	0.037537937498	0.621725904641	-0.19287109375	0.904296875	0.2939453125	-10.6875	5.9375	-6.0625
19	03	23	12	12	47	0.11072285545	0.0342422943259	0.619718385546	-0.2197265625	0.9423828125	0.29736328125	-11.9375	6.125	-8.0625
19	03	23	12	12	47	0.112310168516	0.0316177539627	0.616729316679	-0.18408203125	0.94091796875	0.31201171875	-17.75	3.5625	-7.6875
19	03	23	12	12	47	0.113287827529	0.0302141565878	0.613438936783	-0.12060546875	0.90478515625	0.33544921875	-17.3125	1.25	-4.9375
19	03	23	12	12	47	0.113957815204	0.0292371684428	0.61166109596	-0.1220703125	0.87939453125	0.33056640625	-6.6875	1.0	-2.75
19	03	23	12	12	47	0.11462827475	0.0278330635175	0.610984574146	-0.162109375	0.8876953125	0.30615234375	-0.5	2.6875	-2.5625
19	03	23	12	12	47	0.115542858688	0.0260627578764	0.609880741688	-0.18896484375	0.89404296875	0.27197265625	-6.6875	2.6875	-3.3125
19	03	23	12	12	47	0.117134665438	0.0235001804031	0.607830640142	-0.20263671875	0.880859375	0.27294921875	-14.0625	3.0625	-7.6875
19	03	23	12	12	47	0.119449837979	0.0204474684328	0.605550251706	-0.234375	0.87158203125	0.29052734375	-14.375	2.5	-11.0
19	03	23	12	12	47	0.121953116358	0.0176398651789	0.604577386149	-0.2578125	0.8544921875	0.3193359375	-3.0625	0.875	-10.25
19	03	23	12	12	47	0.123848397986	0.0159312133437	0.605325067928	-0.251953125	0.9052734375	0.30712890625	8.6875	-0.5625	-6.375
19	03	23	12	12	47	0.125860080718	0.0142828607604	0.605922900719	-0.25927734375	0.904296875	0.29052734375	6.375	-1.375	-6.125
19	03	23	12	12	47	0.128179356562	0.0123906711343	0.606349394327	-0.27880859375	0.91162109375	0.29052734375	5.1875	-1.8125	-7.75
19	03	23	12	12	47	0.130624367947	0.0108039780965	0.606304601315	-0.265625	0.89111328125	0.2958984375	3.0	-3.3125	-7.875
19	03	23	12	12	47	0.132944582561	0.00952220150573	0.606368908704	-0.24755859375	0.89013671875	0.3046875	4.5	-3.6875	-7.875
19	03	23	12	12	47	0.134768105151	0.00830093401295	0.607066835976	-0.248046875	0.908203125	0.2978515625	8.125	-2.0	-6.0625
19	03	23	12	12	47	0.1367872827	0.00744669722862	0.60745517065	-0.24365234375	0.91259765625	0.2978515625	6.3125	-4.25	-6.25
19	03	23	12	12	47	0.139045565584	0.00708045900255	0.607576628546	-0.21142578125	0.90576171875	0.30908203125	5.6875	-6.5625	-7.6875
19	03	23	12	12	47	0.141481518747	0.00616463908258	0.607613683832	-0.2109375	0.91259765625	0.32177734375	5.875	-4.625	-10.8125
19	03	23	12	12	47	0.143807627948	0.00488311130553	0.608130474213	-0.2109375	0.9072265625	0.3134765625	8.4375	-2.125	-12.1875
19	03	23	12	12	47	0.145817173784	0.0035401406779	0.608476938241	-0.2041015625	0.91455078125	0.30419921875	6.0	-0.75	-11.875
19	03	23	12	12	47	0.148264074373	0.00195325252365	0.608560239398	-0.2138671875	0.92041015625	0.29833984375	4.0	-1.6875	-13.9375
19	03	23	12	12	47	0.151071721497	0.000854547111496	0.608498582464	-0.2001953125	0.9052734375	0.3046875	4.3125	-4.5	-15.1875
19	03	23	12	12	47	0.154426972765	-0.000488306633248	0.60891837166	-0.2099609375	0.8955078125	0.28662109375	6.8125	-5.4375	-18.5
19	03	23	12	12	47	0.157906088695	-0.00274672361471	0.609345374348	-0.23974609375	0.89892578125	0.28125	6.25	-2.25	-20.75
19	03	23	12	12	47	0.161141145746	-0.00500514164817	0.609650668072	-0.22509765625	0.8779296875	0.28173828125	5.0	-1.0625	-21.0
19	03	23	12	12	47	0.164192514501	-0.00726353502811	0.610136942361	-0.2265625	0.86328125	0.29345703125	7.6875	0.1875	-20.0625
19	03	23	12	12	47	0.167182470619	-0.00909462874122	0.611781636733	-0.2275390625	0.859375	0.28857421875	16.625	-0.1875	-19.8125
19	03	23	12	12	47	0.170290307236	-0.0112916511967	0.613533393671	-0.2490234375	0.876953125	0.2900390625	17.125	0.8125	-20.8125
19	03	23	12	12	47	0.173285220516	-0.0142827550549	0.615440253069	-0.2763671875	0.85888671875	0.2744140625	17.375	4.625	-21.6875
19	03	23	12	12	47	0.176284575504	-0.0180679481819	0.617484337189	-0.30517578125	0.841796875	0.2705078125	17.625	7.875	-23.1875
19	03	23	12	12	47	0.179573625351	-0.0218515832344	0.619474073313	-0.34326171875	0.837890625	0.271484375	18.0625	6.375	-22.8125
19	03	23	12	12	47	0.182992428117	-0.0252698016145	0.620819208263	-0.37353515625	0.85400390625	0.27001953125	14.3125	3.375	-20.25
19	03	23	12	12	47	0.187267571139	-0.0280779278761	0.621132595798	-0.36083984375	0.87255859375	0.25927734375	6.9375	-3.0	-23.1875
19	03	23	12	12	47	0.19038018818	-0.0305194274095	0.62052099809	-0.390625	0.92529296875	0.271484375	-0.5625	-1.9375	-15.625
19	03	23	12	12	47	0.192337627992	-0.032595459647	0.61919165292	-0.39013671875	0.91943359375	0.2744140625	-6.5	-0.3125	-8.8125
19	03	23	12	12	47	0.194215526563	-0.0343020508889	0.616399309478	-0.40771484375	0.91455078125	0.2890625	-16.25	-3.5	-5.0625
19	03	23	12	12	47	0.195565846303	-0.0357072472183	0.612211435212	-0.35302734375	0.90576171875	0.35546875	-23.0	-2.6875	-4.3125
19	03	23	12	12	47	0.196294803302	-0.0377818666804	0.608111046424	-0.3564453125	0.83935546875	0.3671875	-21.9375	2.4375	-2.6875
19	03	23	12	12	48	0.1986724233	-0.0412603865288	0.604257139992	-0.37744140625	0.74267578125	0.384765625	-17.25	3.3125	-12.3125
19	03	23	12	12	48	0.200999554523	-0.0441307858853	0.604646701217	-0.3720703125	0.80859375	0.36474609375	10.8125	6.25	-15.3125
19	03	23	12	12	48	0.201309418962	-0.0454746868183	0.607285448531	-0.37548828125	0.9638671875	0.267578125	17.75	7.8125	-5.0
19	03	23	12	12	48	0.200082635136	-0.0465109725363	0.608488038339	-0.373046875	0.96435546875	0.28857421875	7.625	9.75	3.75
19	03	23	12	12	48	0.198498454602	-0.0475492915544	0.608374568578	-0.345703125	0.9345703125	0.31787109375	-0.1875	10.875	5.1875
19	03	23	12	12	48	0.197582190027	-0.0491971718139	0.608006238757	-0.3359375	0.8603515625	0.35009765625	1.6875	11.375	1.3125
19	03	23	12	12	48	0.197400353337	-0.0508455455564	0.609230960623	-0.31884765625	0.84716796875	0.36669921875	15.75	12.3125	-4.3125
19	03	23	12	12	48	0.19708928764	-0.0523089252113	0.612142603201	-0.32470703125	0.96142578125	0.3251953125	23.3125	13.125	-6.5625
19	03	23	12	12	48	0.196423038101	-0.0533479600062	0.613989850918	-0.3681640625	0.97021484375	0.32666015625	16.4375	10.625	-0.375
19	03	23	12	12	48	0.19678107766	-0.0548106103409	0.615978485034	-0.48974609375	0.96337890625	0.2998046875	16.75	6.5	1.5
19	03	23	12	12	48	0.19684991625	-0.0549958990825	0.616430171847	-0.42919921875	0.97314453125	0.30908203125	7.125	1.125	3.9375
19	03	23	12	12	48	0.197029619382	-0.0551780594552	0.616297418495	-0.42236328125	0.91650390625	0.2919921875	-0.3125	0.0625	-0.0625
19	03	23	12	12	48	0.199111556377	-0.0565227778067	0.615097226736	-0.45947265625	0.83203125	0.32373046875	-0.4375	-2.8125	-3.5625
19	03	23	12	12	48	0.202333456374	-0.0586553398419	0.614812943004	-0.470703125	0.78125	0.3212890625	7.6875	-2.75	-11.0625
19	03	23	12	12	48	0.205640399509	-0.0607338075129	0.616249769498	-0.44091796875	0.7734375	0.29443359375	18.9375	-0.1875	-14.6875
19	03	23	12	12	48	0.208866624292	-0.063111656785	0.618482029209	-0.4248046875	0.802734375	0.2548828125	21.5	2.125	-17.8125
19	03	23	12	12	48	0.212717259555	-0.0660430630813	0.619962469239	-0.41748046875	0.78076171875	0.2333984375	16.125	1.0625	-23.125
19	03	23	12	12	48	0.216862420572	-0.0692763431886	0.6215949595	-0.390625	0.77294921875	0.20068359375	15.4375	1.625	-27.625
19	03	23	12	12	48	0.220405502002	-0.0725732876987	0.623556524079	-0.39990234375	0.8388671875	0.16748046875	14.3125	3.5625	-27.5
19	03	23	12	12	48	0.222299965273	-0.0749545187686	0.624417530133	-0.4228515625	0.88671875	0.15283203125	3.4375	3.0625	-15.8125
19	03	23	12	12	48	0.222847022219	-0.0760524211682	0.624899428507	-0.41357421875	0.88232421875	0.14013671875	-0.875	1.5	-4.875
19	03	23	12	12	48	0.223712198887	-0.0765443649124	0.624196711001	-0.45849609375	0.84228515625	0.18212890625	-5.0625	-3.875	-0.0625
19	03	23	12	12	48	0.224682899096	-0.0756267622876	0.623691894313	-0.39990234375	0.8486328125	0.18603515625	-2.4375	-8.8125	0.8125
19	03	23	12	12	48	0.224924941952	-0.0746494447781	0.62234320438	-0.34912109375	0.86767578125	0.20556640625	-8.5	-7.0625	1.4375
19	03	23	12	12	48	0.224987854621	-0.0745279898241	0.620273081566	-0.3642578125	0.849609375	0.240234375	-12.75	-2.9375	0.875
19	03	23	12	12	48	0.224988623706	-0.0753827862934	0.618321963686	-0.3955078125	0.85595703125	0.271484375	-11.5625	1.3125	-0.625
19	03	23	12	12	48	0.222421531412	-0.0756257621898	0.617457796862	-0.34033203125	0.9453125	0.22998046875	-10.6875	9.5	7.125
19	03	23	12	12	48	0.218152047844	-0.0759930888545	0.616245963916	-0.29296875	0.91259765625	0.21044921875	-17.0625	15.0	13.0625
19	03	23	12	12	48	0.216921672654	-0.0775156230363	0.613838284154	-0.45458984375	0.79833984375	0.27197265625	-16.375	6.8125	8.5625
19	03	23	12	12	48	0.216316989997	-0.0766020943698	0.611657041976	-0.43603515625	0.81103515625	0.31201171875	-9.8125	-4.375	12.875
19	03	23	12	12	48	0.214304195185	-0.0749545860685	0.611050782681	-0.31689453125	0.84521484375	0.2578125	-3.8125	0.0625	13.5
19	03	23	12	12	48	0.212049588789	-0.0753221625118	0.611244842296	-0.38330078125	0.88427734375	0.208984375	-4.125	8.5625	10.0625
19	03	23	12	12	48	0.209783791877	-0.0759909283931	0.610307865865	-0.4111328125	0.8427734375	0.2568359375	-8.75	8.875	12.5
19	03	23	12	12	48	0.21235225892	-0.0766030712688	0.606415548252	-0.65087890625	0.70703125	0.462890625	-8.4375	-11.5	9.9375
19	03	23	12	12	48	0.215228091311	-0.07727701747	0.606435362215	-0.6328125	0.8447265625	0.34619140625	10.375	-8.75	1.25
19	03	23	12	12	48	0.213151448893	-0.0783142350887	0.60734734149	-0.2861328125	0.83447265625	0.27490234375	5.1875	15.0	1.1875
19	03	23	12	12	48	0.210823394752	-0.0820953867811	0.611351222305	-0.30517578125	0.68505859375	0.0791015625	15.375	28.0	-4.0
19	03	23	12	12	48	0.208991643322	-0.0849638923787	0.615805107909	-0.4384765625	0.9267578125	0.06787109375	16.625	20.6875	-1.8125
19	03	23	12	12	48	0.206252981931	-0.0849671946871	0.618331668233	-0.25439453125	0.90869140625	0.07958984375	5.0	11.5625	2.9375
19	03	23	12	12	48	0.202458350568	-0.0841084133503	0.620192734436	-0.162109375	0.96630859375	0.0947265625	-0.0625	12.0625	4.5625
19	03	23	12	12	48	0.196970236871	-0.0836833575301	0.620880461558	-0.13330078125	0.9755859375	0.11376953125	-10.3125	18.8125	9.5
19	03	23	12	12	48	0.190741337721	-0.0828885557201	0.623312173058	-0.1015625	0.998046875	0.09912109375	1.0	22.875	11.375
19	03	23	12	12	48	0.184515251742	-0.0792261980684	0.624776088928	0.01416015625	1.0771484375	0.24560546875	5.0	13.8125	13.9375
19	03	23	12	12	48	0.186770363328	-0.0774547683215	0.621530264632	-0.44482421875	0.7900390625	0.513671875	1.4375	-14.375	6.75
19	03	23	12	12	48	0.194772079076	-0.0814246172007	0.61868059966	-0.955078125	0.85400390625	0.5439453125	8.75	-15.3125	-11.3125
19	03	23	12	12	48	0.202764234494	-0.0861839551794	0.612992536733	-0.92822265625	0.677734375	0.6005859375	-7.0	-14.25	-11.1875
19	03	23	12	12	48	0.211983437445	-0.0913732236844	0.610009350369	-1.04541015625	0.498046875	0.5732421875	15.4375	-14.8125	-9.5
19	03	23	12	12	48	0.216260382633	-0.0955867228909	0.616491635503	-1.0732421875	0.6923828125	0.22021484375	52.625	4.1875	8.3125
19	03	23	12	12	48	0.213879165558	-0.0950980992979	0.620579188422	-0.44970703125	0.83642578125	0.0439453125	16.625	7.3125	15.3125
19	03	23	12	12	48	0.212476571862	-0.0975402360916	0.622658290595	-0.3505859375	0.79296875	-0.05517578125	-4.0625	12.375	-4.625
19	03	23	12	12	49	0.212233399746	-0.100470571177	0.621684548868	-0.4462890625	0.771484375	0.04150390625	-18.1875	6.5625	-4.0
19	03	23	12	12	49	0.212845282913	-0.101203750809	0.620468110357	-0.36328125	0.7080078125	0.17333984375	-8.125	-1.375	-3.125
19	03	23	12	12	49	0.214175675251	-0.100221276364	0.620737138017	-0.41162109375	0.74658203125	0.30517578125	12.8125	-5.4375	1.0
19	03	23	12	12	49	0.214795207932	-0.0990047818315	0.623754541021	-0.431640625	0.86572265625	0.27001953125	28.125	-0.5	1.9375
19	03	23	12	12	49	0.215457151216	-0.0982679924811	0.624337450366	-0.46630859375	0.9091796875	0.279296875	10.4375	-2.875	1.75
19	03	23	12	12	49	0.217717193732	-0.098268764202	0.622816440942	-0.53662109375	0.83154296875	0.30419921875	-0.375	-9.375	-0.75
19	03	23	12	12	49	0.218707203327	-0.097847515192	0.623648198825	-0.5390625	0.85009765625	0.25	11.3125	-4.1875	5.0
19	03	23	12	12	49	0.217600467511	-0.0963179628981	0.625395340845	-0.47607421875	0.8642578125	0.1806640625	11.1875	-1.125	14.5625
19	03	23	12	12	49	0.2163214879	-0.0952205195044	0.626502187303	-0.48046875	0.90771484375	0.1611328125	4.25	-0.4375	13.0
19	03	23	12	12	49	0.216504942266	-0.0950375514823	0.625160309751	-0.54150390625	0.82958984375	0.23291015625	-6.375	-4.8125	10.375
19	03	23	12	12	49	0.216922936964	-0.0949724507359	0.623607666561	-0.55029296875	0.8154296875	0.27392578125	-5.0625	-4.25	9.6875
19	03	23	12	12	49	0.216140772078	-0.0955878139155	0.623884448295	-0.43017578125	0.837890625	0.232421875	2.75	6.375	3.8125
19	03	23	12	12	49	0.214853924039	-0.0972336082371	0.624968559159	-0.47021484375	0.89599609375	0.1748046875	2.6875	11.8125	2.4375
19	03	23	12	12	49	0.214242626054	-0.098270834173	0.62392824032	-0.4404296875	0.875	0.19091796875	-9.875	4.0625	1.5
19	03	23	12	12	49	0.214850079089	-0.098330533356	0.62306522936	-0.49267578125	0.83837890625	0.2421875	-2.0625	-3.4375	3.4375
19	03	23	12	12	49	0.216196645479	-0.0978439363929	0.621489058236	-0.57666015625	0.7763671875	0.2998046875	-2.0625	-9.0625	9.5625
19	03	23	12	12	49	0.21558985853	-0.0961364742877	0.62180461179	-0.4443359375	0.86181640625	0.28857421875	8.125	-2.8125	11.8125
19	03	23	12	12	49	0.21527449347	-0.0948501737601	0.622080418895	-0.4072265625	0.84228515625	0.26220703125	6.625	-2.3125	7.125
19	03	23	12	12	49	0.217904321641	-0.0938758674184	0.620996797864	-0.5556640625	0.77490234375	0.34521484375	7.25	-13.625	4.1875
19	03	23	12	12	49	0.223157003962	-0.093266931634	0.62082327333	-0.66650390625	0.69775390625	0.36328125	19.6875	-20.1875	-1.125
19	03	23	12	12	49	0.22156576194	-0.0935092967747	0.62740343443	-0.38232421875	1.05078125	0.017578125	31.375	13.1875	-3.8125
19	03	23	12	12	49	0.21991649286	-0.093752909529	0.625568730314	-0.22607421875	0.9189453125	0.1201171875	-21.5	3.6875	-5.1875
19	03	23	12	12	49	0.221931777154	-0.0939364700331	0.622641930349	-0.529296875	0.93994140625	0.275390625	-14.8125	-10.625	-3.3125
19	03	23	12	12	49	0.225596800107	-0.0946090476639	0.621795076485	-0.66259765625	0.734375	0.2724609375	5.0625	-12.6875	0.625
19	03	23	12	12	49	0.222118636618	-0.0928393641923	0.624544624863	-0.0751953125	1.16748046875	-0.03759765625	-3.0625	6.8125	-8.4375
19	03	23	12	12	49	0.21625406036	-0.0896633402961	0.625995383306	0.298828125	1.0302734375	-0.12646484375	-18.6875	9.1875	-9.625
19	03	23	12	12	49	0.213078288394	-0.0867328123195	0.628370374967	-0.15234375	1.09033203125	-0.0712890625	-4.8125	-2.0	3.4375
19	03	23	12	12	49	0.210395324768	-0.0820340343743	0.629171745781	-0.3505859375	0.95751953125	0.087890625	-1.875	-11.9375	25.375
19	03	23	12	12	49	0.205940793669	-0.0773346133903	0.630151972093	-0.3349609375	0.978515625	0.1650390625	1.6875	-3.625	33.0
19	03	23	12	12	49	0.201605965444	-0.0778835034535	0.62874448987	-0.54248046875	0.87548828125	0.20556640625	-16.1875	13.125	30.4375
19	03	23	12	12	49	0.199469399381	-0.0807521466896	0.624837283191	-0.654296875	0.78662109375	0.23095703125	-30.25	10.625	22.25
19	03	23	12	12	49	0.199104818783	-0.084292996548	0.618860747284	-0.76953125	0.65625	0.40087890625	-31.0625	6.3125	23.1875
19	03	23	12	12	49	0.200700191884	-0.0938187940774	0.614308616522	-1.35791015625	0.72119140625	0.3232421875	-28.6875	16.8125	25.375
19	03	23	12	12	49	0.197885491954	-0.102910221911	0.609404303414	-0.91943359375	0.74853515625	0.052734375	-54.4375	28.25	18.1875
19	03	23	12	12	49	0.193863821182	-0.110849086671	0.603199710618	-0.6376953125	0.67822265625	-0.138671875	-75.8125	23.9375	12.0625
19	03	23	12	12	49	0.188972374694	-0.109379358996	0.60335656455	0.00732421875	0.7490234375	-0.138671875	-26.875	5.8125	7.125
19	03	23	12	12	49	0.183719621217	-0.0948505951398	0.615674358543	0.396484375	0.70166015625	-0.12255859375	70.875	-24.75	30.75
19	03	23	12	12	49	0.180976926588	-0.0886268119414	0.629665421479	-0.310546875	1.23388671875	-0.2001953125	72.25	-6.3125	19.0625
19	03	23	12	12	49	0.173410345382	-0.0835006520532	0.634067816907	-0.0625	1.18505859375	-0.1376953125	0.9375	6.0	27.25
19	03	23	12	12	49	0.16717743505	-0.0789805041819	0.632454392839	-0.0380859375	0.9306640625	0.064453125	-25.375	1.0625	26.3125
19	03	23	12	12	49	0.164373908914	-0.0782500375891	0.63253131009	-0.35693359375	0.9169921875	0.14794921875	-4.9375	5.625	17.625
19	03	23	12	12	49	0.160655225977	-0.0770925343497	0.633892295504	-0.40185546875	0.91845703125	0.1845703125	6.0	8.5625	26.1875
19	03	23	12	12	49	0.158027641599	-0.0769690444404	0.635162471409	-0.462890625	0.9814453125	0.17041015625	4.9375	8.375	20.375
19	03	23	12	12	49	0.155770912876	-0.0778854564378	0.634803093223	-0.46923828125	0.95166015625	0.1826171875	-5.8125	9.3125	16.4375
19	03	23	12	12	49	0.155583179378	-0.0808739555417	0.634356996185	-0.62841796875	0.89453125	0.16845703125	-5.4375	9.0625	11.0625
19	03	23	12	12	49	0.154669446902	-0.0833164147678	0.634181354899	-0.57275390625	0.92626953125	0.158203125	-5.375	9.6875	11.375
19	03	23	12	12	49	0.153513202597	-0.0854546654614	0.634012578677	-0.48681640625	0.88818359375	0.1611328125	-4.4375	10.8125	8.9375
19	03	23	12	12	49	0.152713970056	-0.0881981161992	0.634660216083	-0.4951171875	0.90380859375	0.15185546875	1.125	12.875	4.3125
19	03	23	12	12	49	0.152166103802	-0.0905794215976	0.635459810143	-0.4794921875	0.92578125	0.1376953125	1.5	10.625	3.3125
19	03	23	12	12	50	0.151373932882	-0.0925334202616	0.635648442351	-0.44384765625	0.92138671875	0.1376953125	-2.5	9.25	3.5
19	03	23	12	12	50	0.150458835324	-0.0949141942917	0.636016658855	-0.44287109375	0.91845703125	0.12939453125	-2.3125	11.75	2.5625
19	03	23	12	12	50	0.149728307524	-0.0977842432341	0.636391086117	-0.4716796875	0.8984375	0.1279296875	-1.9375	12.875	1.8125
19	03	23	12	12	50	0.149057107274	-0.10108049535	0.63639205587	-0.4921875	0.890625	0.12158203125	-4.75	14.0	1.0
19	03	23	12	12	50	0.148200747086	-0.104192205633	0.635956995013	-0.484375	0.8564453125	0.1298828125	-7.1875	13.5	2.8125
19	03	23	12	12	50	0.14746964825	-0.107061988009	0.636145974362	-0.47314453125	0.849609375	0.12646484375	-2.375	12.875	2.4375
19	03	23	12	12	50	0.146981259026	-0.110296982998	0.637000174085	-0.521484375	0.90234375	0.1064453125	1.1875	13.4375	1.1875
19	03	23	12	12	50	0.146974756566	-0.114137373247	0.637582353441	-0.56640625	0.89892578125	0.10400390625	-0.3125	13.875	-0.4375
19	03	23	12	12	50	0.146367157856	-0.117740720394	0.638265792202	-0.556640625	0.92138671875	0.09521484375	-0.75	15.25	1.5
19	03	23	12	12	50	0.145143166899	-0.121156091797	0.638068404861	-0.5361328125	0.931640625	0.10986328125	-7.375	16.0625	2.8125
19	03	23	12	12	50	0.14338193269	-0.124276549577	0.637741350677	-0.4990234375	0.92138671875	0.12109375	-7.8125	16.875	4.3125
19	03	23	12	12	50	0.141668163998	-0.127507451354	0.638086594759	-0.478515625	0.9130859375	0.10205078125	-3.9375	18.375	2.3125
19	03	23	12	12	50	0.140387421669	-0.130865492199	0.638396540537	-0.49951171875	0.91357421875	0.1005859375	-3.375	16.875	1.0625
19	03	23	12	12	50	0.139106204441	-0.133856913707	0.638765436365	-0.47265625	0.896484375	0.0810546875	-3.75	15.4375	0.8125
19	03	23	12	12	50	0.137579328788	-0.136846874509	0.639676737223	-0.45654296875	0.89404296875	0.07275390625	-0.25	17.375	0.8125
19	03	23	12	12	50	0.135747395283	-0.140020020134	0.641015802724	-0.4814453125	0.90771484375	0.0712890625	2.8125	19.3125	2.5625
19	03	23	12	12	50	0.13373080476	-0.143008341192	0.6423473251	-0.482421875	0.9423828125	0.05859375	1.625	19.25	3.375
19	03	23	12	12	50	0.131837352706	-0.145692481902	0.64270709444	-0.4609375	0.93408203125	0.05615234375	-5.375	16.25	2.1875
19	03	23	12	12	50	0.129335724258	-0.147158296926	0.643016448823	-0.40234375	0.94091796875	0.0712890625	-5.375	13.8125	5.8125
19	03	23	12	12	50	0.125917434633	-0.148012495873	0.643991688229	-0.359375	0.94580078125	0.02734375	-4.75	15.0	9.6875
19	03	23	12	12	50	0.122622345092	-0.149600481742	0.645094855787	-0.34912109375	0.92333984375	0.01953125	-3.1875	17.6875	6.1875
19	03	23	12	12	50	0.119695487421	-0.151618353266	0.645781875022	-0.39501953125	0.95263671875	0.01904296875	-6.125	17.5	5.375
19	03	23	12	12	50	0.116581905221	-0.153143455602	0.646205565746	-0.36669921875	0.96337890625	0.02197265625	-7.8125	16.125	5.8125
19	03	23	12	12	50	0.11316110264	-0.155398148502	0.646922614286	-0.384765625	0.9482421875	0.0078125	-6.375	20.0625	6.125
19	03	23	12	12	50	0.109805141226	-0.158329369839	0.647478008963	-0.443359375	0.9189453125	-0.01416015625	-8.5	21.75	7.6875
19	03	23	12	12	50	0.106631756974	-0.161504080682	0.647359138215	-0.4658203125	0.89501953125	-0.02197265625	-13.1875	21.25	8.0625
19	03	23	12	12	50	0.103701127979	-0.164859768493	0.64692657766	-0.484375	0.84033203125	-0.0068359375	-13.75	20.75	8.6875
19	03	23	12	12	50	0.101385104216	-0.167856132808	0.646703900762	-0.5	0.85498046875	0.01611328125	-9.6875	17.875	7.875
19	03	23	12	12	50	0.0994893576102	-0.170474709083	0.647108079376	-0.4794921875	0.85888671875	0.01904296875	-4.0625	16.0	6.0625
19	03	23	12	12	50	0.0980254397007	-0.173100963257	0.648152020039	-0.46923828125	0.89404296875	0.04052734375	2.4375	16.125	3.25
19	03	23	12	12	50	0.0965583608865	-0.175416390131	0.649358028743	-0.4560546875	0.94677734375	0.04736328125	4.5625	15.5625	1.8125
19	03	23	12	12	50	0.0943041256148	-0.177255133194	0.650118603187	-0.38720703125	0.96923828125	0.05419921875	0.125	16.1875	1.9375
19	03	23	12	12	50	0.0916806135604	-0.179393690582	0.650309758237	-0.3583984375	0.951171875	0.0625	-3.8125	18.75	0.4375
19	03	23	12	12	50	0.0887463229151	-0.181948272772	0.65046049746	-0.384765625	0.94873046875	0.04052734375	-5.375	21.0	2.125
19	03	23	12	12	50	0.0856951749087	-0.184391113532	0.650587513784	-0.390625	0.92626953125	0.021484375	-6.9375	20.0	4.1875
19	03	23	12	12	50	0.0829520725799	-0.1873898917	0.650737340526	-0.44091796875	0.908203125	-0.01025390625	-7.4375	20.5625	4.375
19	03	23	12	12	50	0.0811194162989	-0.19092666229	0.649748823553	-0.55322265625	0.87939453125	0.005859375	-13.1875	17.9375	5.375
19	03	23	12	12	50	0.0782519868062	-0.193371524338	0.64963798407	-0.41015625	0.869140625	0.00146484375	-8.8125	18.875	5.6875
19	03	23	12	12	50	0.0757446078845	-0.195312445794	0.650024233659	-0.3955078125	0.88037109375	0.02880859375	-2.8125	16.9375	5.0625
19	03	23	12	12	50	0.0734882935118	-0.196355349026	0.651384608271	-0.41357421875	0.93896484375	0.0283203125	4.375	13.4375	8.0
19	03	23	12	12	50	0.0704382490352	-0.196848659565	0.652438859564	-0.3056640625	0.93310546875	0.04052734375	1.5625	13.9375	6.75
19	03	23	12	12	50	0.0679978979936	-0.198378068653	0.652083971513	-0.392578125	0.95458984375	0.08251953125	-4.875	15.6875	4.1875
19	03	23	12	12	50	0.064882246995	-0.199529694663	0.651263946789	-0.408203125	0.92333984375	0.10546875	-7.8125	15.9375	10.1875
19	03	23	12	12	50	0.0620134691994	-0.201360664261	0.650775205319	-0.4072265625	0.94091796875	0.103515625	-4.8125	18.4375	6.1875
19	03	23	12	12	50	0.05932795471	-0.203680437106	0.649616689279	-0.4453125	0.95263671875	0.09814453125	-9.6875	19.0	5.25
19	03	23	12	12	50	0.0565193304677	-0.206240623812	0.648385364533	-0.41748046875	0.97509765625	0.08642578125	-10.75	20.0625	2.375
19	03	23	12	12	50	0.0535893576952	-0.208803180723	0.647955149535	-0.41796875	0.9609375	0.06201171875	-6.75	21.1875	4.125
19	03	23	12	12	50	0.0503569556949	-0.211499213919	0.647987202009	-0.3798828125	0.96728515625	0.0078125	-6.5625	22.375	2.5
19	03	23	12	12	50	0.047608106023	-0.214602693304	0.647348169846	-0.455078125	0.93310546875	-0.0078125	-11.4375	20.5625	4.0625
19	03	23	12	12	50	0.0442525778512	-0.217295416759	0.646453864858	-0.3662109375	0.8798828125	-0.0126953125	-14.5625	21.1875	3.6875
19	03	23	12	12	51	0.0413223177875	-0.219734629298	0.645348398769	-0.39453125	0.8427734375	0.00830078125	-13.9375	18.375	5.375
19	03	23	12	12	51	0.0384535038257	-0.221077128344	0.645896789656	-0.42724609375	0.89404296875	-0.009765625	-4.125	14.9375	11.8125
19	03	23	12	12	51	0.0364386205843	-0.221500425629	0.646434557134	-0.44482421875	0.90087890625	0.001953125	-2.5625	8.0	12.75
19	03	23	12	12	51	0.0355226655237	-0.223145816417	0.647098453407	-0.4736328125	0.94482421875	0.0048828125	1.125	9.8125	4.875
19	03	23	12	12	51	0.0349747542498	-0.224802827054	0.647002434639	-0.5615234375	0.99169921875	0.076171875	0.875	8.875	6.4375
19	03	23	12	12	51	0.0333265204642	-0.224618306425	0.646815269888	-0.4736328125	1.05224609375	0.14453125	0.9375	6.6875	10.8125
19	03	23	12	12	51	0.0302751842903	-0.224927528447	0.646155445357	-0.30810546875	1.017578125	0.1611328125	-3.1875	14.25	4.5
19	03	23	12	12	51	0.0280768899782	-0.226263111194	0.643327000804	-0.3984375	0.99072265625	0.22314453125	-13.1875	14.3125	1.375
19	03	23	12	12	51	0.0250254675046	-0.226816188408	0.641506496278	-0.34228515625	0.92919921875	0.18310546875	-10.4375	14.3125	7.0
19	03	23	12	12	51	0.0216687823197	-0.228041044356	0.639992063724	-0.38232421875	0.89208984375	0.125	-11.4375	16.875	9.75
19	03	23	12	12	51	0.0189824621971	-0.23071931545	0.638933807972	-0.43115234375	0.89501953125	0.0654296875	-9.375	20.0	5.75
19	03	23	12	12	51	0.016968666474	-0.233776951782	0.63827822057	-0.5419921875	0.94677734375	0.060546875	-5.375	19.25	7.0625
19	03	23	12	12	51	0.0154423674417	-0.235480844229	0.63728758284	-0.52783203125	0.94189453125	0.11083984375	-5.6875	12.1875	9.25
19	03	23	12	12	51	0.0133060309512	-0.236700862518	0.636675269965	-0.44970703125	0.9912109375	0.13330078125	-2.6875	13.5625	7.75
19	03	23	12	12	51	0.0107422520492	-0.23809957525	0.635868078687	-0.40966796875	0.95703125	0.1474609375	-3.875	16.4375	6.625
19	03	23	12	12	51	0.00793499758669	-0.240003157776	0.634799806936	-0.36328125	0.9619140625	0.15185546875	-5.1875	19.1875	2.625
19	03	23	12	12	51	0.0048218920565	-0.2416439323	0.632888591568	-0.3642578125	0.904296875	0.14892578125	-11.8125	18.3125	5.1875
19	03	23	12	12	51	0.00109865181552	-0.243046196078	0.631663757712	-0.294921875	0.85400390625	0.10302734375	-11.0625	19.625	6.5
19	03	23	12	12	51	-0.00323502374363	-0.245190384494	0.631440011846	-0.34130859375	0.85498046875	0.05419921875	-6.625	24.5625	10.9375
19	03	23	12	12	51	-0.00744623852148	-0.247190705016	0.631099232067	-0.4052734375	0.84716796875	0.03466796875	-8.25	22.6875	15.625
19	03	23	12	12	51	-0.0114749802381	-0.248543188986	0.631184950223	-0.4091796875	0.89013671875	0.013671875	-7.375	19.25	17.25
19	03	23	12	12	51	-0.0146487170685	-0.250065807623	0.631664887257	-0.4619140625	0.92626953125	0.04345703125	-1.0625	17.5625	16.125
19	03	23	12	12	51	-0.0180668107859	-0.250921145746	0.632155267938	-0.36962890625	0.96240234375	0.1025390625	2.0625	17.9375	13.0
19	03	23	12	12	51	-0.0222782792853	-0.25195818326	0.632458986177	-0.32373046875	0.9873046875	0.10546875	-0.375	21.25	12.0625
19	03	23	12	12	51	-0.027039672759	-0.25257373787	0.63137330704	-0.2626953125	0.97119140625	0.13134765625	-9.625	20.9375	10.1875
19	03	23	12	12	51	-0.0315556463532	-0.253971072487	0.630624638532	-0.30419921875	0.9130859375	0.1201171875	-6.5	23.4375	11.6875
19	03	23	12	12	51	-0.0364386640241	-0.255192720745	0.630077602548	-0.25634765625	0.87744140625	0.07958984375	-7.75	23.5	11.9375
19	03	23	12	12	51	-0.0408341516494	-0.257212429074	0.630457327932	-0.2763671875	0.87060546875	0.0322265625	-2.4375	25.625	10.125
19	03	23	12	12	51	-0.044131615149	-0.259784445469	0.630355725649	-0.35498046875	0.89306640625	0.01953125	-4.125	22.8125	7.8125
19	03	23	12	12	51	-0.047668176104	-0.261289964022	0.630672552731	-0.337890625	0.9208984375	0.03173828125	-2.1875	19.625	11.6875
19	03	23	12	12	51	-0.0507830932314	-0.263010034536	0.631370572579	-0.38671875	0.931640625	0.0361328125	2.25	19.4375	13.3125
19	03	23	12	12	51	-0.0542599389824	-0.265562423523	0.632015374761	-0.375	0.98486328125	0.0361328125	2.5	24.75	9.75
19	03	23	12	12	51	-0.058107061851	-0.267951682275	0.631548076651	-0.38037109375	1.0048828125	0.08349609375	-3.0	25.375	9.75
19	03	23	12	12	51	-0.0621965682512	-0.270027102986	0.630693954602	-0.33642578125	1.0185546875	0.1171875	-4.0	25.625	8.1875
19	03	23	12	12	51	-0.0665921327266	-0.272228150285	0.629848045468	-0.35107421875	1.01171875	0.0966796875	-5.625	26.6875	10.4375
19	03	23	12	12	51	-0.0709852081403	-0.275090570153	0.62940624793	-0.33251953125	0.962890625	0.0537109375	-3.5625	29.25	8.8125
19	03	23	12	12	51	-0.0751993595033	-0.27894567608	0.628451790135	-0.37158203125	0.9345703125	0.02392578125	-7.25	32.5	7.0
19	03	23	12	12	51	-0.0797150363785	-0.283336293161	0.627343908038	-0.4130859375	0.94580078125	-0.005859375	-9.5	35.0625	8.5625
19	03	23	12	12	51	-0.0839873415978	-0.286997442001	0.625754524754	-0.4169921875	0.90966796875	0.0107421875	-12.125	30.875	10.4375
19	03	23	12	12	51	-0.0875286855176	-0.28968698847	0.624298044264	-0.37890625	0.87548828125	0.044921875	-10.1875	24.5	9.0
19	03	23	12	12	51	-0.0897872415236	-0.292495215079	0.623017249647	-0.39697265625	0.87841796875	0.0625	-5.5625	20.75	4.625
19	03	23	12	12	51	-0.0917972299669	-0.295289227779	0.621584434829	-0.3779296875	0.8515625	0.07666015625	-5.1875	19.6875	2.5625
19	03	23	12	12	51	-0.0932024441192	-0.299322060223	0.620067864969	-0.41796875	0.8330078125	0.0693359375	-3.0625	23.4375	-1.625
19	03	23	12	12	51	-0.0939351002974	-0.304877079912	0.617810971546	-0.4619140625	0.76904296875	0.08154296875	-3.3125	27.8125	-7.3125
19	03	23	12	12	51	-0.0933291183701	-0.312399233367	0.615520490284	-0.4658203125	0.7666015625	0.06640625	1.9375	32.0625	-19.5625
19	03	23	12	12	51	-0.0912491632456	-0.320379169148	0.613902397274	-0.4677734375	0.82470703125	0.064453125	10.0	29.6875	-27.875
19	03	23	12	12	51	-0.0878923909827	-0.328009520237	0.612988390722	-0.5126953125	0.81103515625	-0.01416015625	11.4375	22.625	-27.875
19	03	23	12	12	51	-0.0827076653819	-0.334798187911	0.613196462308	-0.4775390625	0.78662109375	-0.0146484375	21.125	13.25	-33.0625
19	03	23	12	12	51	-0.0745268686233	-0.341444146666	0.613915843254	-0.484375	0.7958984375	-0.02294921875	29.8125	2.4375	-44.625
19	03	23	12	12	51	-0.0634188144238	-0.348040500332	0.615937686574	-0.4921875	0.765625	-0.064453125	42.125	-7.5	-53.4375
19	03	23	12	12	52	-0.0515758956893	-0.357185966359	0.617873126701	-0.50146484375	0.7509765625	-0.0849609375	49.375	3.0	-65.375
19	03	23	12	12	52	-0.0408326686789	-0.369935433277	0.62024152334	-0.53857421875	0.7470703125	-0.15380859375	56.1875	25.5	-71.625
19	03	23	12	12	52	-0.0301524165038	-0.383253083456	0.620382917702	-0.5498046875	0.85107421875	-0.18603515625	43.1875	25.4375	-83.1875
19	03	23	12	12	52	-0.0205694430195	-0.397838663504	0.617083290584	-0.55908203125	0.88525390625	-0.16064453125	23.75	32.0625	-94.4375
19	03	23	12	12	52	-0.0169070637213	-0.415108087972	0.604625896111	-0.5751953125	1.02099609375	-0.19384765625	-43.25	52.25	-105.0625
19	03	23	12	12	52	-0.0161748703198	-0.433730673557	0.582966741225	-0.625	1.0078125	-0.14306640625	-107.1875	53.9375	-120.875
19	03	23	12	12	52	-0.0134887530243	-0.453124445486	0.556029592992	-0.74951171875	0.9140625	-0.09716796875	-131.1875	44.9375	-142.8125
19	03	23	12	12	52	-0.0181278550415	-0.473033254451	0.524364992128	-0.787109375	1.1650390625	-0.16162109375	-174.75	65.6875	-130.9375
19	03	23	12	12	52	-0.0396733300506	-0.489080605686	0.489874072287	-0.80712890625	1.4052734375	-0.0537109375	-237.1875	97.375	-61.4375
19	03	23	12	12	52	-0.0646981011235	-0.503241362041	0.458196835032	-0.7958984375	0.6162109375	-0.087890625	-225.5	108.375	-24.125
19	03	23	12	12	52	-0.0760513973512	-0.519359020916	0.442758295655	-0.58154296875	0.35107421875	0.09814453125	-83.0	111.75	-35.625
19	03	23	12	12	52	-0.0835574582367	-0.537660810524	0.431703361657	-0.5087890625	0.61181640625	-0.07373046875	-42.8125	121.1875	-45.625
19	03	23	12	12	52	-0.0907594533277	-0.554139258078	0.415711255289	-0.63134765625	0.5029296875	0.0302734375	-70.5	105.3125	-57.3125
19	03	23	12	12	52	-0.0915539139556	-0.569770524517	0.395696016116	-0.6982421875	0.45068359375	0.099609375	-70.0625	83.3125	-87.8125
19	03	23	12	12	52	-0.087833706356	-0.584866278181	0.374102005737	-0.82373046875	0.43359375	0.080078125	-67.8125	65.5625	-116.5625
19	03	23	12	12	52	-0.0806271502082	-0.600583768394	0.352354684445	-0.83056640625	0.44287109375	0.1181640625	-53.375	64.6875	-133.3125
19	03	23	12	12	52	-0.06915531312	-0.617148606316	0.33375220842	-1.01904296875	0.41455078125	0.07568359375	-20.3125	67.8125	-138.5
19	03	23	12	12	52	-0.0585952174339	-0.631058284426	0.317940091264	-1.150390625	0.80859375	0.001953125	-13.75	56.75	-125.4375
19	03	23	12	12	52	-0.0635382715405	-0.636115145048	0.302066191983	-1.2177734375	1.19140625	0.01953125	-84.0	27.6875	-76.875
19	03	23	12	12	52	-0.0764784462558	-0.634105808581	0.289983318564	-1.0654296875	0.9921875	0.28466796875	-98.3125	13.375	-12.3125
19	03	23	12	12	52	-0.0830689630834	-0.634339260342	0.28601113961	-0.65625	0.302734375	0.10791015625	-37.9375	16.1875	16.9375
19	03	23	12	12	52	-0.0757437766239	-0.640617791656	0.287716489126	-0.7734375	0.45263671875	0.0751953125	48.0	36.625	-31.1875
19	03	23	12	12	52	-0.0729979506088	-0.647215943358	0.276733033495	-1.26904296875	0.37158203125	-0.13330078125	-34.375	23.0625	-41.1875
19	03	23	12	12	52	-0.0740974683225	-0.649665117648	0.260683926858	-1.27294921875	0.06640625	-0.0498046875	-75.6875	0.1875	-22.5625
19	03	23	12	12	52	-0.0775157727668	-0.650216950618	0.250613986599	-1.12158203125	0.2255859375	0.03857421875	-56.75	1.25	-3.5625
19	03	23	12	12	52	-0.0806248105261	-0.6493318389	0.243034061707	-0.89208984375	0.32275390625	0.23388671875	-40.875	5.1875	-7.8125
19	03	23	12	12	52	-0.0845337186462	-0.647217005433	0.238586502663	-0.95263671875	0.75146484375	0.3203125	-30.3125	4.8125	-15.875
19	03	23	12	12	52	-0.0922835633449	-0.643970818024	0.231136147081	-0.90478515625	0.53662109375	0.29638671875	-60.0625	-1.0625	1.75
19	03	23	12	12	52	-0.0969863151849	-0.644296754621	0.222720619326	-0.9482421875	0.4453125	0.044921875	-54.9375	3.875	-10.9375
19	03	23	12	12	52	-0.101926127841	-0.647261428596	0.211115255211	-0.9892578125	0.29150390625	-0.13037109375	-70.5625	11.0625	-14.1875
19	03	23	12	12	52	-0.105039232229	-0.650376559346	0.199031340093	-1.05126953125	0.12548828125	-0.1591796875	-65.625	7.8125	-12.0625
19	03	23	12	12	52	-0.106750559664	-0.652100045428	0.194824349027	-1.0068359375	0.2294921875	-0.0703125	-25.4375	4.25	5.125
19	03	23	12	12	52	-0.10888694692	-0.652650293396	0.197449144219	-0.92236328125	0.60205078125	-0.01220703125	1.8125	3.4375	8.625
19	03	23	12	12	52	-0.113523158122	-0.652880227116	0.197933119242	-0.8564453125	0.72021484375	0.00634765625	-17.4375	6.125	2.0625
19	03	23	12	12	52	-0.117489712046	-0.654402437694	0.193903800089	-1.01123046875	0.57275390625	-0.03564453125	-33.375	9.5	-5.375
19	03	23	12	12	52	-0.11840451147	-0.657022972151	0.188043453525	-1.11572265625	0.20263671875	-0.06005859375	-27.625	10.6875	0.125
19	03	23	12	12	52	-0.11779788272	-0.659301932195	0.190612843385	-0.92919921875	0.4541015625	-0.06591796875	13.25	9.1875	5.9375
19	03	23	12	12	52	-0.123108324974	-0.6600364037	0.191590001037	-0.65869140625	0.61962890625	-0.06884765625	-18.125	7.9375	6.875
19	03	23	12	12	52	-0.127746638663	-0.661316211137	0.187988364587	-0.9501953125	0.345703125	-0.0830078125	-34.0625	7.6875	12.0625
19	03	23	12	12	52	-0.129576332444	-0.662285814109	0.186826732742	-0.9443359375	0.298828125	-0.03515625	-12.1875	4.75	13.25
19	03	23	12	12	52	-0.131467471752	-0.663074565049	0.187618852445	-0.8544921875	0.34423828125	-0.0068359375	-3.5625	6.0	15.5625
19	03	23	12	12	52	-0.135800701542	-0.663195695709	0.188045825371	-0.91796875	0.50634765625	0.0029296875	-15.0	5.875	16.8125
19	03	23	12	12	52	-0.142575100492	-0.66209532968	0.186214311473	-0.8828125	0.4609375	0.04931640625	-34.75	3.1875	21.1875
19	03	23	12	12	52	-0.14837501833	-0.661187401716	0.186277480849	-0.857421875	0.51904296875	0.1123046875	-20.1875	7.25	20.5
19	03	23	12	12	52	-0.152588066271	-0.661255643994	0.186096405625	-0.9072265625	0.5029296875	0.06982421875	-15.5625	9.4375	15.8125
19	03	23	12	12	52	-0.157779735935	-0.661210011367	0.185124154387	-0.90283203125	0.560546875	0.06103515625	-23.125	9.3125	13.0
19	03	23	12	12	52	-0.165100637362	-0.660402549446	0.181885360199	-0.92724609375	0.5478515625	0.0771484375	-41.25	8.4375	15.75
19	03	23	12	12	52	-0.170896923894	-0.659723160845	0.177793835465	-1.05078125	0.46484375	0.12353515625	-37.75	8.75	15.3125
19	03	23	12	12	52	-0.174866032084	-0.66003534763	0.176147772634	-1.048828125	0.54833984375	0.10498046875	-19.625	11.6875	11.9375
19	03	23	12	12	52	-0.177918207227	-0.661440690127	0.175171613977	-0.95361328125	0.59228515625	0.04150390625	-13.3125	15.0	5.3125
19	03	23	12	12	53	-0.181097391928	-0.663230286717	0.17267425742	-0.97900390625	0.552734375	-0.01513671875	-21.3125	14.6875	2.625
19	03	23	12	12	53	-0.183772651348	-0.664596612598	0.168697312629	-0.955078125	0.4423828125	-0.02978515625	-26.75	10.25	0.6875
19	03	23	12	12	53	-0.184139055232	-0.666123184886	0.166073042521	-1.0634765625	0.36083984375	-0.01806640625	-11.4375	7.5	4.5625
19	03	23	12	12	53	-0.18298699706	-0.667615668393	0.167422726129	-0.984375	0.48291015625	0.02783203125	11.625	7.0625	3.9375
19	03	23	12	12	53	-0.183953237786	-0.668493634197	0.170159796598	-0.94580078125	0.7041015625	0.04833984375	9.125	8.0	4.0625
19	03	23	12	12	53	-0.187007955785	-0.66972529335	0.166927793431	-1.005859375	0.5361328125	-0.00390625	-24.0	12.3125	1.125
19	03	23	12	12	53	-0.188470315961	-0.672157898211	0.162897433063	-0.92529296875	0.40087890625	-0.099609375	-22.0625	13.25	-3.375
19	03	23	12	12	53	-0.189206240421	-0.675100072676	0.16259529822	-0.76123046875	0.41748046875	-0.14990234375	-4.375	13.1875	2.1875
19	03	23	12	12	53	-0.190247991344	-0.677678359927	0.162293682703	-0.86376953125	0.45068359375	-0.1298828125	-4.875	12.125	5.0625
19	03	23	12	12	53	-0.193056023452	-0.679083565263	0.160096727637	-0.9111328125	0.431640625	-0.08251953125	-20.4375	10.1875	7.3125
19	03	23	12	12	53	-0.196780105951	-0.67945289685	0.155763905207	-0.98095703125	0.25146484375	-0.013671875	-31.8125	8.875	15.875
19	03	23	12	12	53	-0.199528898541	-0.680864136807	0.154972124012	-0.857421875	0.27978515625	-0.056640625	-12.75	11.5	20.8125
19	03	23	12	12	53	-0.202209645913	-0.682922948421	0.158142225343	-0.85693359375	0.470703125	-0.0927734375	3.875	13.9375	25.875
19	03	23	12	12	53	-0.206543375012	-0.684571659022	0.160400706126	-0.9482421875	0.60302734375	-0.1484375	-9.0	11.4375	24.9375
19	03	23	12	12	53	-0.21319868305	-0.684945783336	0.159364947451	-0.9296875	0.5517578125	-0.11279296875	-32.0	9.875	23.875
19	03	23	12	12	53	-0.220093150187	-0.684571484331	0.157593043201	-0.93994140625	0.52490234375	-0.03564453125	-35.0	9.5625	24.375
19	03	23	12	12	53	-0.225770871866	-0.685369321486	0.156800586597	-0.90673828125	0.58837890625	-0.07470703125	-25.25	13.8125	19.0625
19	03	23	12	12	53	-0.229854248544	-0.686938281296	0.156125110933	-0.95263671875	0.57958984375	-0.1171875	-18.75	13.875	16.125
19	03	23	12	12	53	-0.234979678812	-0.687605470518	0.155269689064	-0.86669921875	0.5888671875	-0.10107421875	-24.625	10.9375	15.875
19	03	23	12	12	53	-0.239563083773	-0.688476836931	0.151916564461	-0.93310546875	0.48193359375	-0.09912109375	-32.125	12.4375	12.1875
19	03	23	12	12	53	-0.243775392125	-0.689150714192	0.149902945182	-0.9072265625	0.51123046875	-0.0732421875	-24.8125	11.25	13.8125
19	03	23	12	12	53	-0.249140445431	-0.689194980354	0.147152771664	-0.9609375	0.5478515625	-0.0244140625	-31.375	12.5	15.375
19	03	23	12	12	53	-0.253716543093	-0.689923455165	0.144161288137	-0.99267578125	0.5859375	-0.04248046875	-28.9375	15.125	10.8125
19	03	23	12	12	53	-0.258238547909	-0.690853728144	0.139952963922	-0.9755859375	0.49365234375	-0.0859375	-34.5	15.125	10.25
19	03	23	12	12	53	-0.261047000548	-0.692442885484	0.137206840597	-1.00537109375	0.53369140625	-0.1201171875	-21.875	13.5	8.625
19	03	23	12	12	53	-0.265495787862	-0.693218657134	0.134456832335	-0.966796875	0.55859375	-0.123046875	-30.125	11.125	12.4375
19	03	23	12	12	53	-0.270073591691	-0.693097334969	0.130978062772	-0.95556640625	0.5380859375	-0.05615234375	-33.125	8.8125	10.0625
19	03	23	12	12	53	-0.275330162689	-0.692811500041	0.127197530269	-1.01025390625	0.5517578125	-0.0478515625	-36.9375	9.75	13.125
19	03	23	12	12	53	-0.278738762073	-0.693459560908	0.123836423964	-0.97607421875	0.52099609375	-0.08154296875	-27.625	10.9375	8.3125
19	03	23	12	12	53	-0.282458930366	-0.693818738203	0.120783540016	-0.9345703125	0.49951171875	-0.056640625	-26.8125	10.5625	10.5
19	03	23	12	12	53	-0.286135890416	-0.694343406436	0.118104297772	-0.9716796875	0.52587890625	-0.044921875	-24.625	12.4375	12.3125
19	03	23	12	12	53	-0.290460752858	-0.694444724946	0.114377695074	-0.953125	0.50390625	-0.01123046875	-30.75	13.625	10.75
19	03	23	12	12	53	-0.295529055346	-0.694450555913	0.110594516375	-0.87158203125	0.5	-0.02001953125	-34.1875	14.125	11.0625
19	03	23	12	12	53	-0.299123765115	-0.695351368284	0.107418450643	-0.96044921875	0.50048828125	-0.01611328125	-24.375	17.625	11.625
19	03	23	12	12	53	-0.303772102229	-0.695373831765	0.104675337618	-0.9931640625	0.63720703125	0.01708984375	-27.3125	14.9375	11.0
19	03	23	12	12	53	-0.309691673293	-0.694334346745	0.100524672037	-0.9375	0.55859375	-0.01220703125	-41.1875	9.3125	12.0625
19	03	23	12	12	53	-0.313294876829	-0.694705296721	0.0960087358761	-0.90283203125	0.4306640625	-0.052734375	-32.0	13.125	7.6875
19	03	23	12	12	53	-0.316342562124	-0.695367704085	0.093016798124	-0.91845703125	0.4599609375	-0.064453125	-24.0625	11.9375	11.5625
19	03	23	12	12	53	-0.319698227197	-0.695242937381	0.0891102351485	-0.94091796875	0.48681640625	0.009765625	-27.4375	11.8125	6.875
19	03	23	12	12	53	-0.324521435986	-0.694635783892	0.0850213203552	-0.8984375	0.49365234375	-0.01806640625	-36.1875	10.0625	10.375
19	03	23	12	12	53	-0.327999645864	-0.694267951564	0.0805045651088	-0.951171875	0.41845703125	0.0078125	-31.25	10.8125	9.25
19	03	23	12	12	53	-0.332151111633	-0.693965111957	0.0775751677483	-0.90234375	0.50390625	0.0068359375	-27.375	11.0625	12.5
19	03	23	12	12	53	-0.335877146145	-0.69427631063	0.0745851122276	-0.92138671875	0.51123046875	-0.017578125	-26.0625	13.6875	11.6875
19	03	23	12	12	53	-0.339540742876	-0.694828656642	0.0713505533744	-0.93896484375	0.5068359375	-0.052734375	-27.125	13.8125	12.1875
19	03	23	12	12	53	-0.343489454042	-0.694852067211	0.0680509490505	-0.9853515625	0.5625	-0.03125	-29.0625	11.625	10.75
19	03	23	12	12	53	-0.347890920921	-0.694927372913	0.0643903371178	-0.94482421875	0.54052734375	-0.0498046875	-32.6875	13.0	11.5
19	03	23	12	12	53	-0.35223768421	-0.694526530693	0.0601202770659	-0.935546875	0.51025390625	-0.00439453125	-33.9375	12.9375	9.1875
19	03	23	12	12	53	-0.356006078188	-0.694983921195	0.0562114860297	-0.91162109375	0.50244140625	-0.03466796875	-29.875	16.1875	9.5625
19	03	23	12	12	53	-0.359251705799	-0.695615305978	0.0516355662769	-0.98193359375	0.49658203125	-0.07470703125	-31.0625	14.9375	7.625
19	03	23	12	12	53	-0.362853033363	-0.696104095123	0.0482786794601	-0.888671875	0.51806640625	-0.07275390625	-28.4375	13.5	9.375
19	03	23	12	12	54	-0.366939866815	-0.695855193207	0.0433955830515	-1.017578125	0.4765625	-0.02685546875	-35.4375	13.8125	11.4375
19	03	23	12	12	54	-0.370041023503	-0.696016465781	0.039671229635	-0.98876953125	0.51953125	-0.044921875	-27.625	11.625	8.875
19	03	23	12	12	54	-0.373229886617	-0.696349922554	0.0364379791187	-0.93017578125	0.50634765625	-0.0419921875	-25.625	13.25	10.0625
19	03	23	12	12	54	-0.37743247656	-0.696577757921	0.0328361371911	-0.93359375	0.56494140625	-0.0859375	-33.0	13.1875	10.5
19	03	23	12	12	54	-0.381403580682	-0.69646283552	0.0285640703728	-0.9267578125	0.5146484375	-0.09326171875	-35.4375	10.75	8.5625
19	03	23	12	12	54	-0.385305635263	-0.696333279378	0.0245355402147	-0.96875	0.4814453125	-0.060546875	-32.75	12.125	12.75
19	03	23	12	12	54	-0.38841056968	-0.696319325813	0.0211172308468	-0.91015625	0.4658203125	-0.0234375	-26.1875	11.9375	10.625
19	03	23	12	12	54	-0.391650930829	-0.696512454827	0.0189203348227	-0.923828125	0.48583984375	-0.01318359375	-21.125	12.3125	16.125
19	03	23	12	12	54	-0.392927017757	-0.698516576302	0.017394252883	-0.935546875	0.55126953125	-0.0693359375	-9.125	17.3125	10.75
19	03	23	12	12	54	-0.396049780005	-0.69957198003	0.0142209275298	-0.962890625	0.5322265625	-0.1240234375	-26.6875	15.125	13.125
19	03	23	12	12	54	-0.39989981045	-0.699397424901	0.0112303976073	-0.8798828125	0.5634765625	-0.0712890625	-29.3125	10.625	9.5
19	03	23	12	12	54	-0.403987151979	-0.698905707405	0.00756827418725	-0.943359375	0.544921875	-0.04443359375	-32.5	11.25	10.6875
19	03	23	12	12	54	-0.407224736	-0.698239055731	0.00354002318465	-0.96142578125	0.45068359375	-0.0205078125	-29.6875	10.0625	10.8125
19	03	23	12	12	54	-0.409909842501	-0.69811625648	6.10348187166e-05	-0.9609375	0.4716796875	-0.04931640625	-25.625	10.0	10.6875
19	03	23	12	12	54	-0.414121218766	-0.696956550787	-0.00286863629801	-0.9375	0.48291015625	-0.0458984375	-32.1875	4.8125	15.9375
19	03	23	12	12	54	-0.417780048705	-0.69609663338	-0.00482171276081	-0.93701171875	0.54345703125	-0.03955078125	-26.1875	3.5625	15.1875
19	03	23	12	12	54	-0.421369532979	-0.695467240483	-0.00634739736817	-0.94140625	0.5888671875	-0.01904296875	-22.9375	5.8125	14.8125
19	03	23	12	12	54	-0.425158600896	-0.694865155211	-0.00854467472372	-0.927734375	0.58349609375	-0.0185546875	-26.25	8.25	13.25
19	03	23	12	12	54	-0.429065801584	-0.693890341139	-0.0117184401002	-0.90185546875	0.5009765625	-0.015625	-30.5	7.8125	12.8125
19	03	23	12	12	54	-0.432015541179	-0.693190237521	-0.0151370237655	-0.9306640625	0.42236328125	-0.009765625	-26.4375	8.625	13.8125
19	03	23	12	12	54	-0.434263559408	-0.692807542212	-0.0174559912847	-0.9384765625	0.46826171875	-0.0009765625	-19.125	6.75	12.9375
19	03	23	12	12	54	-0.437004379117	-0.692798422815	-0.0179440345615	-0.908203125	0.583984375	0.0107421875	-13.9375	7.5	16.3125
19	03	23	12	12	54	-0.4404829595	-0.691882337382	-0.0206295192339	-0.90380859375	0.51416015625	0.01806640625	-25.5	8.125	12.6875
19	03	23	12	12	54	-0.442809752594	-0.692138193579	-0.0226440273208	-0.90380859375	0.55810546875	-0.02392578125	-18.375	10.3125	10.875
19	03	23	12	12	54	-0.446159704051	-0.691272887562	-0.0261836543143	-0.97705078125	0.50732421875	0.00537109375	-28.375	9.8125	12.4375
19	03	23	12	12	54	-0.44945088078	-0.68998400424	-0.0289909245479	-0.935546875	0.4814453125	0.05078125	-25.25	7.0625	13.8125
19	03	23	12	12	54	-0.451960377819	-0.689445567569	-0.0311275884791	-0.900390625	0.50390625	0.03076171875	-18.875	8.0	11.875
19	03	23	12	12	54	-0.454319627949	-0.688986335293	-0.0328350295321	-0.95556640625	0.5673828125	0.02880859375	-17.0625	6.375	11.9375
19	03	23	12	12	54	-0.457259830948	-0.687781771884	-0.0347888552644	-0.93798828125	0.51416015625	0.07666015625	-20.0625	5.6875	13.75
19	03	23	12	12	54	-0.459947523189	-0.686686515844	-0.0366810591078	-0.92724609375	0.50927734375	0.0869140625	-18.0	5.9375	13.25
19	03	23	12	12	54	-0.461912113747	-0.685971227062	-0.0382078466181	-0.91748046875	0.48291015625	0.10888671875	-12.3125	7.3125	13.1875
19	03	23	12	12	54	-0.464105221596	-0.685415786234	-0.039550260862	-0.89892578125	0.52392578125	0.0869140625	-12.875	7.375	12.5
19	03	23	12	12	54	-0.465694761228	-0.685358646635	-0.0407711796199	-0.87158203125	0.48388671875	0.05615234375	-10.4375	7.625	13.0
19	03	23	12	12	54	-0.467402604542	-0.68517388856	-0.0418697031491	-0.91015625	0.52294921875	0.0400390625	-11.5	5.5625	12.875
19	03	23	12	12	54	-0.469476613692	-0.684805980971	-0.0425409776058	-0.87890625	0.5615234375	0.05615234375	-11.375	5.0625	12.8125
19	03	23	12	12	54	-0.472098862085	-0.683826199198	-0.0436393906129	-0.88427734375	0.5693359375	0.08203125	-15.8125	4.3125	11.75
19	03	23	12	12	54	-0.474481056334	-0.682669232712	-0.04516542085	-0.8564453125	0.529296875	0.095703125	-15.9375	4.25	9.4375
19	03	23	12	12	54	-0.475993956118	-0.681552058978	-0.0477275642626	-0.939453125	0.4736328125	0.099609375	-15.0	4.5625	7.4375
19	03	23	12	12	54	-0.47764184322	-0.68051450957	-0.0488871858445	-0.88232421875	0.46337890625	0.1220703125	-10.25	3.1875	12.0625
19	03	23	12	12	54	-0.478760740321	-0.679871989602	-0.0493775419327	-0.85791015625	0.486328125	0.1416015625	-4.25	3.4375	10.5625
19	03	23	12	12	54	-0.479959494316	-0.67929160373	-0.0501076735546	-0.87646484375	0.52001953125	0.1357421875	-5.625	4.5625	9.125
19	03	23	12	12	54	-0.481496124498	-0.678513425789	-0.0511463749943	-0.87353515625	0.5126953125	0.138671875	-8.5625	5.1875	9.875
19	03	23	12	12	54	-0.483205210289	-0.677720178736	-0.0521229316139	-0.8935546875	0.50341796875	0.14404296875	-8.375	5.1875	12.25
19	03	23	12	12	54	-0.484689965902	-0.676588373256	-0.0527964765779	-0.90283203125	0.49462890625	0.17431640625	-6.6875	2.6875	11.8125
19	03	23	12	12	54	-0.486083525337	-0.675597506524	-0.0527953602984	-0.86669921875	0.54052734375	0.1826171875	-3.5625	1.75	10.125
19	03	23	12	12	54	-0.487780129131	-0.674420724086	-0.0529771211318	-0.84375	0.54833984375	0.21142578125	-4.9375	3.1875	9.625
19	03	23	12	12	54	-0.489014432444	-0.673340891004	-0.0538941267908	-0.84423828125	0.53564453125	0.19970703125	-5.25	4.375	4.9375
19	03	23	12	12	54	-0.489447459223	-0.672616411103	-0.0551765186603	-0.86376953125	0.49365234375	0.189453125	-3.0625	4.9375	3.75
19	03	23	12	12	54	-0.489566936779	-0.672124561502	-0.056457974881	-0.84326171875	0.47509765625	0.201171875	-0.3125	6.5	2.8125
19	03	23	12	12	54	-0.488888701227	-0.672237222885	-0.0568844281577	-0.8017578125	0.43798828125	0.18408203125	6.5625	5.75	4.0
19	03	23	12	12	54	-0.487785829244	-0.672902748676	-0.056151521885	-0.83203125	0.4892578125	0.19189453125	13.375	5.0625	6.0625
19	03	23	12	12	55	-0.487300976056	-0.673090576647	-0.0556636385475	-0.86474609375	0.4912109375	0.228515625	10.6875	5.875	8.125
19	03	23	12	12	55	-0.487157121706	-0.672999446385	-0.0552339257258	-0.85595703125	0.4931640625	0.2109375	7.625	3.875	8.5
19	03	23	12	12	55	-0.487365422178	-0.672301831596	-0.0554809228253	-0.85009765625	0.490234375	0.2119140625	2.1875	2.5625	5.5
19	03	23	12	12	55	-0.488507657586	-0.670752018599	-0.055845140766	-0.810546875	0.47900390625	0.23681640625	-3.0625	0.5	6.3125
19	03	23	12	12	55	-0.488597210386	-0.669753552726	-0.055787364184	-0.833984375	0.443359375	0.22998046875	4.125	-0.5	6.6875
19	03	23	12	12	55	-0.488215487041	-0.669366076556	-0.0548090395502	-0.880859375	0.47412109375	0.25390625	11.1875	0.75	9.875
19	03	23	12	12	55	-0.487722237766	-0.669420285799	-0.0529774624429	-0.83251953125	0.51171875	0.244140625	14.5625	1.1875	10.125
19	03	23	12	12	55	-0.487719519804	-0.668928286454	-0.0515123607452	-0.78857421875	0.5224609375	0.25732421875	10.4375	0.375	6.875
19	03	23	12	12	55	-0.487401812367	-0.668239724969	-0.051022779256	-0.84619140625	0.48388671875	0.26171875	8.875	0.75	5.5625
19	03	23	12	12	55	-0.486933073692	-0.667473062659	-0.0505365486358	-0.85693359375	0.49853515625	0.26220703125	8.8125	-0.25	4.3125
19	03	23	12	12	55	-0.487053109648	-0.66661579744	-0.0498649612259	-0.83984375	0.4794921875	0.2626953125	7.125	0.0	7.75
19	03	23	12	12	55	-0.486746450785	-0.666064453594	-0.0485220599842	-0.8134765625	0.47412109375	0.306640625	13.25	1.5	8.625
19	03	23	12	12	55	-0.486556725847	-0.665445055432	-0.0469345361485	-0.83203125	0.505859375	0.310546875	13.3125	0.625	8.8125
19	03	23	12	12	55	-0.486199251743	-0.664785620133	-0.0458977952938	-0.84814453125	0.52490234375	0.28369140625	11.1875	-0.0625	5.4375
19	03	23	12	12	55	-0.486123550272	-0.664155238425	-0.0447367937664	-0.81884765625	0.5185546875	0.2822265625	10.0625	0.6875	6.4375
19	03	23	12	12	55	-0.485892473824	-0.663257569783	-0.0441276546382	-0.80517578125	0.45849609375	0.2822265625	8.625	-0.5	6.0
19	03	23	12	12	55	-0.485094066566	-0.662945615381	-0.04272343314	-0.82763671875	0.490234375	0.28515625	14.9375	0.125	6.25
19	03	23	12	12	55	-0.484842302943	-0.662263825432	-0.0416241755547	-0.85205078125	0.5224609375	0.29248046875	10.5625	-0.125	6.8125
19	03	23	12	12	55	-0.485105292144	-0.661251979754	-0.0400999216078	-0.7939453125	0.53466796875	0.31201171875	9.9375	-0.9375	6.6875
19	03	23	12	12	55	-0.485149443467	-0.660130378732	-0.0391830346844	-0.841796875	0.51123046875	0.314453125	8.75	-1.1875	6.375
19	03	23	12	12	55	-0.484990589303	-0.659003699057	-0.0382694562664	-0.79736328125	0.5029296875	0.306640625	9.125	-2.0625	3.6875
19	03	23	12	12	55	-0.484921631994	-0.65789430727	-0.0372922740274	-0.80517578125	0.54541015625	0.31640625	8.6875	-1.5	2.6875
19	03	23	12	12	55	-0.485215054461	-0.656413573677	-0.0371693041719	-0.7998046875	0.4931640625	0.3251953125	4.4375	-0.25	3.1875
19	03	23	12	12	55	-0.485030143157	-0.655068393922	-0.0368029666948	-0.8173828125	0.52099609375	0.32470703125	7.125	-1.625	0.4375
19	03	23	12	12	55	-0.484927178805	-0.653507275452	-0.0367433809491	-0.76513671875	0.49658203125	0.31689453125	4.5625	-2.3125	-1.625
19	03	23	12	12	55	-0.484310202207	-0.652155577894	-0.0371701213792	-0.8349609375	0.50732421875	0.3173828125	5.5625	-1.8125	-3.1875
19	03	23	12	12	55	-0.484258107201	-0.650397578817	-0.0378422014702	-0.826171875	0.498046875	0.31201171875	1.0	-2.375	-2.375
19	03	23	12	12	55	-0.484302668177	-0.648605476335	-0.0381460828747	-0.79638671875	0.4833984375	0.326171875	2.375	-2.875	-1.125
19	03	23	12	12	55	-0.483705708947	-0.647097530127	-0.0382081733503	-0.79296875	0.44775390625	0.33837890625	7.25	-2.6875	-1.5625
19	03	23	12	12	55	-0.483091333392	-0.645810410438	-0.0377195759995	-0.8251953125	0.49609375	0.34716796875	8.875	-2.875	-0.3125
19	03	23	12	12	55	-0.483010770626	-0.64407539328	-0.0372297915191	-0.78369140625	0.4921875	0.3623046875	6.5	-3.3125	-0.0625
19	03	23	12	12	55	-0.483022036683	-0.642320433921	-0.0370475582849	-0.8046875	0.47119140625	0.36181640625	5.1875	-3.0625	1.125
19	03	23	12	12	55	-0.482591523273	-0.640851270313	-0.0368031729523	-0.802734375	0.47216796875	0.34423828125	6.875	-3.1875	-0.3125
19	03	23	12	12	55	-0.482654514675	-0.639022858959	-0.0370474570571	-0.806640625	0.49658203125	0.35693359375	2.25	-2.8125	-1.8125
19	03	23	12	12	55	-0.483016628014	-0.637064387567	-0.0375354089245	-0.78662109375	0.47119140625	0.34326171875	-0.25	-2.6875	-1.0625
19	03	23	12	12	55	-0.483078754392	-0.634990696234	-0.0386340936867	-0.84765625	0.43359375	0.3603515625	-0.6875	-2.875	-0.5625
19	03	23	12	12	55	-0.482719103398	-0.633168286591	-0.0386346178342	-0.796875	0.44677734375	0.3671875	5.1875	-4.375	-1.5
19	03	23	12	12	55	-0.481751899788	-0.631898824085	-0.038818473111	-0.85986328125	0.46240234375	0.36279296875	7.5625	-2.75	-2.25
19	03	23	12	12	55	-0.480952694488	-0.630548513547	-0.0393062861993	-0.8525390625	0.44873046875	0.3505859375	5.1875	-2.8125	-2.0625
19	03	23	12	12	55	-0.480654485834	-0.629092798158	-0.039673068672	-0.82421875	0.44775390625	0.3388671875	3.0625	-2.8125	-0.9375
19	03	23	12	12	55	-0.479793936008	-0.627864167373	-0.0396115334524	-0.81787109375	0.42333984375	0.357421875	8.0	-3.0625	-0.4375
19	03	23	12	12	55	-0.478700600261	-0.627260750846	-0.0386964402098	-0.83642578125	0.45947265625	0.3466796875	12.5	-2.5	1.4375
19	03	23	12	12	55	-0.477595752022	-0.626459143611	-0.0373531757492	-0.8291015625	0.48388671875	0.36669921875	13.875	-4.375	0.8125
19	03	23	12	12	55	-0.477295706891	-0.625245168976	-0.0362549424416	-0.79931640625	0.5	0.3662109375	8.5	-4.0	0.9375
19	03	23	12	12	55	-0.476926694398	-0.623471484934	-0.0363767993168	-0.85693359375	0.4453125	0.39794921875	5.0	-4.0	0.3125
19	03	23	12	12	55	-0.476439338141	-0.622007852292	-0.0366210098494	-0.8544921875	0.4658203125	0.37158203125	4.4375	-3.4375	-1.75
19	03	23	12	12	55	-0.475389426026	-0.620771068444	-0.0363148938869	-0.83544921875	0.4423828125	0.3779296875	9.125	-4.1875	-1.5625
19	03	23	12	12	55	-0.474493435737	-0.619453804901	-0.0365605310016	-0.8095703125	0.439453125	0.359375	5.6875	-3.5625	-3.75
19	03	23	12	12	55	-0.473683477166	-0.61778432623	-0.0370475287514	-0.830078125	0.41845703125	0.3701171875	4.25	-4.9375	-3.8125
19	03	23	12	12	55	-0.473207262256	-0.61590796897	-0.0379029678655	-0.85986328125	0.45751953125	0.3701171875	0.3125	-5.375	-4.5625
19	03	23	12	12	56	-0.473317802315	-0.613573677198	-0.0391227222803	-0.83935546875	0.42529296875	0.38720703125	-3.6875	-4.875	-3.25
19	03	23	12	12	56	-0.473142730764	-0.611753043143	-0.0409544339967	-0.8408203125	0.4658203125	0.37451171875	-4.8125	-1.1875	-7.5625
19	03	23	12	12	56	-0.473020189548	-0.609921387632	-0.042297160175	-0.8466796875	0.45751953125	0.36474609375	-3.6875	-3.4375	-5.5
19	03	23	12	12	56	-0.472166595886	-0.608518738493	-0.0435789748529	-0.83251953125	0.40673828125	0.3505859375	0.375	-2.75	-6.375
19	03	23	12	12	56	-0.470459322626	-0.607483346925	-0.0443115552967	-0.89013671875	0.3994140625	0.38232421875	7.625	-3.125	-5.5625
19	03	23	12	12	56	-0.469357440331	-0.606136377104	-0.0445553877037	-0.81787109375	0.43505859375	0.39599609375	6.0625	-3.5625	-6.25
19	03	23	12	12	56	-0.468435214288	-0.603869447578	-0.0455923263938	-0.86962890625	0.4267578125	0.42138671875	1.1875	-6.875	-8.5625
19	03	23	12	12	56	-0.467824802924	-0.601794201804	-0.0465078277662	-0.857421875	0.396484375	0.408203125	0.375	-5.75	-4.9375
19	03	23	12	12	56	-0.46714450654	-0.599829659037	-0.0474834630373	-0.84912109375	0.384765625	0.419921875	1.5625	-4.625	-4.9375
19	03	23	12	12	56	-0.465813085945	-0.598501457125	-0.0479118543589	-0.84228515625	0.3642578125	0.404296875	6.75	-3.6875	-4.3125
19	03	23	12	12	56	-0.463982070034	-0.598013196816	-0.0477287527975	-0.8525390625	0.3759765625	0.37939453125	11.875	-3.0625	-3.1875
19	03	23	12	12	56	-0.462752097041	-0.597329830354	-0.0475446958052	-0.8837890625	0.392578125	0.3779296875	8.8125	-3.4375	-0.5
19	03	23	12	12	56	-0.461792343991	-0.596863247672	-0.0464477892912	-0.8466796875	0.43310546875	0.37255859375	10.625	-3.5625	0.8125
19	03	23	12	12	56	-0.460861010958	-0.59617141505	-0.0459579315655	-0.84130859375	0.39697265625	0.373046875	8.375	-3.6875	0.4375
19	03	23	12	12	56	-0.459101105834	-0.595452059096	-0.0456537659085	-0.8818359375	0.3564453125	0.3876953125	11.8125	-4.5625	-1.1875
19	03	23	12	12	56	-0.457024539452	-0.595145070005	-0.0449822496763	-0.9052734375	0.37255859375	0.375	14.5625	-4.9375	-1.125
19	03	23	12	12	56	-0.455974289147	-0.59464027562	-0.0437603487242	-0.86328125	0.40087890625	0.3681640625	11.5	-5.4375	2.625
19	03	23	12	12	56	-0.455077306173	-0.594054106892	-0.0421752170823	-0.82568359375	0.41748046875	0.392578125	12.8125	-4.5	2.6875
19	03	23	12	12	56	-0.453487320331	-0.593989044611	-0.0400997536282	-0.8427734375	0.43017578125	0.3779296875	17.125	-5.125	1.4375
19	03	23	12	12	56	-0.451968886368	-0.59338845554	-0.0386355577409	-0.87451171875	0.4208984375	0.3984375	14.8125	-6.1875	0.125
19	03	23	12	12	56	-0.450491510777	-0.592822658743	-0.0375358730698	-0.90087890625	0.40234375	0.40234375	13.375	-5.5	1.1875
19	03	23	12	12	56	-0.449449761552	-0.591840621641	-0.0363148571596	-0.85595703125	0.41015625	0.4140625	11.375	-5.875	0.875
19	03	23	12	12	56	-0.448613681183	-0.591010377537	-0.0349125204948	-0.81787109375	0.4345703125	0.40869140625	11.0625	-4.9375	0.75
19	03	23	12	12	56	-0.447746420394	-0.589833888589	-0.0346673891472	-0.853515625	0.38427734375	0.39306640625	6.3125	-6.0	-0.3125
19	03	23	12	12	56	-0.446352083033	-0.589174983935	-0.0339967332489	-0.861328125	0.404296875	0.380859375	10.25	-5.4375	-1.6875
19	03	23	12	12	56	-0.445380048276	-0.588021294379	-0.0339360431467	-0.84619140625	0.36474609375	0.38232421875	5.6875	-6.0625	-0.6875
19	03	23	12	12	56	-0.443966982741	-0.587703887382	-0.0327146415657	-0.84130859375	0.41552734375	0.3603515625	12.1875	-5.75	-0.5
19	03	23	12	12	56	-0.442860309248	-0.58696080403	-0.0322868114102	-0.83447265625	0.36767578125	0.37353515625	8.0	-5.0	0.3125
19	03	23	12	12	56	-0.441412231504	-0.586983051767	-0.030640063636	-0.7958984375	0.396484375	0.3330078125	14.3125	-5.1875	0.8125
19	03	23	12	12	56	-0.439193740053	-0.586832658505	-0.0296010233359	-0.845703125	0.357421875	0.3603515625	15.4375	-5.75	-1.75
19	03	23	12	12	56	-0.437199545832	-0.586798329419	-0.0281985467226	-0.87841796875	0.37939453125	0.37451171875	16.5625	-5.375	0.6875
19	03	23	12	12	56	-0.436029752925	-0.586113342293	-0.0269772047582	-0.84765625	0.38134765625	0.38623046875	11.5	-6.375	2.375
19	03	23	12	12	56	-0.434257990424	-0.585866823623	-0.0253902071703	-0.87353515625	0.40625	0.3984375	16.1875	-5.75	0.25
19	03	23	12	12	56	-0.432500758809	-0.585273747703	-0.0240481652513	-0.89697265625	0.4208984375	0.40478515625	14.125	-7.25	-1.0
19	03	23	12	12	56	-0.43090405279	-0.584405992275	-0.0237424471013	-0.9150390625	0.4033203125	0.3916015625	8.5	-7.5	-2.875
19	03	23	12	12	56	-0.429502290509	-0.583493235366	-0.0237425594725	-0.90234375	0.3955078125	0.37255859375	6.125	-7.4375	-2.75
19	03	23	12	12	56	-0.427679448332	-0.582588887445	-0.0234988707874	-0.91650390625	0.38037109375	0.4111328125	10.125	-7.125	-3.4375
19	03	23	12	12	56	-0.426386348713	-0.581230632522	-0.0236813488836	-0.9111328125	0.34912109375	0.40966796875	5.75	-8.1875	-1.25
19	03	23	12	12	56	-0.424259180879	-0.580632655402	-0.0224611391977	-0.8837890625	0.384765625	0.38916015625	14.4375	-8.6875	-2.6875
19	03	23	12	12	56	-0.42302454379	-0.579453905459	-0.0220941977856	-0.89599609375	0.3671875	0.38671875	7.0	-9.5	-0.625
19	03	23	12	12	56	-0.421089670385	-0.5787465219	-0.0207523536644	-0.8681640625	0.380859375	0.404296875	14.5	-8.5	-1.6875
19	03	23	12	12	56	-0.419544222833	-0.577804067146	-0.0197748513526	-0.86572265625	0.35595703125	0.39794921875	11.3125	-8.9375	-0.375
19	03	23	12	12	56	-0.417776385977	-0.577196681108	-0.0185542763093	-0.85986328125	0.388671875	0.38623046875	12.8125	-8.0	-1.8125
19	03	23	12	12	56	-0.416318634169	-0.576168876492	-0.0181273470676	-0.87353515625	0.365234375	0.3876953125	7.875	-9.0	-1.9375
19	03	23	12	12	56	-0.41471681316	-0.575049567858	-0.0178825645704	-0.86279296875	0.32080078125	0.4091796875	9.3125	-7.75	-1.5
19	03	23	12	12	56	-0.412709790822	-0.574021825301	-0.0173335670798	-0.8564453125	0.30322265625	0.41357421875	12.375	-8.4375	-1.9375
19	03	23	12	12	56	-0.410949442185	-0.573119747826	-0.0159912006316	-0.86962890625	0.3623046875	0.40673828125	13.125	-10.0625	-0.6875
19	03	23	12	12	56	-0.409293660011	-0.571704997513	-0.0148312495351	-0.8583984375	0.36279296875	0.41064453125	11.125	-12.1875	-2.0625
19	03	23	12	12	56	-0.407544243297	-0.569963777731	-0.0139774796638	-0.89892578125	0.38916015625	0.39892578125	8.1875	-15.9375	-4.5
19	03	23	12	12	57	-0.406498055169	-0.567510347893	-0.0139771853805	-0.87109375	0.37109375	0.423828125	1.75	-15.4375	-4.9375
19	03	23	12	12	57	-0.405330749831	-0.565119321289	-0.0139158878123	-0.865234375	0.421875	0.42236328125	1.0625	-15.5	-8.375
19	03	23	12	12	57	-0.404168752789	-0.562796748636	-0.0156858002819	-0.89453125	0.3466796875	0.43310546875	-4.625	-11.5	-9.625
19	03	23	12	12	57	-0.402037077266	-0.560666857714	-0.0170287451886	-0.974609375	0.28857421875	0.45654296875	2.625	-13.5	-7.4375
19	03	23	12	12	57	-0.399835595643	-0.559013008777	-0.0170285652854	-0.91748046875	0.24755859375	0.48193359375	11.3125	-10.75	-1.8125
19	03	23	12	12	57	-0.397516871106	-0.558525546982	-0.0140379057814	-0.892578125	0.390625	0.47412109375	22.6875	-10.1875	-0.3125
19	03	23	12	12	57	-0.395502297749	-0.557426309466	-0.0132444442302	-0.88916015625	0.31591796875	0.4794921875	13.1875	-8.5	-2.375
19	03	23	12	12	57	-0.393058280444	-0.557178422698	-0.0125119483682	-0.93994140625	0.3232421875	0.41845703125	14.1875	-8.0	-2.5
19	03	23	12	12	57	-0.391299092953	-0.556583439189	-0.0106812262154	-0.8662109375	0.35888671875	0.4375	15.125	-9.0625	0.125
19	03	23	12	12	57	-0.389525486374	-0.555845911063	-0.0095214628446	-0.8583984375	0.32763671875	0.43359375	12.9375	-8.375	-0.9375
19	03	23	12	12	57	-0.387139009394	-0.555531966499	-0.00817856333892	-0.892578125	0.33447265625	0.44287109375	16.75	-7.0625	-2.4375
19	03	23	12	12	57	-0.385317023485	-0.554934639241	-0.00665286798034	-0.8994140625	0.36767578125	0.4462890625	14.125	-8.875	-0.8125
19	03	23	12	12	57	-0.383178281275	-0.554320667496	-0.00579833334201	-0.8671875	0.31787109375	0.45068359375	13.5625	-7.0625	-3.125
19	03	23	12	12	57	-0.381041559221	-0.553770633799	-0.00451659064269	-0.876953125	0.32373046875	0.443359375	15.4375	-7.9375	-1.3125
19	03	23	12	12	57	-0.378719068641	-0.553094633364	-0.00299069046952	-0.8662109375	0.31640625	0.43408203125	16.1875	-10.125	-2.0
19	03	23	12	12	57	-0.375858022058	-0.552983708972	-0.00115967885988	-0.8984375	0.31884765625	0.42333984375	20.1875	-9.375	-2.0
19	03	23	12	12	57	-0.373587449409	-0.55217213769	0.000915505920786	-0.9013671875	0.3193359375	0.447265625	18.625	-12.375	0.9375
19	03	23	12	12	57	-0.371385301837	-0.551188276235	0.00299061294824	-0.833984375	0.31494140625	0.4453125	17.875	-11.75	-0.6875
19	03	23	12	12	57	-0.369077063438	-0.550289201912	0.00518795276869	-0.8984375	0.32666015625	0.4658203125	19.125	-12.125	0.5625
19	03	23	12	12	57	-0.366993918142	-0.548934525157	0.00726297626126	-0.86328125	0.3076171875	0.470703125	17.9375	-13.625	0.8125
19	03	23	12	12	57	-0.364794774072	-0.547527843099	0.00946012882402	-0.88427734375	0.3466796875	0.51416015625	18.5	-12.6875	-1.0625
19	03	23	12	12	57	-0.36279155981	-0.546262526968	0.0116576695699	-0.8798828125	0.37451171875	0.4970703125	16.6875	-12.375	-1.25
19	03	23	12	12	57	-0.36053752544	-0.54517033642	0.0133057695185	-0.85498046875	0.3369140625	0.45703125	15.4375	-12.25	-3.25
19	03	23	12	12	57	-0.357911888911	-0.544497264832	0.0145264375104	-0.880859375	0.32958984375	0.4580078125	15.5	-10.0	-4.4375
19	03	23	12	12	57	-0.355724137569	-0.543230065951	0.0156865311179	-0.85498046875	0.3203125	0.470703125	13.625	-11.625	-3.1875
19	03	23	12	12	57	-0.353035806912	-0.541944144116	0.0173954365439	-0.82470703125	0.32177734375	0.48095703125	17.375	-12.3125	-5.375
19	03	23	12	12	57	-0.350158058101	-0.540953611461	0.018798794125	-0.8896484375	0.33251953125	0.48388671875	16.9375	-11.75	-5.75
19	03	23	12	12	57	-0.34801578553	-0.5397235341	0.0198970792849	-0.85693359375	0.326171875	0.48388671875	13.0	-11.125	-3.875
19	03	23	12	12	57	-0.345270989963	-0.538444524209	0.0198361449068	-0.8955078125	0.27197265625	0.494140625	11.5	-10.6875	-6.6875
19	03	23	12	12	57	-0.342592270669	-0.53766173389	0.0206299995521	-0.91357421875	0.3203125	0.47998046875	13.75	-10.1875	-5.1875
19	03	23	12	12	57	-0.340824267543	-0.536383177501	0.0214235884505	-0.89208984375	0.35546875	0.49853515625	9.875	-10.375	-3.875
19	03	23	12	12	57	-0.338678834757	-0.535208992969	0.0217281789825	-0.904296875	0.3173828125	0.49365234375	9.625	-10.5	-4.625
19	03	23	12	12	57	-0.335815786851	-0.534912678293	0.0229492431581	-0.94091796875	0.3515625	0.4658203125	15.8125	-9.6875	-5.8125
19	03	23	12	12	57	-0.333921501906	-0.533749503595	0.024169788842	-0.87451171875	0.3662109375	0.478515625	10.9375	-11.75	-4.375
19	03	23	12	12	57	-0.330995372458	-0.532961754067	0.0245972957958	-0.8701171875	0.287109375	0.4814453125	13.5625	-9.0	-7.4375
19	03	23	12	12	57	-0.328003767307	-0.532349992269	0.0257569017126	-0.8857421875	0.31591796875	0.4609375	15.9375	-11.0	-6.8125
19	03	23	12	12	57	-0.325259690717	-0.531499603446	0.0261233153738	-0.8837890625	0.27978515625	0.45654296875	11.9375	-10.9375	-6.3125
19	03	23	12	12	57	-0.322144510554	-0.531190540991	0.0272827957972	-0.9013671875	0.25439453125	0.44384765625	17.9375	-10.75	-3.1875
19	03	23	12	12	57	-0.319405630926	-0.5305929963	0.0300911477253	-0.82275390625	0.3203125	0.4658203125	22.4375	-11.125	-2.3125
19	03	23	12	12	57	-0.316587602914	-0.529599119044	0.0317991403736	-0.853515625	0.27001953125	0.49755859375	19.3125	-11.125	-2.9375
19	03	23	12	12	57	-0.313119766802	-0.528641384069	0.0344248632508	-0.85107421875	0.26806640625	0.48291015625	25.125	-14.3125	-3.0625
19	03	23	12	12	57	-0.309015971259	-0.528677926733	0.03802428404	-0.9140625	0.2880859375	0.43505859375	31.1875	-14.9375	-2.0
19	03	23	12	12	57	-0.305602882759	-0.52868627331	0.0421752730151	-0.8515625	0.34521484375	0.408203125	29.4375	-14.1875	-1.1875
19	03	23	12	12	57	-0.302678303987	-0.528328977478	0.0455940094936	-0.83349609375	0.33251953125	0.4296875	25.1875	-13.25	-0.8125
19	03	23	12	12	57	-0.29961519212	-0.527942842094	0.0494374222077	-0.85498046875	0.3251953125	0.4326171875	27.6875	-14.6875	1.0
19	03	23	12	12	57	-0.296687436552	-0.527274792094	0.0534049592641	-0.849609375	0.330078125	0.455078125	27.8125	-14.875	1.625
19	03	23	12	12	57	-0.295053854418	-0.525957605196	0.0582905318512	-0.806640625	0.41796875	0.490234375	25.625	-15.5	5.125
19	03	23	12	12	57	-0.293271191216	-0.52465331107	0.0618890713616	-0.82373046875	0.37744140625	0.48583984375	21.25	-14.75	3.3125
19	03	23	12	12	57	-0.29082894101	-0.524041403465	0.0659171576685	-0.890625	0.41943359375	0.4951171875	25.5	-13.25	1.375
19	03	23	12	12	57	-0.289308545569	-0.523135768792	0.0684818962296	-0.88134765625	0.4267578125	0.47998046875	14.9375	-12.5625	1.0
19	03	23	12	12	57	-0.2874103307	-0.522453266254	0.0697621592673	-0.89453125	0.35693359375	0.451171875	12.0	-11.8125	0.0625
19	03	23	12	12	58	-0.285270111496	-0.521347302611	0.0722025121738	-0.83984375	0.408203125	0.49755859375	16.875	-12.25	-2.75
19	03	23	12	12	58	-0.28381524595	-0.51953448893	0.0737309284102	-0.814453125	0.4365234375	0.55126953125	9.9375	-10.875	-4.625
19	03	23	12	12	58	-0.2807577297	-0.518913525633	0.0733632154565	-0.93896484375	0.3369140625	0.50830078125	9.875	-9.5625	-9.1875
19	03	23	12	12	58	-0.277281506807	-0.518308288752	0.0726925543928	-0.92529296875	0.28173828125	0.470703125	9.9375	-11.4375	-9.75
19	03	23	12	12	58	-0.274116152384	-0.518080138374	0.0731830921195	-0.875	0.32373046875	0.43212890625	12.4375	-10.1875	-8.4375
19	03	23	12	12	58	-0.271901268832	-0.517070157025	0.0743379899973	-0.81982421875	0.33984375	0.46533203125	12.25	-11.5	-4.375
