18	12	18	11	33	05	-0.305852401227	-0.142031238806	0.00231937562296	-0.18505859375	0.12060546875	0.994140625	-6.375	-2.6875	1.1875
18	12	18	11	33	05	-0.305967994171	-0.140685463109	0.00280760577136	-0.177734375	0.13525390625	1.0078125	-2.5625	-1.5625	-0.75
18	12	18	11	33	05	-0.305974003428	-0.139711648483	0.00354009419486	-0.18896484375	0.12841796875	0.998046875	0.0625	-1.25	-0.6875
18	12	18	11	33	05	-0.305798656741	-0.138677554514	0.00421159826649	-0.21142578125	0.1025390625	1.0234375	1.5625	-2.4375	-1.3125
18	12	18	11	33	05	-0.305486684204	-0.137392712516	0.00524912184646	-0.19580078125	0.09912109375	1.01953125	3.5625	-3.9375	-1.8125
18	12	18	11	33	05	-0.30493342296	-0.136536442586	0.00689701296927	-0.18798828125	0.1005859375	1.0087890625	7.8125	-2.5	-2.625
18	12	18	11	33	05	-0.304328794903	-0.13641693875	0.00836202264374	-0.21337890625	0.08349609375	0.99462890625	9.4375	-0.125	-2.6875
18	12	18	11	33	05	-0.303957958224	-0.135987616651	0.00970468179872	-0.201171875	0.10595703125	1.001953125	6.6875	-0.8125	-1.75
18	12	18	11	33	05	-0.303769549281	-0.135191792577	0.0104979631256	-0.1708984375	0.125	0.99267578125	1.5625	-0.1875	-1.4375
18	12	18	11	33	05	-0.303345388207	-0.13439970721	0.0101318580367	-0.158203125	0.09033203125	0.9755859375	-2.3125	2.6875	-3.5625
18	12	18	11	33	05	-0.302672190881	-0.133849589555	0.00964351808009	-0.1640625	0.07373046875	0.9853515625	-1.375	3.5	-4.8125
18	12	18	11	33	05	-0.302000097943	-0.133238927609	0.00952142588503	-0.1982421875	0.0986328125	0.99365234375	-1.125	0.25	-4.375
18	12	18	11	33	05	-0.302074876923	-0.131902163877	0.00939978400608	-0.1884765625	0.12451171875	0.97900390625	-4.625	-3.0625	-0.875
18	12	18	11	33	05	-0.302248108666	-0.130432998429	0.00903326334461	-0.1416015625	0.103515625	0.9638671875	-5.1875	-0.875	-0.375
18	12	18	11	33	05	-0.301465795193	-0.129766406273	0.00921671088766	-0.162109375	0.0703125	0.9775390625	1.8125	1.375	-4.6875
18	12	18	11	33	05	-0.300230318004	-0.129760043927	0.0104979903836	-0.228515625	0.09375	1.00048828125	8.375	-1.5	-6.625
18	12	18	11	33	05	-0.299676500593	-0.128720517261	0.0126950533856	-0.19189453125	0.16455078125	1.001953125	6.3125	-6.0625	-3.1875
18	12	18	11	33	05	-0.299380230173	-0.127625700569	0.0148316811278	-0.13671875	0.17333984375	0.98681640625	5.4375	-2.9375	-2.0625
18	12	18	11	33	05	-0.298395542114	-0.128110501718	0.0164791974577	-0.19775390625	0.11865234375	0.9990234375	9.6875	2.5	-5.0625
18	12	18	11	33	05	-0.297789855631	-0.128234574028	0.0184936106284	-0.2177734375	0.15185546875	1.04443359375	9.4375	-0.5625	-2.6875
18	12	18	11	33	05	-0.298044153421	-0.127567536484	0.0203863909979	-0.185546875	0.20068359375	1.03515625	3.5625	-2.875	1.0625
18	12	18	11	33	05	-0.298776660384	-0.127140303081	0.020813654993	-0.1865234375	0.15185546875	1.00732421875	-1.25	0.625	3.4375
18	12	18	11	33	05	-0.2993195312	-0.126527199873	0.020446990814	-0.1728515625	0.1064453125	1.02734375	-2.5	2.0625	2.75
18	12	18	11	33	05	-0.299627945561	-0.125307837082	0.020142029341	-0.1708984375	0.126953125	1.0419921875	-4.0625	-1.125	0.625
18	12	18	11	33	05	-0.299616926006	-0.124326681254	0.0194088780749	-0.2109375	0.09814453125	1.01318359375	-4.75	-2.5625	-0.625
18	12	18	11	33	05	-0.299690186698	-0.123538276554	0.0184330827664	-0.21142578125	0.06884765625	0.98291015625	-3.9375	-1.8125	0.1875
18	12	18	11	33	05	-0.299997205906	-0.123233847146	0.0183111214185	-0.2177734375	0.1015625	0.97021484375	-0.8125	-1.0625	1.8125
18	12	18	11	33	05	-0.300350006695	-0.123167306139	0.0183103031921	-0.25244140625	0.12109375	0.951171875	-1.625	-2.4375	2.0
18	12	18	11	33	05	-0.300716677093	-0.12286232413	0.0173948148917	-0.27294921875	0.10009765625	0.9453125	-5.3125	-4.0625	1.9375
18	12	18	11	33	05	-0.301032161348	-0.122500313833	0.015991570615	-0.28564453125	0.0810546875	0.9462890625	-7.1875	-4.25	1.6875
18	12	18	11	33	05	-0.30151799358	-0.122438278365	0.0149538276168	-0.283203125	0.10302734375	0.9599609375	-6.125	-2.625	2.4375
18	12	18	11	33	05	-0.301887794616	-0.122989063112	0.0137943068304	-0.31640625	0.07275390625	0.94384765625	-3.875	-1.5625	2.5625
18	12	18	11	33	05	-0.302248163276	-0.123780144411	0.0125733282784	-0.3408203125	0.06298828125	0.9599609375	-3.25	-1.3125	2.75
18	12	18	11	33	05	-0.302806417224	-0.124150020688	0.0117191759942	-0.29736328125	0.07421875	0.96728515625	-2.9375	-1.3125	3.375
18	12	18	11	33	05	-0.303352732699	-0.124331894669	0.0111697283871	-0.2705078125	0.0888671875	0.9658203125	-2.6875	-0.5625	3.3125
18	12	18	11	33	05	-0.303892291635	-0.124694105606	0.010497986375	-0.27587890625	0.091796875	0.9716796875	-3.0625	0.0	3.25
18	12	18	11	33	05	-0.304577842344	-0.124577830907	0.010010173576	-0.2587890625	0.1083984375	0.97216796875	-4.25	-1.75	3.6875
18	12	18	11	33	06	-0.305368581386	-0.124088412144	0.0100711205134	-0.2314453125	0.10546875	0.9658203125	-1.8125	-2.9375	4.5
18	12	18	11	33	06	-0.306096940017	-0.123720537869	0.0108034214124	-0.22314453125	0.09765625	0.966796875	2.4375	-2.5625	4.75
18	12	18	11	33	06	-0.306896545052	-0.123356785511	0.0119023123081	-0.212890625	0.13916015625	0.9609375	1.9375	-2.9375	4.5625
18	12	18	11	33	06	-0.307614580467	-0.122740658992	0.0128783088251	-0.21142578125	0.150390625	0.96142578125	0.125	-4.1875	4.125
18	12	18	11	33	06	-0.308294086422	-0.121706277633	0.0135500469581	-0.20947265625	0.14501953125	0.97314453125	-1.75	-5.8125	3.4375
18	12	18	11	33	06	-0.308842615881	-0.120790422298	0.0136720841813	-0.2421875	0.13720703125	0.982421875	-3.6875	-6.8125	2.75
18	12	18	11	33	06	-0.309397309113	-0.119693849511	0.0138554328603	-0.24853515625	0.11328125	0.98876953125	-2.375	-7.875	3.4375
18	12	18	11	33	06	-0.309944615793	-0.118716478479	0.0145877832167	-0.20849609375	0.1015625	0.9892578125	1.8125	-5.875	3.4375
18	12	18	11	33	06	-0.309935072111	-0.11834661379	0.0156859617039	-0.21923828125	0.0947265625	0.98095703125	6.0625	-4.0625	0.9375
18	12	18	11	33	06	-0.309874683684	-0.118285825681	0.0171508343737	-0.244140625	0.111328125	0.9658203125	7.5	-5.25	0.6875
18	12	18	11	33	06	-0.310125546449	-0.117861135641	0.0177615693794	-0.24658203125	0.1220703125	0.962890625	1.1875	-6.0	1.8125
18	12	18	11	33	06	-0.310562002275	-0.117010094018	0.0175179431315	-0.22998046875	0.1103515625	0.95947265625	-3.75	-5.4375	2.5
18	12	18	11	33	06	-0.310864322405	-0.11554411198	0.0156866543998	-0.2216796875	0.07958984375	0.97998046875	-11.375	-5.4375	0.75
18	12	18	11	33	06	-0.311287412693	-0.114443901725	0.0120242392746	-0.2265625	0.04736328125	1.00732421875	-18.5625	-0.3125	0.5625
18	12	18	11	33	06	-0.312318503624	-0.113770117404	0.00616458254173	-0.25	0.0322265625	1.03369140625	-29.625	5.3125	3.1875
18	12	18	11	33	06	-0.313417055112	-0.11395319219	0.000183106361312	-0.2744140625	0.0556640625	1.0498046875	-31.5	9.0	3.1875
18	12	18	11	33	06	-0.31415062103	-0.116333997218	-0.00451663997595	-0.2734375	0.15625	1.0673828125	-27.625	19.4375	0.8125
18	12	18	11	33	06	-0.314223218276	-0.122014804455	-0.00708039885782	-0.26513671875	0.1953125	1.00244140625	-12.4375	34.375	-1.875
18	12	18	11	33	06	-0.314328423541	-0.132994492213	-0.00592036059873	-0.373046875	0.216796875	0.95068359375	16.0625	49.8125	2.625
18	12	18	11	33	06	-0.31714819584	-0.146549811049	-0.00329599741636	-0.65869140625	0.21533203125	0.86669921875	27.0	42.5625	22.75
18	12	18	11	33	06	-0.326674038966	-0.157111168965	0.00183113250542	-0.8251953125	0.29150390625	0.72412109375	24.9375	10.9375	64.625
18	12	18	11	33	06	-0.339660433853	-0.16174306374	0.00659179278637	-0.56103515625	0.34716796875	0.705078125	5.5	-1.9375	81.4375
18	12	18	11	33	06	-0.353710788063	-0.166021284475	0.00079348408021	-0.4150390625	0.24169921875	0.599609375	-45.9375	25.25	79.125
18	12	18	11	33	06	-0.367381434696	-0.172734583849	-0.0138553888812	-0.6748046875	0.017578125	0.47412109375	-74.0625	38.25	76.4375
18	12	18	11	33	06	-0.369441105648	-0.168149718497	-0.0377192471981	-0.90380859375	-0.8994140625	0.92431640625	-121.375	17.3125	-5.625
18	12	18	11	33	06	-0.355153422604	-0.164179877437	-0.052183566992	-0.47705078125	-0.9541015625	1.39990234375	-3.0625	8.375	-78.0625
18	12	18	11	33	06	-0.344537047931	-0.174557299749	-0.0333856094275	-0.23095703125	-0.14404296875	1.05810546875	134.4375	19.5625	-40.125
18	12	18	11	33	06	-0.344052208672	-0.189817698948	-0.0159300384004	-0.650390625	0.474609375	0.69140625	115.9375	42.375	20.8125
18	12	18	11	33	06	-0.343076033531	-0.205198652327	-0.00134276334063	-0.6044921875	0.55908203125	0.7080078125	78.75	35.25	8.375
18	12	18	11	33	06	-0.339111168951	-0.205200098994	0.00256347535924	-0.06494140625	0.60400390625	0.95849609375	-3.875	11.8125	-34.375
18	12	18	11	33	06	-0.337958622465	-0.201237055854	-0.00262456578761	-0.13427734375	0.33154296875	0.6171875	-49.4375	-4.875	-21.9375
18	12	18	11	33	06	-0.338142318111	-0.214360256535	-0.0158694950738	-1.2861328125	-0.140625	0.44091796875	-31.8125	29.1875	6.4375
18	12	18	11	33	06	-0.338313417798	-0.223568834457	-0.0310664855961	-0.84521484375	0.07421875	0.5419921875	-63.625	44.0625	-7.8125
18	12	18	11	33	06	-0.340157424898	-0.234747076289	-0.0377817057262	-0.3701171875	-0.015625	0.646484375	-11.4375	73.375	12.9375
18	12	18	11	33	06	-0.337153387677	-0.248897812264	-0.0422357248865	-0.5654296875	-0.00341796875	0.92578125	13.6875	83.5625	-9.4375
18	12	18	11	33	06	-0.334666015591	-0.252815363228	-0.0443739181715	-0.271484375	0.30517578125	1.1904296875	-11.25	50.1875	-23.375
18	12	18	11	33	06	-0.328866016826	-0.253058371522	-0.0413829174848	-0.30517578125	0.232421875	1.32861328125	19.3125	20.6875	-35.8125
18	12	18	11	33	06	-0.322640328879	-0.239630331286	-0.0302742344162	-0.0830078125	0.35009765625	1.63330078125	33.0625	-50.125	-42.3125
18	12	18	11	33	06	-0.318360707458	-0.226563448252	-0.0123901885763	0.0234375	0.26025390625	1.17333984375	69.9375	-71.1875	-17.375
18	12	18	11	33	06	-0.317756861054	-0.225652538478	0.00396738301354	-0.36328125	0.1279296875	0.74853515625	85.5625	-36.4375	17.0625
18	12	18	11	33	06	-0.317081217016	-0.233156929548	0.0130006350769	-0.6201171875	0.13525390625	0.53466796875	60.1875	2.4375	14.5
18	12	18	11	33	06	-0.316045941238	-0.238590881479	0.0124514044057	-0.4873046875	0.15771484375	0.67431640625	6.625	20.9375	-3.6875
18	12	18	11	33	06	-0.315184930444	-0.238952169382	0.000549315331913	-0.57861328125	-0.0234375	0.86572265625	-50.125	13.875	-14.6875
18	12	18	11	33	06	-0.315256546573	-0.237739447997	-0.0118411945857	-0.748046875	-0.0009765625	0.931640625	-58.9375	-2.0625	-10.0625
18	12	18	11	33	06	-0.317460493645	-0.234448328416	-0.019410197458	-0.53857421875	0.00244140625	0.9912109375	-41.3125	-6.375	5.625
18	12	18	11	33	06	-0.319330721148	-0.233211522459	-0.0209957507789	-0.32861328125	0.0244140625	0.93115234375	-7.5	4.9375	9.875
18	12	18	11	33	06	-0.318731211135	-0.237430948164	-0.0186770874392	-0.51123046875	0.17236328125	0.87109375	17.0	14.75	0.6875
18	12	18	11	33	06	-0.31817846532	-0.241090530983	-0.0176392818871	-0.66064453125	0.158203125	0.822265625	10.0625	3.5	1.0
18	12	18	11	33	06	-0.318910063587	-0.241456117043	-0.018554767336	-0.58740234375	0.12255859375	0.80908203125	-6.0	-6.625	4.125
18	12	18	11	33	06	-0.319830372705	-0.24176490578	-0.0191043714994	-0.52294921875	0.1142578125	0.76318359375	-4.375	-4.9375	5.375
18	12	18	11	33	07	-0.319950382101	-0.242556813901	-0.0190432123646	-0.52490234375	0.1162109375	0.75244140625	0.75	-4.0	2.0625
18	12	18	11	33	07	-0.320183899295	-0.243830476112	-0.0178829360452	-0.56103515625	0.1357421875	0.7783203125	6.3125	-4.875	4.25
18	12	18	11	33	07	-0.320253130923	-0.246766420492	-0.018859961398	-0.75244140625	0.07568359375	0.67529296875	1.375	-5.9375	4.625
18	12	18	11	33	07	-0.319161300572	-0.255866164084	-0.0238653793313	-1.16162109375	-0.07275390625	0.51416015625	0.375	6.5	4.4375
18	12	18	11	33	07	-0.320200828448	-0.26844133502	-0.0344859832393	-1.18408203125	-0.0498046875	0.50439453125	-27.625	38.25	10.6875
18	12	18	11	33	07	-0.327334872605	-0.275881712507	-0.0488896574597	-0.70068359375	0.02197265625	0.62744140625	-70.625	54.25	30.1875
18	12	18	11	33	07	-0.327875347104	-0.281794578849	-0.0654285875085	-0.64013671875	-0.0498046875	0.75048828125	-69.75	57.6875	-11.0
18	12	18	11	33	07	-0.324403569727	-0.28418118921	-0.0776981644896	-0.296875	-0.1435546875	1.15576171875	-41.0625	65.9375	-29.6875
18	12	18	11	33	07	-0.301454333584	-0.278932234152	-0.0669559432965	0.36865234375	0.08056640625	1.6201171875	88.375	-33.1875	-123.1875
18	12	18	11	33	07	-0.293092816232	-0.280519488422	-0.0483401729395	-0.521484375	0.259765625	1.2529296875	112.3125	-21.75	-20.5625
18	12	18	11	33	07	-0.299925879049	-0.271361509616	-0.0382078958658	-0.6259765625	0.423828125	0.91845703125	7.4375	-72.75	35.6875
18	12	18	11	33	07	-0.298770783383	-0.255557358534	-0.0222781074433	-0.23779296875	0.404296875	0.96044921875	55.25	-113.75	2.9375
18	12	18	11	33	07	-0.298031960068	-0.236264943154	-0.0103758822878	-0.32177734375	0.2490234375	0.89111328125	29.4375	-128.4375	0.5625
18	12	18	11	33	07	-0.295654712103	-0.216003721332	-0.00445557266381	-0.4892578125	0.08740234375	0.79345703125	0.5625	-127.0625	-15.375
18	12	18	11	33	07	-0.293763160761	-0.198364901823	0.00378419197324	-0.5673828125	-0.1962890625	0.9189453125	21.5	-116.875	-5.5
18	12	18	11	33	07	-0.291756336061	-0.1835379294	0.0227667601152	-0.6416015625	-0.06640625	0.994140625	82.6875	-119.9375	7.375
18	12	18	11	33	07	-0.294263021028	-0.167182413316	0.0460835056785	-0.41650390625	0.30322265625	0.9951171875	93.25	-130.0	37.6875
18	12	18	11	33	07	-0.298533499569	-0.145818141581	0.0650047387121	-0.16943359375	0.390625	1.041015625	59.0625	-145.5625	43.875
18	12	18	11	33	07	-0.301761793704	-0.122193994943	0.0825816559228	-0.001953125	0.24853515625	1.1572265625	51.5	-153.5	38.5
18	12	18	11	33	07	-0.304693813341	-0.0985127833999	0.104616425494	0.00439453125	0.22119140625	1.142578125	77.5	-161.6875	42.5
18	12	18	11	33	07	-0.309020634044	-0.07543936474	0.130126800668	0.03662109375	0.3662109375	1.0830078125	96.125	-163.4375	55.3125
18	12	18	11	33	07	-0.315012952166	-0.0511491675867	0.15302024241	0.1181640625	0.49169921875	1.0390625	77.875	-163.25	66.3125
18	12	18	11	33	07	-0.322632363572	-0.0252075607558	0.171020787501	0.16552734375	0.47607421875	1.02587890625	49.875	-161.9375	76.6875
18	12	18	11	33	07	-0.33142677918	0.00213626837409	0.184878768717	0.22705078125	0.38720703125	1.00927734375	27.125	-160.625	85.375
18	12	18	11	33	07	-0.341249705749	0.0281984196129	0.197938257153	0.2919921875	0.42431640625	0.95849609375	25.5625	-151.375	92.0
18	12	18	11	33	07	-0.352480492683	0.05175817451	0.21032861953	0.3525390625	0.43310546875	0.88720703125	28.75	-134.875	99.0
18	12	18	11	33	07	-0.365250276738	0.0736726410466	0.220773771885	0.39306640625	0.4775390625	0.83642578125	22.5	-121.3125	108.3125
18	12	18	11	33	07	-0.378728249808	0.0946668034574	0.228457669465	0.4453125	0.52099609375	0.79931640625	10.125	-109.5625	113.1875
18	12	18	11	33	07	-0.392286884479	0.115116393983	0.233040504892	0.47314453125	0.49658203125	0.75732421875	-4.5	-99.875	115.0625
18	12	18	11	33	07	-0.406382056061	0.134768936585	0.235601492399	0.49609375	0.4404296875	0.7470703125	-11.4375	-91.0625	118.6875
18	12	18	11	33	07	-0.420435641392	0.153146490164	0.237563228266	0.53662109375	0.412109375	0.7470703125	-10.6875	-83.6875	118.0625
18	12	18	11	33	07	-0.433735566535	0.169258193921	0.24018427446	0.5419921875	0.3896484375	0.71142578125	-2.3125	-75.25	111.125
18	12	18	11	33	07	-0.446537540675	0.18286310441	0.243410567552	0.529296875	0.35888671875	0.697265625	6.3125	-66.0	105.0
18	12	18	11	33	07	-0.458392747305	0.194282838172	0.247629743784	0.52734375	0.3349609375	0.66552734375	9.6875	-56.1875	98.8125
18	12	18	11	33	07	-0.469540823654	0.20361213931	0.251524468254	0.52294921875	0.34619140625	0.6552734375	11.125	-46.875	93.125
18	12	18	11	33	07	-0.480246557144	0.210947140504	0.253673702528	0.515625	0.30810546875	0.65283203125	8.125	-33.875	87.0
18	12	18	11	33	07	-0.490676421921	0.216559266697	0.253547687108	0.51123046875	0.27685546875	0.6767578125	2.0	-20.5625	82.75
18	12	18	11	33	07	-0.500805957959	0.220647597565	0.251837340955	0.5146484375	0.23388671875	0.6826171875	-1.1875	-8.875	77.25
18	12	18	11	33	07	-0.510396297906	0.222543040201	0.247812600992	0.48828125	0.1982421875	0.744140625	-6.0	4.875	70.0
18	12	18	11	33	07	-0.519713837566	0.222961203597	0.241332767321	0.44189453125	0.12841796875	0.76708984375	-11.8125	16.75	64.125
18	12	18	11	33	07	-0.528027904058	0.223821329809	0.230962615762	0.373046875	0.076171875	0.8310546875	-31.875	21.375	59.875
18	12	18	11	33	07	-0.535422601008	0.226266710207	0.217111056975	0.365234375	0.013671875	0.837890625	-52.875	24.5	57.625
18	12	18	11	33	07	-0.541571418663	0.230654614125	0.199953563343	0.3876953125	-0.06201171875	0.86474609375	-74.125	26.25	54.1875
18	12	18	11	33	07	-0.54628722403	0.235910628031	0.181220867949	0.38232421875	-0.1865234375	0.8369140625	-81.6875	28.375	44.875
18	12	18	11	33	07	-0.549319541305	0.239747462027	0.162476513217	0.3779296875	-0.2578125	0.84619140625	-78.3125	34.625	30.5
18	12	18	11	33	07	-0.55153930621	0.241588376934	0.145270423725	0.34619140625	-0.2724609375	0.77783203125	-67.0625	40.6875	21.9375
18	12	18	11	33	07	-0.552665511162	0.241573726469	0.129148561195	0.2216796875	-0.22998046875	0.73876953125	-62.4375	40.8125	13.6875
18	12	18	11	33	07	-0.552915804847	0.24224780102	0.113525046585	0.0	-0.21142578125	0.7158203125	-65.4375	23.9375	9.6875
18	12	18	11	33	07	-0.553533794551	0.247072973905	0.0996104479773	-0.12451171875	-0.1630859375	0.7197265625	-73.4375	-9.875	19.1875
18	12	18	11	33	07	-0.554952316662	0.256418244863	0.088015974552	0.04931640625	-0.25146484375	0.70556640625	-70.625	-30.375	28.125
18	12	18	11	33	08	-0.557257172254	0.266421419155	0.0794076211503	0.36572265625	-0.3525390625	0.73681640625	-53.3125	-27.0	33.0625
18	12	18	11	33	08	-0.560309499406	0.27203697591	0.0802621995336	0.59814453125	-0.25732421875	0.7978515625	-2.375	-26.25	26.5
18	12	18	11	33	08	-0.562207623161	0.272833359628	0.0917379283043	0.845703125	-0.048828125	0.7666015625	46.6875	-22.625	8.6875
18	12	18	11	33	08	-0.561179051335	0.271861158869	0.101810600133	0.95361328125	0.13427734375	0.611328125	32.0625	3.5625	-5.0625
18	12	18	11	33	08	-0.560554133724	0.267215374286	0.103272821675	0.52978515625	-0.044921875	0.67578125	15.4375	24.3125	-10.3125
18	12	18	11	33	08	-0.555811806283	0.261120459837	0.106022963707	0.25341796875	-0.2607421875	0.78564453125	30.0	9.375	-52.75
18	12	18	11	33	08	-0.54927165292	0.258308438177	0.110415870667	0.37890625	-0.09765625	0.83837890625	15.125	-6.75	-54.1875
18	12	18	11	33	08	-0.546339410664	0.259222821706	0.114077573291	0.68310546875	0.109375	0.8759765625	-4.5	-8.0625	-12.8125
18	12	18	11	33	08	-0.54584960927	0.263433625585	0.116457682488	0.9599609375	0.056640625	0.97021484375	-13.0625	-9.375	10.625
18	12	18	11	33	08	-0.546285914353	0.269175517575	0.122441289854	1.1357421875	-0.130859375	0.8662109375	13.3125	-17.0625	9.9375
18	12	18	11	33	08	-0.546707109482	0.265632392594	0.131168201214	0.76416015625	-0.2607421875	0.80615234375	61.4375	0.9375	-18.125
18	12	18	11	33	08	-0.546706628808	0.257392190877	0.137943170828	0.37255859375	-0.17431640625	0.79150390625	61.5625	8.875	-26.625
18	12	18	11	33	08	-0.546280834485	0.251838516546	0.144169310732	0.40478515625	0.015625	0.775390625	40.25	0.0	-16.8125
18	12	18	11	33	08	-0.545610451327	0.251900026024	0.146244841859	0.5693359375	0.05078125	0.7470703125	2.8125	-2.75	-2.125
18	12	18	11	33	08	-0.545800895036	0.254589077745	0.14441566961	0.63525390625	-0.07568359375	0.7998046875	-14.375	-1.75	7.0
18	12	18	11	33	08	-0.546222608822	0.257577316933	0.143864866353	0.685546875	-0.177734375	0.8681640625	-3.1875	-7.4375	4.375
18	12	18	11	33	08	-0.546527724971	0.258614917434	0.147771233209	0.7490234375	-0.15087890625	0.8759765625	21.125	-10.1875	-2.625
18	12	18	11	33	08	-0.548101280429	0.257204765671	0.153749123096	0.76953125	-0.060546875	0.837890625	36.0	-2.875	2.4375
18	12	18	11	33	08	-0.551149491548	0.254090291618	0.158508884779	0.65185546875	-0.05810546875	0.7861328125	39.0	4.9375	9.625
18	12	18	11	33	08	-0.554448179195	0.250063208956	0.161744570108	0.54345703125	-0.04638671875	0.7919921875	34.8125	7.875	10.6875
18	12	18	11	33	08	-0.557135513616	0.248416032035	0.164674804529	0.5751953125	-0.03515625	0.79931640625	24.6875	-0.9375	12.375
18	12	18	11	33	08	-0.559094064685	0.248662578551	0.168765839395	0.66552734375	-0.03662109375	0.8134765625	23.25	-10.3125	9.8125
18	12	18	11	33	08	-0.560137109242	0.249702616749	0.173711475744	0.62890625	-0.01220703125	0.76611328125	22.3125	-17.4375	5.8125
18	12	18	11	33	08	-0.561107150888	0.251225610035	0.179935155098	0.61767578125	0.1015625	0.74365234375	20.375	-25.1875	9.5
18	12	18	11	33	08	-0.561717940225	0.254643838598	0.185611676217	0.6435546875	0.06884765625	0.71533203125	13.6875	-30.875	10.5
18	12	18	11	33	08	-0.562381124622	0.258546390699	0.190247662844	0.6494140625	-0.02587890625	0.70654296875	13.4375	-29.4375	8.9375
18	12	18	11	33	08	-0.564327562805	0.261045748012	0.195189221917	0.6826171875	-0.04052734375	0.7109375	22.375	-23.0625	13.3125
18	12	18	11	33	08	-0.566672935724	0.262217463579	0.199653939332	0.71875	0.00244140625	0.7119140625	23.0625	-13.5	15.5625
18	12	18	11	33	08	-0.568925148873	0.263435354848	0.202032211433	0.76220703125	0.06494140625	0.71630859375	9.3125	-4.4375	19.0625
18	12	18	11	33	08	-0.571241849142	0.264898987635	0.200627412985	0.74267578125	0.064453125	0.751953125	-8.875	5.75	22.875
18	12	18	11	33	08	-0.574287407844	0.266605101229	0.195803380207	0.69873046875	-0.00537109375	0.77978515625	-20.375	13.75	28.1875
18	12	18	11	33	08	-0.578262958814	0.26837895608	0.189702477939	0.6787109375	-0.0654296875	0.798828125	-21.375	16.0	33.8125
18	12	18	11	33	08	-0.583086361007	0.269600382767	0.184148597421	0.64794921875	-0.08251953125	0.81787109375	-14.9375	14.6875	38.0625
18	12	18	11	33	08	-0.588269772361	0.270391688271	0.179508342033	0.634765625	-0.06640625	0.79248046875	-10.375	13.875	40.1875
18	12	18	11	33	08	-0.593318835084	0.271238442867	0.175474915221	0.61669921875	-0.05615234375	0.75927734375	-9.125	11.4375	40.3125
18	12	18	11	33	08	-0.598396057257	0.272037048877	0.17199919312	0.5947265625	-0.07421875	0.72705078125	-5.5625	10.4375	39.9375
18	12	18	11	33	08	-0.602916910286	0.272771378019	0.168765464359	0.56298828125	-0.06201171875	0.7109375	-6.5625	8.8125	36.1875
18	12	18	11	33	08	-0.606437463115	0.273556029557	0.16576933875	0.51611328125	-0.06298828125	0.697265625	-8.5	5.9375	29.5625
18	12	18	11	33	08	-0.609201418362	0.274845605338	0.162478126007	0.48046875	-0.0927734375	0.7041015625	-11.4375	2.625	24.5
18	12	18	11	33	08	-0.61189139308	0.276007269776	0.159610572858	0.47705078125	-0.12890625	0.70166015625	-8.0625	1.9375	22.0625
18	12	18	11	33	08	-0.615122143358	0.276188499573	0.157107005061	0.458984375	-0.14501953125	0.6923828125	-1.3125	4.1875	23.25
18	12	18	11	33	08	-0.618788489571	0.275274816331	0.154910750299	0.41845703125	-0.1318359375	0.69140625	4.0	6.1875	24.0
18	12	18	11	33	08	-0.622150495557	0.274300434321	0.153325031378	0.3876953125	-0.134765625	0.67919921875	5.5625	3.25	21.0
18	12	18	11	33	08	-0.623678512604	0.274728614722	0.150884055897	0.37060546875	-0.18896484375	0.697265625	-3.875	-0.75	9.5
18	12	18	11	33	08	-0.622955325982	0.276075537862	0.148444772956	0.41162109375	-0.2587890625	0.79833984375	-9.375	-5.875	-6.9375
18	12	18	11	33	08	-0.620676671892	0.278080727421	0.149050293319	0.60595703125	-0.2578125	0.88818359375	-2.8125	-12.9375	-17.625
18	12	18	11	33	08	-0.617571371996	0.278145161315	0.152042922281	0.76806640625	-0.1904296875	0.89306640625	8.375	-4.1875	-25.75
18	12	18	11	33	08	-0.617063902175	0.276183398352	0.153442002974	0.6767578125	-0.103515625	0.8896484375	9.5	5.25	-7.6875
18	12	18	11	33	08	-0.617811342108	0.273626580386	0.156619630888	0.68701171875	-0.1083984375	0.89794921875	22.375	1.0	-2.125
18	12	18	11	33	08	-0.618485734268	0.271247468971	0.160282595301	0.6845703125	-0.1435546875	0.84765625	27.0	0.1875	-4.3125
18	12	18	11	33	09	-0.619633170874	0.269105856027	0.163331202252	0.62109375	-0.11767578125	0.837890625	23.625	-1.875	0.8125
18	12	18	11	33	09	-0.620316233472	0.268256405206	0.166080928001	0.67919921875	-0.1015625	0.77490234375	16.5625	-0.75	1.0625
18	12	18	11	33	09	-0.620967041573	0.266965779422	0.165831280908	0.5654296875	-0.11083984375	0.73291015625	6.0	8.0625	1.0625
18	12	18	11	33	09	-0.621352990886	0.266302858471	0.164554780298	0.525390625	-0.08935546875	0.744140625	-2.4375	7.1875	1.875
18	12	18	11	33	09	-0.621168111807	0.266241063545	0.163760837573	0.5771484375	-0.0859375	0.72314453125	-3.6875	6.0625	-0.625
18	12	18	11	33	09	-0.621581639918	0.265685867887	0.162353413412	0.521484375	-0.11865234375	0.72021484375	-1.6875	7.9375	1.625
18	12	18	11	33	09	-0.62183073308	0.265260734783	0.163148169368	0.56005859375	-0.15576171875	0.7412109375	9.25	0.1875	-2.625
18	12	18	11	33	09	-0.621790095876	0.264231797884	0.165656063631	0.6103515625	-0.14599609375	0.74658203125	17.625	-1.1875	-6.375
18	12	18	11	33	09	-0.621761020773	0.262449434507	0.168455916102	0.59326171875	-0.06982421875	0.73779296875	17.25	0.4375	-5.5625
18	12	18	11	33	09	-0.621296956169	0.260079215074	0.170842929592	0.513671875	-0.068359375	0.7197265625	16.75	1.5625	-10.3125
18	12	18	11	33	09	-0.620361469098	0.258606015798	0.1732178128	0.5244140625	-0.0810546875	0.736328125	13.625	-3.0625	-12.125
18	12	18	11	33	09	-0.618954237256	0.256407331694	0.177672397658	0.54150390625	-0.06591796875	0.73828125	23.875	-6.875	-18.4375
18	12	18	11	33	09	-0.617913690642	0.252805067823	0.183164656817	0.4853515625	-0.0498046875	0.72314453125	33.4375	-6.9375	-19.125
18	12	18	11	33	09	-0.616524475742	0.248782671332	0.190493306483	0.50390625	-0.0283203125	0.74560546875	41.75	-12.4375	-23.125
18	12	18	11	33	09	-0.61465446091	0.244824135324	0.197946813975	0.51220703125	0.00146484375	0.74658203125	40.3125	-13.25	-25.625
18	12	18	11	33	09	-0.612637002125	0.241282661094	0.205087210037	0.53564453125	0.01904296875	0.78173828125	36.9375	-14.5625	-24.875
18	12	18	11	33	09	-0.610294166128	0.238221635203	0.211549112891	0.5498046875	-0.01220703125	0.802734375	34.6875	-14.4375	-27.3125
18	12	18	11	33	09	-0.608553760522	0.234631961429	0.217235991344	0.52294921875	0.0146484375	0.806640625	33.375	-10.875	-23.25
18	12	18	11	33	09	-0.607239946979	0.232056114023	0.222717717009	0.56201171875	0.03759765625	0.806640625	29.8125	-13.0	-17.125
18	12	18	11	33	09	-0.60603386679	0.229803354665	0.227239811266	0.55224609375	0.04248046875	0.7998046875	25.25	-10.875	-15.25
18	12	18	11	33	09	-0.604993730121	0.227177831266	0.231450385857	0.52099609375	0.06884765625	0.798828125	24.3125	-9.8125	-13.8125
18	12	18	11	33	09	-0.6037502923	0.224727919152	0.235225801307	0.52734375	0.1103515625	0.79638671875	19.5625	-8.75	-13.375
18	12	18	11	33	09	-0.602451855155	0.223218483719	0.23829503977	0.57861328125	0.140625	0.81689453125	12.3125	-8.75	-10.3125
18	12	18	11	33	09	-0.601206586029	0.222537991133	0.241031960226	0.62744140625	0.16357421875	0.83447265625	7.5	-9.4375	-7.375
18	12	18	11	33	09	-0.599990666613	0.222539773191	0.24384157814	0.6669921875	0.17236328125	0.85791015625	5.8125	-11.625	-5.8125
18	12	18	11	33	09	-0.59921057828	0.222544745687	0.247143081538	0.71435546875	0.1689453125	0.85595703125	9.9375	-11.4375	-2.9375
18	12	18	11	33	09	-0.599614312697	0.221742548659	0.250185165691	0.73388671875	0.19775390625	0.84619140625	12.375	-4.75	3.9375
18	12	18	11	33	09	-0.600837941309	0.220522905521	0.252383674047	0.72265625	0.2333984375	0.81103515625	9.75	1.1875	10.5
18	12	18	11	33	09	-0.602080774399	0.219615432511	0.252942288028	0.66748046875	0.22998046875	0.76513671875	1.4375	5.3125	11.8125
18	12	18	11	33	09	-0.602860325374	0.218816874199	0.25147155417	0.53662109375	0.14990234375	0.7490234375	-5.625	6.4375	6.375
18	12	18	11	33	09	-0.603532104377	0.217474199827	0.24854194266	0.435546875	0.11767578125	0.75634765625	-9.125	8.8125	3.4375
18	12	18	11	33	09	-0.603720826521	0.217598296082	0.245980682527	0.501953125	0.15283203125	0.79638671875	-14.75	2.8125	5.125
18	12	18	11	33	09	-0.603939296094	0.218626635534	0.243711936261	0.55322265625	0.12060546875	0.7705078125	-15.25	1.5	6.0
18	12	18	11	33	09	-0.604261812207	0.217045960021	0.241521615243	0.4228515625	0.05517578125	0.79833984375	-2.4375	5.25	-1.6875
18	12	18	11	33	09	-0.604262488679	0.215398214399	0.241704995472	0.4951171875	0.12451171875	0.85009765625	4.25	-1.9375	-2.0
18	12	18	11	33	09	-0.60382710597	0.215212208193	0.243532816418	0.6845703125	0.16796875	0.8369140625	4.375	-4.25	-1.0
18	12	18	11	33	09	-0.603691746466	0.213437472186	0.244381938414	0.59130859375	0.119140625	0.83203125	7.875	2.1875	-4.3125
18	12	18	11	33	09	-0.603085047108	0.210936334663	0.246031355621	0.53076171875	0.14892578125	0.84619140625	11.9375	-2.0	-8.0
18	12	18	11	33	09	-0.602352712305	0.209410493051	0.247496225392	0.58544921875	0.16845703125	0.8359375	6.3125	-2.0	-6.0625
18	12	18	11	33	09	-0.601865430299	0.208251176167	0.247496635216	0.5712890625	0.15869140625	0.84033203125	0.25	1.3125	-4.25
18	12	18	11	33	09	-0.601019854652	0.207521834652	0.246706839901	0.56396484375	0.13623046875	0.8525390625	-4.5625	1.4375	-6.375
18	12	18	11	33	09	-0.60041963352	0.207647412141	0.245124046784	0.5810546875	0.12939453125	0.84619140625	-9.75	1.8125	-2.8125
18	12	18	11	33	09	-0.600116316038	0.207220798713	0.243110586532	0.55810546875	0.11083984375	0.8623046875	-8.4375	4.6875	-2.5625
18	12	18	11	33	09	-0.600184375291	0.207040109935	0.24122126016	0.57177734375	0.10302734375	0.8662109375	-7.5625	4.0	0.0625
18	12	18	11	33	09	-0.600737731515	0.205881768787	0.239513803949	0.548828125	0.1201171875	0.8486328125	-3.75	7.8125	2.3125
18	12	18	11	33	09	-0.601675352562	0.204281538347	0.2375451889	0.50048828125	0.13330078125	0.837890625	-3.6875	8.6875	4.875
18	12	18	11	33	09	-0.602623710485	0.203438147174	0.235543897373	0.47900390625	0.13330078125	0.80029296875	-6.25	6.25	6.8125
18	12	18	11	33	09	-0.603364223146	0.203074635347	0.233349663641	0.49609375	0.1572265625	0.82958984375	-10.9375	4.75	7.5625
18	12	18	11	33	09	-0.604435283096	0.203614672767	0.230775502917	0.5	0.15625	0.80615234375	-14.75	3.4375	12.0625
18	12	18	11	33	09	-0.605340692507	0.203794371071	0.228269226656	0.47265625	0.142578125	0.81103515625	-13.25	3.25	9.875
18	12	18	11	33	10	-0.606274380728	0.203922551697	0.226383940211	0.4658203125	0.13671875	0.8125	-9.875	0.75	9.875
18	12	18	11	33	10	-0.607238798939	0.203613291111	0.225708018743	0.47900390625	0.1484375	0.82861328125	-3.5625	-1.5625	9.25
18	12	18	11	33	10	-0.608247025955	0.202769354764	0.225414577707	0.45947265625	0.17138671875	0.8203125	-1.625	-1.5	9.25
18	12	18	11	33	10	-0.609703427751	0.202339259485	0.225472465924	0.47119140625	0.1708984375	0.8310546875	-0.1875	-4.1875	13.5625
18	12	18	11	33	10	-0.610796691185	0.202276429958	0.225958763942	0.4755859375	0.1630859375	0.85009765625	0.5	-8.25	11.375
18	12	18	11	33	10	-0.612207034302	0.202400650623	0.226937762067	0.48046875	0.13720703125	0.83203125	4.125	-9.6875	12.9375
18	12	18	11	33	10	-0.614017316846	0.201356175773	0.228150768427	0.4970703125	0.1376953125	0.84326171875	10.0625	-5.0625	13.125
18	12	18	11	33	10	-0.616393025734	0.199218421229	0.228698353047	0.48828125	0.15234375	0.8095703125	11.0625	3.625	15.0625
18	12	18	11	33	10	-0.617933285018	0.198063365259	0.228398493929	0.529296875	0.1904296875	0.869140625	0.0	2.5625	12.8125
18	12	18	11	33	10	-0.618235367292	0.198245480597	0.227237661411	0.5224609375	0.16650390625	0.8798828125	-9.625	-1.375	6.0625
18	12	18	11	33	10	-0.61939983688	0.197331461631	0.225225206749	0.4306640625	0.14208984375	0.86572265625	-6.875	2.5	9.5
18	12	18	11	33	10	-0.621588189609	0.195741685396	0.223757099677	0.423828125	0.1044921875	0.86962890625	2.25	3.875	13.9375
18	12	18	11	33	10	-0.623904832619	0.192933200539	0.223511983668	0.443359375	0.1083984375	0.8505859375	11.5	6.4375	12.0
18	12	18	11	33	10	-0.625737390535	0.190797413462	0.223573552627	0.49755859375	0.173828125	0.8486328125	6.25	5.5625	12.5
18	12	18	11	33	10	-0.626898729364	0.189394095727	0.222292393374	0.4638671875	0.16455078125	0.8447265625	-3.5625	5.875	8.8125
18	12	18	11	33	10	-0.627731576169	0.189021360369	0.220331647056	0.4599609375	0.14892578125	0.8818359375	-9.5	2.5	8.3125
18	12	18	11	33	10	-0.62862917559	0.188607064042	0.218759779135	0.4853515625	0.1376953125	0.892578125	-7.0	2.25	8.25
18	12	18	11	33	10	-0.630389888158	0.186956257497	0.217963041306	0.4814453125	0.12744140625	0.8779296875	3.0625	5.8125	11.3125
18	12	18	11	33	10	-0.632272634703	0.184634107537	0.217349440311	0.48779296875	0.15380859375	0.87744140625	4.9375	8.5	11.875
18	12	18	11	33	10	-0.633438288	0.18298785772	0.216130755233	0.47802734375	0.193359375	0.88525390625	-4.3125	7.25	9.625
18	12	18	11	33	10	-0.634339491927	0.182678543186	0.213379280648	0.47119140625	0.18603515625	0.900390625	-15.75	6.5	10.1875
18	12	18	11	33	10	-0.636117735216	0.182497795845	0.208987442466	0.451171875	0.123046875	0.93310546875	-18.0	10.75	14.875
18	12	18	11	33	10	-0.638328967314	0.182440742331	0.204719387681	0.49267578125	0.1005859375	0.91552734375	-16.3125	13.25	17.75
18	12	18	11	33	10	-0.64074065185	0.182188116381	0.199827099843	0.4541015625	0.1181640625	0.89599609375	-19.8125	15.5625	20.0
18	12	18	11	33	10	-0.643063320728	0.182616311277	0.193846726142	0.419921875	0.09619140625	0.91259765625	-26.0	14.9375	20.5625
18	12	18	11	33	10	-0.645327644766	0.183777692083	0.18805017247	0.45947265625	0.0576171875	0.9013671875	-26.5	13.875	20.5
18	12	18	11	33	10	-0.647966855892	0.183537710594	0.182316974242	0.4052734375	0.08203125	0.87158203125	-22.5	18.375	22.0
18	12	18	11	33	10	-0.651445148748	0.182194675257	0.177189662402	0.36767578125	0.0859375	0.861328125	-15.1875	19.3125	26.5625
18	12	18	11	33	10	-0.654608114401	0.181825414713	0.172792127913	0.4208984375	0.08349609375	0.853515625	-16.1875	15.8125	26.1875
18	12	18	11	33	10	-0.657301651773	0.181034144225	0.168338560274	0.39404296875	0.08203125	0.8466796875	-16.3125	17.1875	22.125
18	12	18	11	33	10	-0.660220526803	0.180725985011	0.163147773703	0.3505859375	0.0634765625	0.82470703125	-19.8125	16.375	24.6875
18	12	18	11	33	10	-0.663572417901	0.179870117325	0.157592345752	0.3076171875	0.1240234375	0.82177734375	-23.0	18.5625	29.0
18	12	18	11	33	10	-0.666808398917	0.180908017793	0.152526699212	0.3759765625	0.08544921875	0.85791015625	-25.9375	11.25	31.0625
18	12	18	11	33	10	-0.66920040606	0.182437068015	0.149172363408	0.4384765625	0.00927734375	0.88720703125	-18.25	5.8125	23.4375
18	12	18	11	33	10	-0.672680401652	0.182132140326	0.147402519734	0.4326171875	0.01318359375	0.8828125	-2.9375	6.6875	28.375
18	12	18	11	33	10	-0.676996114704	0.179808019646	0.147398631177	0.40576171875	0.072265625	0.85888671875	9.4375	7.3125	32.1875
18	12	18	11	33	10	-0.681038456793	0.177553403012	0.146730278735	0.35107421875	0.08837890625	0.8369140625	5.0625	7.5	31.125
18	12	18	11	33	10	-0.684457610229	0.176394015834	0.144899444149	0.35546875	0.0341796875	0.88037109375	-1.6875	6.75	26.9375
18	12	18	11	33	10	-0.687644635205	0.175603906931	0.142033469388	0.4033203125	-0.00146484375	0.9208984375	-6.0625	11.8125	25.625
18	12	18	11	33	10	-0.690492494963	0.174622030239	0.137451524676	0.36083984375	-0.01220703125	0.96923828125	-12.8125	16.125	22.625
18	12	18	11	33	10	-0.693183784096	0.17413518852	0.132020474157	0.34423828125	-0.044921875	1.04541015625	-17.0625	14.6875	21.8125
18	12	18	11	33	10	-0.695724885002	0.174861987502	0.125912837772	0.3984375	-0.0927734375	1.0478515625	-22.625	16.625	22.3125
18	12	18	11	33	10	-0.697890606044	0.174259023986	0.118715867479	0.3232421875	-0.09765625	1.04443359375	-22.75	22.6875	17.125
18	12	18	11	33	10	-0.699595471806	0.172671051277	0.109620787591	0.25390625	-0.1943359375	1.0810546875	-22.1875	30.875	10.5625
18	12	18	11	33	10	-0.702026198504	0.171569782994	0.0996093510657	0.29150390625	-0.13525390625	1.0390625	-30.875	36.5	20.0
18	12	18	11	33	10	-0.703935168237	0.172550483014	0.0892355168614	0.25048828125	-0.08544921875	0.9951171875	-45.1875	29.375	21.5
18	12	18	11	33	10	-0.704973527219	0.1743817634	0.0808125497869	0.2509765625	-0.11279296875	0.970703125	-41.125	19.125	14.6875
18	12	18	11	33	10	-0.707456653895	0.175170442298	0.0737302767582	0.2705078125	-0.08056640625	0.87451171875	-31.375	21.0625	26.25
18	12	18	11	33	10	-0.709777196119	0.174682460684	0.0687255243641	0.275390625	-0.04541015625	0.8671875	-20.875	19.0	23.0
18	12	18	11	33	10	-0.711562656309	0.17425899672	0.0649427574466	0.328125	0.08837890625	0.86181640625	-26.0	17.9375	21.75
18	12	18	11	33	11	-0.713792496747	0.173031357698	0.0610950225946	0.28173828125	0.00146484375	0.85302734375	-17.375	18.75	22.1875
18	12	18	11	33	11	-0.716733613033	0.169249962441	0.0607297917881	0.33642578125	-0.0576171875	0.94580078125	10.875	16.125	21.5625
18	12	18	11	33	11	-0.72232823168	0.16222631515	0.0630473226299	0.38330078125	0.02587890625	0.849609375	33.9375	22.1875	40.0625
18	12	18	11	33	11	-0.727116711081	0.15356548687	0.064941843414	0.2080078125	0.01171875	0.9150390625	39.25	18.375	29.5
18	12	18	11	33	11	-0.73165246649	0.146245041271	0.0668967300637	0.2021484375	0.17041015625	0.8505859375	24.5	14.4375	32.6875
18	12	18	11	33	11	-0.737802845658	0.141359314241	0.0640877720004	0.1396484375	0.15966796875	0.87548828125	-1.375	19.8125	51.3125
18	12	18	11	33	11	-0.743708894814	0.14013587382	0.0588375358721	0.2177734375	-0.02001953125	0.93994140625	-14.8125	20.875	52.875
18	12	18	11	33	11	-0.750532329799	0.139523209394	0.0519397424298	0.298828125	-0.052734375	0.86669921875	-20.5625	32.75	63.3125
18	12	18	11	33	11	-0.757813526189	0.136230653226	0.0418091386468	0.0791015625	-0.130859375	0.89892578125	-16.0625	42.3125	63.1875
18	12	18	11	33	11	-0.765013980136	0.133056524389	0.0302123759508	0.01171875	-0.18359375	0.97021484375	-20.0	44.125	63.75
18	12	18	11	33	11	-0.773375233197	0.129760535536	0.0167846412382	0.05810546875	-0.166015625	0.92529296875	-26.5625	57.1875	78.375
18	12	18	11	33	11	-0.781446665563	0.126406002061	0.000793470799994	-0.04296875	-0.234375	0.9453125	-31.8125	63.375	78.3125
18	12	18	11	33	11	-0.78900183813	0.122436581364	-0.0155029370221	-0.09423828125	-0.29638671875	0.98779296875	-28.4375	65.25	75.0625
18	12	18	11	33	11	-0.796823008117	0.118592654521	-0.0326541791913	-0.1103515625	-0.287109375	0.98046875	-33.1875	69.1875	82.5
18	12	18	11	33	11	-0.80345311106	0.114866207461	-0.0509024532531	-0.10595703125	-0.3701171875	1.0830078125	-35.25	77.125	76.25
18	12	18	11	33	11	-0.80951690254	0.102967278488	-0.0675055186767	-0.076171875	-0.46435546875	1.1767578125	3.625	107.625	70.75
18	12	18	11	33	11	-0.817613097688	0.0834336447104	-0.0793443585395	-0.21240234375	-0.5048828125	1.0634765625	70.5625	98.5625	84.375
18	12	18	11	33	11	-0.824565274359	0.0596909576849	-0.0762310901313	-0.22607421875	-0.3955078125	0.9951171875	125.3125	53.0	63.0
18	12	18	11	33	11	-0.831862249423	0.0401618137883	-0.0719006331954	-0.01708984375	-0.18994140625	0.892578125	105.625	36.75	71.125
18	12	18	11	33	11	-0.837918924156	0.0304553531323	-0.0722017690492	0.10009765625	-0.13916015625	0.8271484375	45.25	39.375	66.375
18	12	18	11	33	11	-0.841528877825	0.0292960444848	-0.0784889858487	-0.00634765625	-0.267578125	0.87939453125	-5.75	37.3125	45.4375
18	12	18	11	33	11	-0.844591771592	0.0302119473145	-0.0849596579026	-0.0615234375	-0.37939453125	0.93994140625	-9.625	29.25	40.875
18	12	18	11	33	11	-0.847829757109	0.0295406811922	-0.0879506644586	0.00439453125	-0.4228515625	0.98681640625	11.5625	22.375	41.3125
18	12	18	11	33	11	-0.850233319422	0.0253299947997	-0.0861830184511	0.0478515625	-0.3271484375	1.0078125	37.4375	14.0	28.875
18	12	18	11	33	11	-0.851243404663	0.0182492133071	-0.0831895576508	-0.02734375	-0.32568359375	0.89501953125	58.1875	11.6875	13.0
18	12	18	11	33	11	-0.85059022634	0.00646975918428	-0.0820316636195	-0.4111328125	-0.2275390625	0.958984375	70.9375	10.4375	-4.75
18	12	18	11	33	11	-0.849729889475	-0.00421141807023	-0.0802610835124	-0.31640625	-0.123046875	1.00390625	61.0625	11.5	-6.875
18	12	18	11	33	11	-0.847137911536	-0.00854461870426	-0.0758640074956	-0.041015625	-0.2841796875	1.15234375	51.0	0.75	-26.375
18	12	18	11	33	11	-0.842821631155	-0.00701893602599	-0.069640052223	-0.08447265625	-0.28466796875	1.24609375	29.3125	-28.3125	-48.6875
18	12	18	11	33	11	-0.838902838956	-0.0119625286603	-0.0584699104925	-0.232421875	0.091796875	1.15625	51.125	-44.75	-46.875
18	12	18	11	33	11	-0.834866758442	-0.00909387725768	-0.048948252085	-0.06494140625	0.0517578125	1.326171875	11.1875	-49.6875	-48.0
18	12	18	11	33	11	-0.828666163621	0.00463862623814	-0.0346676276745	0.3232421875	-0.29443359375	1.513671875	-1.4375	-81.5625	-70.0
18	12	18	11	33	11	-0.818112108959	0.0105590416928	-0.00921627338502	0.58056640625	-0.4150390625	1.4892578125	62.8125	-127.5	-112.25
18	12	18	11	33	11	-0.801264256875	0.0122679856514	0.0221556158779	0.6171875	-0.1689453125	1.2255859375	99.0	-141.125	-165.1875
18	12	18	11	33	11	-0.785711527272	0.0177613652168	0.0465701775272	0.3125	0.32275390625	1.15771484375	50.1875	-128.0625	-140.3125
18	12	18	11	33	11	-0.777767475749	0.0266722425569	0.0715328793516	0.2138671875	0.68896484375	1.134765625	34.375	-144.25	-60.0
18	12	18	11	33	11	-0.772836018806	0.0378422312162	0.0927134664797	0.53466796875	0.107421875	0.89013671875	23.125	-129.8125	-28.8125
18	12	18	11	33	11	-0.766066502485	0.0513925579709	0.119142842232	0.47705078125	0.12939453125	0.95751953125	31.0	-164.9375	-35.6875
18	12	18	11	33	11	-0.755982890053	0.0607300965286	0.154297169874	0.44580078125	0.55810546875	0.93310546875	72.75	-191.5625	-54.75
18	12	18	11	33	11	-0.745176988725	0.0827635348277	0.174438187712	0.5615234375	0.64794921875	0.6669921875	-40.0	-170.375	-45.75
18	12	18	11	33	11	-0.741275667508	0.110901431689	0.178284580057	0.67236328125	0.203125	0.69189453125	-109.5	-117.9375	15.625
18	12	18	11	33	11	-0.73736410199	0.131774612714	0.187072342736	0.8076171875	-0.07275390625	0.74658203125	-50.25	-91.0625	5.1875
18	12	18	11	33	11	-0.730527627067	0.142455633852	0.198058496937	0.7353515625	0.0224609375	0.671875	-12.0625	-67.8125	-33.0625
18	12	18	11	33	11	-0.726518756835	0.14294773826	0.208012763446	0.55859375	0.26953125	0.5986328125	15.4375	-33.0625	-20.8125
18	12	18	11	33	11	-0.725600008471	0.140688763419	0.211796099377	0.50244140625	0.248046875	0.49853515625	9.5625	5.25	-4.375
18	12	18	11	33	11	-0.725210873404	0.138853285389	0.207150791477	0.48046875	0.12109375	0.54248046875	-17.625	38.625	-7.625
18	12	18	11	33	11	-0.726670312379	0.136227795836	0.196712448916	0.47900390625	0.4052734375	0.4765625	-51.9375	70.9375	12.6875
18	12	18	11	33	11	-0.729755252198	0.144412924615	0.174504036972	0.048828125	0.80712890625	0.68798828125	-127.3125	62.25	39.625
18	12	18	11	33	11	-0.737484361545	0.165831747937	0.145018856495	-0.63037109375	-0.0615234375	0.7255859375	-185.3125	31.0625	101.875
18	12	18	11	33	11	-0.748000576496	0.183231148971	0.136538334526	0.11962890625	-0.81640625	0.8212890625	-70.5	-37.9375	120.0625
18	12	18	11	33	12	-0.750246134778	0.194458524683	0.144226457572	0.9619140625	-0.70751953125	0.8349609375	25.125	-46.0	27.6875
18	12	18	11	33	12	-0.752625495835	0.184509518604	0.154419147228	0.92626953125	-0.2548828125	0.77490234375	94.375	23.5	-3.125
18	12	18	11	33	12	-0.759910665484	0.17126982549	0.154667761151	0.4287109375	0.095703125	0.673828125	61.0	52.125	41.25
18	12	18	11	33	12	-0.764157330898	0.163634648893	0.1486810909	0.12353515625	0.10009765625	0.8505859375	7.5	37.0	25.0
18	12	18	11	33	12	-0.765691748583	0.167970003356	0.14276229573	0.322265625	-0.2568359375	0.91943359375	-25.75	3.75	16.5
18	12	18	11	33	12	-0.770636576217	0.17309720657	0.139527579062	0.52001953125	-0.3955078125	0.8955078125	-4.4375	0.4375	47.25
18	12	18	11	33	12	-0.775393074506	0.172607967152	0.142090292621	0.4892578125	-0.3828125	0.80810546875	39.375	-5.4375	34.8125
18	12	18	11	33	12	-0.777738649105	0.168890507147	0.14771052667	0.41259765625	-0.234375	0.783203125	50.5625	-11.1875	9.8125
18	12	18	11	33	12	-0.778332713826	0.16852075148	0.151308563172	0.419921875	-0.169921875	0.833984375	21.375	-15.0	2.8125
18	12	18	11	33	12	-0.777661740836	0.17224404934	0.151980043535	0.48681640625	-0.1142578125	0.91162109375	-13.5625	-13.75	1.3125
18	12	18	11	33	12	-0.77739156933	0.177792387647	0.150327034251	0.62060546875	-0.1064453125	0.931640625	-29.6875	-2.25	10.6875
18	12	18	11	33	12	-0.777717202578	0.182252673591	0.148683025073	0.70458984375	-0.1533203125	0.943359375	-21.75	6.0	13.1875
18	12	18	11	33	12	-0.777942351463	0.183224771622	0.149472840007	0.6611328125	-0.19384765625	0.97509765625	3.6875	3.25	3.5625
18	12	18	11	33	12	-0.779036346182	0.180843363659	0.151425037205	0.552734375	-0.17431640625	0.92822265625	23.4375	4.5625	3.5625
18	12	18	11	33	12	-0.780081831936	0.178647955722	0.152830365947	0.52783203125	-0.14453125	0.86474609375	19.3125	6.625	4.25
18	12	18	11	33	12	-0.780192191205	0.17913354308	0.152889105763	0.5859375	-0.13671875	0.82080078125	0.9375	8.875	1.9375
18	12	18	11	33	12	-0.780342597771	0.180910086804	0.15039219092	0.56982421875	-0.1728515625	0.80615234375	-11.5	15.5	4.0625
18	12	18	11	33	12	-0.780749709566	0.183896097164	0.146787292957	0.55029296875	-0.1796875	0.7939453125	-19.6875	15.5625	9.0625
18	12	18	11	33	12	-0.781249089052	0.187011500692	0.143737625368	0.52197265625	-0.18408203125	0.76416015625	-18.0	11.8125	10.125
18	12	18	11	33	12	-0.781565941349	0.190188166594	0.141969728979	0.52587890625	-0.1943359375	0.76513671875	-14.0625	5.5625	9.375
18	12	18	11	33	12	-0.781669369321	0.192747081152	0.141722204698	0.53515625	-0.11865234375	0.72900390625	-11.3125	2.1875	8.25
18	12	18	11	33	12	-0.7821702725	0.194276080949	0.141541386026	0.52783203125	-0.10791015625	0.712890625	-6.375	5.875	10.0625
18	12	18	11	33	12	-0.78258932456	0.195494743922	0.142028182674	0.55810546875	-0.123046875	0.720703125	-2.3125	4.875	8.3125
18	12	18	11	33	12	-0.783080736712	0.19647208819	0.142394961711	0.52099609375	-0.11669921875	0.755859375	-2.125	2.625	8.5
18	12	18	11	33	12	-0.783450741663	0.197693748227	0.143799466139	0.5439453125	-0.14599609375	0.8115234375	1.5	-3.5625	7.625
18	12	18	11	33	12	-0.783843258654	0.199348394546	0.146062678552	0.611328125	-0.1650390625	0.8486328125	3.25	-6.5625	8.5
18	12	18	11	33	12	-0.784622350824	0.200443391685	0.148013162252	0.61767578125	-0.17724609375	0.845703125	6.125	-3.3125	10.875
18	12	18	11	33	12	-0.785828165121	0.200378552706	0.148986916587	0.5576171875	-0.185546875	0.84814453125	8.75	1.5625	11.0625
18	12	18	11	33	12	-0.786929448793	0.201355793963	0.148560170508	0.51806640625	-0.2099609375	0.84033203125	1.1875	2.4375	11.5
18	12	18	11	33	12	-0.787768512516	0.20354908106	0.147641747252	0.52490234375	-0.2138671875	0.82958984375	-6.3125	1.0	12.0
18	12	18	11	33	12	-0.788401560347	0.206240525851	0.146730459942	0.55126953125	-0.20458984375	0.8291015625	-9.875	0.9375	12.25
18	12	18	11	33	12	-0.78925872777	0.208255415602	0.146486810506	0.5634765625	-0.1552734375	0.7919921875	-6.9375	1.5	14.8125
18	12	18	11	33	12	-0.790407333116	0.209595272735	0.146545792032	0.5283203125	-0.15185546875	0.79296875	-3.0	0.375	15.8125
18	12	18	11	33	12	-0.791368997157	0.210873043743	0.147885784368	0.5615234375	-0.1591796875	0.791015625	1.5	-3.75	13.8125
18	12	18	11	33	12	-0.792382636492	0.211798470854	0.149479670064	0.57421875	-0.1181640625	0.77099609375	1.875	-2.75	15.125
18	12	18	11	33	12	-0.793129846669	0.213189884911	0.150630585731	0.54736328125	-0.17431640625	0.79296875	1.0	-4.375	11.6875
18	12	18	11	33	12	-0.793650833696	0.214175249976	0.152406839325	0.5595703125	-0.19873046875	0.81494140625	5.1875	-6.0	8.0
18	12	18	11	33	12	-0.794820211721	0.214238899028	0.154300836679	0.56494140625	-0.16259765625	0.8115234375	9.0	-3.6875	12.875
18	12	18	11	33	12	-0.795963431201	0.214844818482	0.156006635239	0.57275390625	-0.1669921875	0.83154296875	5.9375	-5.5	14.3125
18	12	18	11	33	12	-0.796953796704	0.215886159067	0.157962504853	0.5859375	-0.189453125	0.83251953125	6.0	-7.3125	13.1875
18	12	18	11	33	12	-0.798056916677	0.21655877173	0.15918412533	0.541015625	-0.18798828125	0.814453125	5.625	-4.75	13.0625
18	12	18	11	33	12	-0.799123122601	0.217892732581	0.160337313303	0.55029296875	-0.18359375	0.8115234375	1.625	-6.3125	14.6875
18	12	18	11	33	12	-0.799806473719	0.219482912049	0.161865595872	0.56201171875	-0.1865234375	0.78662109375	1.625	-7.875	12.0
18	12	18	11	33	12	-0.800576716413	0.22020894967	0.163752941232	0.5439453125	-0.17919921875	0.7900390625	5.9375	-7.625	10.625
18	12	18	11	33	12	-0.801833067686	0.22009667672	0.166567895388	0.57958984375	-0.11083984375	0.76416015625	10.1875	-7.125	15.875
18	12	18	11	33	12	-0.803210801267	0.219723319496	0.169553161544	0.6103515625	-0.04541015625	0.76904296875	8.5625	-6.0625	19.25
18	12	18	11	33	12	-0.804143644716	0.219605983582	0.172974807524	0.59375	-0.08984375	0.75048828125	10.8125	-9.25	13.8125
18	12	18	11	33	12	-0.804980445326	0.218746676477	0.176633058516	0.5302734375	-0.150390625	0.759765625	18.0	-12.0625	7.875
18	12	18	11	33	12	-0.805863112142	0.216984273549	0.181155927959	0.5546875	-0.1689453125	0.7880859375	26.0	-13.375	5.3125
18	12	18	11	33	12	-0.806381763377	0.214229487546	0.185970726083	0.5751953125	-0.1748046875	0.79833984375	30.8125	-10.5	-1.4375
18	12	18	11	33	13	-0.806743177287	0.210627228387	0.190180945712	0.599609375	-0.1318359375	0.87255859375	29.25	-5.9375	-3.8125
18	12	18	11	33	13	-0.807140908118	0.207827797349	0.19446089937	0.64306640625	-0.08056640625	0.8359375	24.0	-5.625	1.0
18	12	18	11	33	13	-0.808011729791	0.205817763473	0.197150467384	0.60107421875	-0.0986328125	0.87109375	18.0625	-4.4375	6.1875
18	12	18	11	33	13	-0.808654755032	0.205017082206	0.20062255112	0.5859375	-0.16162109375	0.865234375	18.75	-13.5625	5.625
18	12	18	11	33	13	-0.808246386339	0.204106322	0.204533578056	0.44970703125	-0.2470703125	0.81787109375	23.375	-21.5625	-10.125
18	12	18	11	33	13	-0.806718516839	0.201847479397	0.21057568912	0.3681640625	-0.29150390625	0.84326171875	35.9375	-33.0	-26.375
18	12	18	11	33	13	-0.804983853364	0.198545187277	0.219174843994	0.5087890625	-0.169921875	0.8271484375	42.375	-34.4375	-24.375
18	12	18	11	33	13	-0.802879158968	0.195195951831	0.22754549982	0.5673828125	-0.03955078125	0.748046875	34.75	-27.5625	-22.625
18	12	18	11	33	13	-0.799804239085	0.191894423663	0.235534535915	0.5078125	-0.07470703125	0.7509765625	32.875	-29.375	-34.4375
18	12	18	11	33	13	-0.795784986605	0.188905854697	0.244387412668	0.48193359375	-0.1611328125	0.736328125	38.0	-36.6875	-45.375
18	12	18	11	33	13	-0.79112993835	0.184202295474	0.253537553148	0.43408203125	-0.17578125	0.74658203125	46.25	-36.0	-56.75
18	12	18	11	33	13	-0.786204671261	0.177248533914	0.263187217023	0.45263671875	-0.1025390625	0.7470703125	53.875	-31.0625	-62.375
18	12	18	11	33	13	-0.781202497419	0.169863782352	0.272526693568	0.51611328125	0.01806640625	0.6923828125	48.9375	-22.6875	-58.9375
18	12	18	11	33	13	-0.775950561694	0.163759565565	0.279605877694	0.490234375	0.05419921875	0.6484375	33.9375	-16.1875	-58.0
18	12	18	11	33	13	-0.770019409337	0.158752416272	0.285644486025	0.41455078125	-0.00390625	0.61376953125	27.6875	-18.0	-64.25
18	12	18	11	33	13	-0.763566745342	0.152469203027	0.291449337251	0.3828125	-0.046875	0.66455078125	34.25	-17.125	-74.5625
18	12	18	11	33	13	-0.75715460161	0.143984498605	0.297551687452	0.4091796875	0.0322265625	0.6044921875	41.0	-7.0625	-75.75
18	12	18	11	33	13	-0.751348964836	0.134034307618	0.301882370437	0.3974609375	0.1259765625	0.59521484375	38.0	6.0625	-72.125
18	12	18	11	33	13	-0.746473840198	0.123720562067	0.30359451195	0.41357421875	0.224609375	0.626953125	27.625	20.4375	-64.0625
18	12	18	11	33	13	-0.742609253357	0.113463516232	0.303403517584	0.47314453125	0.306640625	0.61669921875	19.1875	34.1875	-54.375
18	12	18	11	33	13	-0.740220034581	0.102598110004	0.301263694813	0.4921875	0.30859375	0.62646484375	18.625	48.3125	-46.4375
18	12	18	11	33	13	-0.738786593677	0.0892964959145	0.299323319183	0.51953125	0.388671875	0.6494140625	28.8125	58.0625	-40.4375
18	12	18	11	33	13	-0.73845797187	0.0745843161935	0.298093126259	0.5458984375	0.46142578125	0.6591796875	37.9375	63.1875	-30.5625
18	12	18	11	33	13	-0.739738387363	0.0592645193176	0.296139493027	0.5390625	0.43798828125	0.693359375	44.8125	69.9375	-20.0
18	12	18	11	33	13	-0.74231882739	0.0429082499305	0.293704834517	0.59716796875	0.40087890625	0.7255859375	54.3125	80.25	-13.8125
18	12	18	11	33	13	-0.745094381369	0.0256339810104	0.289969151858	0.68310546875	0.4404296875	0.748046875	52.875	95.625	-16.1875
18	12	18	11	33	13	-0.748460287409	0.00726304935185	0.281183767764	0.67919921875	0.49072265625	0.78564453125	45.25	110.3125	-19.9375
18	12	18	11	33	13	-0.752502842277	-0.0101318413349	0.269653463961	0.62939453125	0.64697265625	0.8388671875	30.0	119.625	-13.5
18	12	18	11	33	13	-0.757773259553	-0.0225836573528	0.256782287792	0.6435546875	0.7509765625	0.92236328125	5.375	110.375	4.625
18	12	18	11	33	13	-0.761677476658	-0.0315559945053	0.249884412969	0.69775390625	0.69091796875	1.0068359375	0.25	85.4375	9.875
18	12	18	11	33	13	-0.764712543643	-0.0360719222039	0.244935065659	0.7119140625	0.50390625	1.11181640625	0.875	59.9375	6.3125
18	12	18	11	33	13	-0.767575428552	-0.0394285724272	0.242858033572	0.69921875	0.36279296875	1.06201171875	14.8125	44.125	9.1875
18	12	18	11	33	13	-0.770492030281	-0.0463857686164	0.24175530196	0.53125	0.32666015625	0.99560546875	36.4375	44.1875	11.0
18	12	18	11	33	13	-0.773496503702	-0.0543211463974	0.240538919048	0.416015625	0.29150390625	0.98193359375	42.875	41.75	12.5
18	12	18	11	33	13	-0.775161347515	-0.0622570531075	0.241642816914	0.3720703125	0.322265625	0.97705078125	49.125	27.4375	7.3125
18	12	18	11	33	13	-0.77496860725	-0.070007796528	0.244386414384	0.326171875	0.38232421875	0.99609375	49.875	12.75	-3.5
18	12	18	11	33	13	-0.774186929429	-0.0757462929219	0.246709521346	0.33642578125	0.41259765625	0.98828125	37.375	8.125	-7.8125
18	12	18	11	33	13	-0.773989324912	-0.0786745713912	0.247010077905	0.34521484375	0.36181640625	0.99169921875	20.625	8.875	-5.875
18	12	18	11	33	13	-0.773985667404	-0.0789793749405	0.246215454799	0.34423828125	0.3251953125	1.03076171875	8.1875	4.125	-5.375
18	12	18	11	33	13	-0.772962110416	-0.0792859903214	0.247440650318	0.369140625	0.3466796875	0.99267578125	12.0	-4.0625	-10.5
18	12	18	11	33	13	-0.772210115752	-0.0791008781232	0.248166798186	0.375	0.35693359375	0.958984375	6.75	-2.0	-8.75
18	12	18	11	33	13	-0.772157512078	-0.0768434359107	0.248169507873	0.38916015625	0.37158203125	0.9580078125	-5.5625	-4.0625	-1.8125
18	12	18	11	33	13	-0.771792076604	-0.0732424271985	0.249817712103	0.431640625	0.3740234375	0.93359375	-7.125	-13.1875	-0.8125
18	12	18	11	33	13	-0.770580229808	-0.0677500241653	0.25238409903	0.41455078125	0.37451171875	0.94384765625	-13.0625	-27.125	-3.75
18	12	18	11	33	13	-0.76942821101	-0.0612808126173	0.256659180335	0.4130859375	0.39013671875	0.890625	-13.5625	-37.8125	2.8125
18	12	18	11	33	13	-0.767998284388	-0.0543818224104	0.262204611757	0.380859375	0.4404296875	0.84326171875	-15.1875	-46.6875	6.875
18	12	18	11	33	13	-0.766246047407	-0.0467535823095	0.267764968136	0.3623046875	0.4765625	0.81982421875	-21.6875	-51.375	7.5625
18	12	18	11	33	13	-0.764484202619	-0.0394907208858	0.273627359708	0.341796875	0.47998046875	0.830078125	-18.3125	-54.0625	9.625
18	12	18	11	33	13	-0.762675451438	-0.0333243275036	0.280510273272	0.3427734375	0.42822265625	0.85888671875	-5.75	-56.8125	10.0
18	12	18	11	33	13	-0.760427477946	-0.0281368542686	0.289058875957	0.3857421875	0.42431640625	0.87744140625	6.5	-60.8125	8.5625
18	12	18	11	33	14	-0.758789591095	-0.0226440587433	0.298095910787	0.44873046875	0.42529296875	0.859375	8.25	-59.625	15.5625
18	12	18	11	33	14	-0.758051008258	-0.0175779943944	0.30669938136	0.5009765625	0.43798828125	0.84033203125	9.75	-52.8125	21.875
18	12	18	11	33	14	-0.75779205332	-0.0135494390977	0.314871875248	0.52099609375	0.4609375	0.8095703125	12.1875	-45.875	25.5
18	12	18	11	33	14	-0.757561717504	-0.0101927817292	0.322934180415	0.52197265625	0.4814453125	0.798828125	13.9375	-43.875	26.0
18	12	18	11	33	14	-0.757954160697	-0.00671404072127	0.330208730019	0.55517578125	0.4716796875	0.81640625	12.8125	-39.625	29.875
18	12	18	11	33	14	-0.758919283658	-0.00262453990649	0.336795609396	0.5771484375	0.4580078125	0.826171875	10.375	-37.875	34.5
18	12	18	11	33	14	-0.759700121123	0.00170897432244	0.34264935165	0.580078125	0.47900390625	0.84814453125	5.1875	-37.8125	33.5625
18	12	18	11	33	14	-0.760489482631	0.00579827454654	0.348262679606	0.5869140625	0.490234375	0.8447265625	5.25	-36.375	33.625
18	12	18	11	33	14	-0.762204653228	0.00872800011304	0.353575557027	0.5810546875	0.43310546875	0.83203125	14.5	-30.5625	38.25
18	12	18	11	33	14	-0.764571066385	0.0120847027336	0.359306287843	0.62353515625	0.345703125	0.83642578125	21.1875	-31.6875	42.75
18	12	18	11	33	14	-0.767367155616	0.0164802045829	0.365860541741	0.67041015625	0.27587890625	0.80810546875	25.25	-35.3125	49.25
18	12	18	11	33	14	-0.770280600787	0.0217289931759	0.373238183345	0.6806640625	0.26953125	0.75634765625	24.75	-40.625	56.3125
18	12	18	11	33	14	-0.772840321664	0.0277104332677	0.380621722153	0.6357421875	0.3388671875	0.69091796875	16.0625	-44.125	61.0
18	12	18	11	33	14	-0.774847770125	0.0349734361781	0.38623368959	0.55322265625	0.42138671875	0.62890625	-4.625	-43.5625	61.1875
18	12	18	11	33	14	-0.775964193245	0.0429700929792	0.38905024524	0.494140625	0.42626953125	0.6015625	-24.4375	-37.3125	49.125
18	12	18	11	33	14	-0.777516458643	0.0526726355137	0.388422540451	0.40380859375	0.3388671875	0.60693359375	-41.75	-30.0625	46.0
18	12	18	11	33	14	-0.779959851572	0.0642082920302	0.385860097162	0.38134765625	0.2119140625	0.57861328125	-50.125	-25.1875	50.25
18	12	18	11	33	14	-0.783263823141	0.0744018234558	0.382934405547	0.400390625	0.1591796875	0.56298828125	-40.125	-16.625	53.1875
18	12	18	11	33	14	-0.78728676139	0.0820916888184	0.379086601674	0.380859375	0.14111328125	0.55419921875	-30.8125	-5.125	51.5625
18	12	18	11	33	14	-0.791933084714	0.0864259921353	0.373780208924	0.353515625	0.13134765625	0.54443359375	-20.75	12.1875	44.8125
18	12	18	11	33	14	-0.796788843289	0.0860568570691	0.367847289046	0.37109375	0.07568359375	0.4990234375	-1.1875	31.8125	28.875
18	12	18	11	33	14	-0.801562364278	0.0841661844468	0.359369466296	0.3955078125	0.04150390625	0.43115234375	-5.6875	53.4375	14.875
18	12	18	11	33	14	-0.805931651658	0.0802025288003	0.346811848283	0.35888671875	0.00244140625	0.529296875	-11.8125	73.8125	-7.3125
18	12	18	11	33	14	-0.806026541111	0.0771480802639	0.332090747402	0.24169921875	0.1474609375	0.82666015625	-44.0	59.125	-45.9375
18	12	18	11	33	14	-0.804569682804	0.0816654707626	0.320131086808	0.58544921875	0.3466796875	1.09326171875	-77.9375	30.8125	-27.375
18	12	18	11	33	14	-0.803781765641	0.0900279523366	0.312686915132	1.04248046875	0.240234375	1.1259765625	-68.375	22.25	-7.0
18	12	18	11	33	14	-0.805989250485	0.0960717213376	0.30866244905	1.12158203125	-0.09912109375	1.04833984375	-17.6875	23.0	12.875
18	12	18	11	33	14	-0.808698119768	0.0914896967194	0.3087700972	0.7626953125	-0.181640625	1.021484375	50.625	15.5625	0.1875
18	12	18	11	33	14	-0.809517683619	0.0826424597466	0.311892887227	0.6064453125	0.00390625	0.935546875	64.5	6.0625	-14.375
18	12	18	11	33	14	-0.809201935638	0.0751951112314	0.315734018182	0.5439453125	0.1025390625	0.845703125	52.1875	-2.25	-15.4375
18	12	18	11	33	14	-0.809692132456	0.0708617944959	0.316894433267	0.56689453125	0.203125	0.78564453125	24.4375	6.625	-2.0
18	12	18	11	33	14	-0.811157067918	0.0728759623096	0.314941344654	0.6318359375	0.24951171875	0.73388671875	-15.9375	10.4375	16.9375
18	12	18	11	33	14	-0.811999464836	0.0780017525602	0.312678386828	0.57373046875	0.20361328125	0.69140625	-31.0	0.9375	17.0
18	12	18	11	33	14	-0.812926292153	0.0826415045855	0.309142703638	0.43994140625	0.0869140625	0.67724609375	-27.8125	2.0625	11.25
18	12	18	11	33	14	-0.814542231932	0.0866118716457	0.305674597041	0.41259765625	0.09326171875	0.7431640625	-22.5	0.0	18.125
18	12	18	11	33	14	-0.815535804865	0.0900250944601	0.305658083428	0.5439453125	0.20458984375	0.70654296875	-15.75	-7.4375	22.0
18	12	18	11	33	14	-0.815243299021	0.0928340988105	0.305296622124	0.4970703125	0.2109375	0.67724609375	-19.625	-6.375	6.9375
18	12	18	11	33	14	-0.815449784229	0.095461337016	0.302253542777	0.38525390625	0.10888671875	0.74365234375	-21.3125	-1.25	2.875
18	12	18	11	33	14	-0.81545335079	0.0970487146524	0.300851015422	0.45458984375	0.0546875	0.79443359375	-8.0625	-4.8125	-1.0625
18	12	18	11	33	14	-0.814952763764	0.0962537828383	0.302372378047	0.5859375	0.103515625	0.80126953125	9.375	-5.625	-5.25
18	12	18	11	33	14	-0.815255239224	0.0947275684117	0.303408983618	0.61962890625	0.13818359375	0.84912109375	12.25	-0.875	1.125
18	12	18	11	33	14	-0.81586969593	0.0941176831843	0.304081905074	0.66650390625	0.1279296875	0.91162109375	9.125	-1.375	5.4375
18	12	18	11	33	14	-0.815557922323	0.094666242892	0.305910515393	0.755859375	0.1005859375	0.9140625	6.9375	-6.8125	-0.8125
18	12	18	11	33	14	-0.814649506335	0.0945449977758	0.30768323679	0.73388671875	0.0634765625	0.916015625	9.6875	-6.5625	-10.4375
18	12	18	11	33	14	-0.814390266508	0.0932615099471	0.308104778935	0.6484375	0.07470703125	0.9150390625	11.5	-0.8125	-8.75
18	12	18	11	33	14	-0.81457586291	0.0933838655966	0.307861580437	0.63330078125	0.109375	0.89208984375	2.0625	-0.625	-0.125
18	12	18	11	33	14	-0.814747802189	0.0952136168563	0.30743012058	0.67626953125	0.15185546875	0.85107421875	-8.8125	-0.8125	5.0
18	12	18	11	33	14	-0.814825057799	0.0971076155025	0.30719209857	0.66015625	0.1474609375	0.84130859375	-9.1875	-2.5625	5.3125
18	12	18	11	33	14	-0.815129295885	0.0987554624293	0.307008637836	0.58642578125	0.123046875	0.78955078125	-6.25	-3.875	6.9375
18	12	18	11	33	14	-0.816042329702	0.0997317252605	0.30627527378	0.5693359375	0.11328125	0.7880859375	-2.625	0.125	9.6875
18	12	18	11	33	15	-0.816749322077	0.0999117202391	0.306265737422	0.56787109375	0.11962890625	0.80712890625	2.1875	-2.0	8.1875
18	12	18	11	33	15	-0.81719817575	0.0998533285179	0.307067295705	0.59423828125	0.1767578125	0.78955078125	2.5	-3.625	8.3125
18	12	18	11	33	15	-0.817682182429	0.100280049692	0.307065690811	0.576171875	0.16796875	0.77099609375	-2.75	-1.375	8.4375
18	12	18	11	33	15	-0.818225121418	0.101133748037	0.30657502498	0.56103515625	0.10693359375	0.78271484375	-2.625	-1.25	6.5625
18	12	18	11	33	15	-0.818716018285	0.101134072037	0.307247386018	0.603515625	0.09375	0.8115234375	6.125	-3.5	5.5
18	12	18	11	33	15	-0.819040015945	0.100526038174	0.308353093416	0.59716796875	0.11279296875	0.7783203125	8.875	-3.3125	3.8125
18	12	18	11	33	15	-0.81958270692	0.100159012664	0.308533704459	0.5830078125	0.13427734375	0.779296875	3.8125	-0.1875	5.75
18	12	18	11	33	15	-0.819870992175	0.10113349468	0.30877148436	0.60498046875	0.11181640625	0.783203125	-1.5625	-3.375	5.8125
18	12	18	11	33	15	-0.819879971527	0.101867019465	0.308591761784	0.57275390625	0.107421875	0.7646484375	-3.3125	-1.5	1.3125
18	12	18	11	33	15	-0.820126621933	0.102843890597	0.307982357243	0.572265625	0.1220703125	0.78125	-5.875	-0.875	4.3125
18	12	18	11	33	15	-0.820202828974	0.104127550694	0.307988054398	0.60546875	0.11767578125	0.8056640625	-4.8125	-4.375	4.1875
18	12	18	11	33	15	-0.820028198227	0.10522728796	0.308723678946	0.63330078125	0.14990234375	0.802734375	-4.4375	-6.0625	4.125
18	12	18	11	33	15	-0.82000803598	0.106201264057	0.30920436995	0.62060546875	0.12158203125	0.78076171875	-2.9375	-4.125	3.625
18	12	18	11	33	15	-0.820057120288	0.105772476143	0.309138829582	0.5556640625	0.07568359375	0.791015625	4.125	-1.75	-2.0625
18	12	18	11	33	15	-0.819936653692	0.105467510613	0.310115984622	0.59130859375	0.08447265625	0.80126953125	6.625	-5.5625	-1.3125
18	12	18	11	33	15	-0.819815157435	0.105528618762	0.311336890863	0.63134765625	0.109375	0.79345703125	4.5625	-5.9375	1.5625
18	12	18	11	33	15	-0.819938168694	0.106017016452	0.311764490523	0.623046875	0.09716796875	0.77978515625	1.0625	-2.6875	2.8125
18	12	18	11	33	15	-0.820127688196	0.106323020975	0.311522789354	0.58447265625	0.11572265625	0.791015625	-1.5625	-1.1875	2.3125
18	12	18	11	33	15	-0.820088368782	0.107790715932	0.311470001927	0.5595703125	0.12255859375	0.75439453125	-7.0625	-5.5	4.5
18	12	18	11	33	15	-0.820265628263	0.109010671336	0.310674309685	0.5595703125	0.0869140625	0.78515625	-6.3125	-2.25	2.9375
18	12	18	11	33	15	-0.820646347725	0.109928157103	0.310801874497	0.58154296875	0.07958984375	0.79833984375	-0.5	-5.5	5.8125
18	12	18	11	33	15	-0.82051576897	0.110232201053	0.312324569651	0.6201171875	0.1337890625	0.77294921875	2.625	-8.0	4.25
18	12	18	11	33	15	-0.820556411364	0.109985320833	0.313049228941	0.58203125	0.11767578125	0.78076171875	3.8125	-4.9375	2.1875
18	12	18	11	33	15	-0.820645846318	0.109439791926	0.314158733433	0.57568359375	0.091796875	0.79052734375	8.0	-6.875	1.5625
18	12	18	11	33	15	-0.820750516328	0.108399859969	0.315250718884	0.623046875	0.12109375	0.78369140625	8.75	-2.5625	1.1875
18	12	18	11	33	15	-0.820757886806	0.107546322343	0.316413243489	0.630859375	0.13525390625	0.751953125	6.75	-1.9375	1.1875
18	12	18	11	33	15	-0.820751409153	0.105409212732	0.316349710243	0.548828125	0.107421875	0.78466796875	9.625	2.125	-6.4375
18	12	18	11	33	15	-0.820908756793	0.104185222888	0.316278749271	0.54931640625	0.14501953125	0.76123046875	4.125	1.0	-0.3125
18	12	18	11	33	15	-0.820651181638	0.103878351268	0.316700801839	0.60400390625	0.14404296875	0.7783203125	0.8125	-2.1875	-1.625
18	12	18	11	33	15	-0.820469381377	0.102543413236	0.316480712873	0.55224609375	0.10498046875	0.80224609375	5.5625	0.1875	-6.8125
18	12	18	11	33	15	-0.820755128778	0.100587822728	0.316473216532	0.57568359375	0.12939453125	0.79345703125	9.625	3.0625	-2.25
18	12	18	11	33	15	-0.820712009653	0.0979654005275	0.317212577284	0.6064453125	0.16357421875	0.794921875	12.5625	2.6875	-4.5625
18	12	18	11	33	15	-0.820035314939	0.0949129076837	0.318370242108	0.56591796875	0.14599609375	0.80322265625	15.125	-1.5	-12.25
18	12	18	11	33	15	-0.819754507727	0.0919179724992	0.318661178233	0.56298828125	0.1484375	0.82275390625	13.0625	2.3125	-9.75
18	12	18	11	33	15	-0.819886446617	0.0905763036388	0.318787084842	0.615234375	0.1630859375	0.796875	6.375	2.8125	-1.6875
18	12	18	11	33	15	-0.819697250461	0.0882563085754	0.317869194371	0.55029296875	0.14404296875	0.8291015625	6.8125	6.0	-10.625
18	12	18	11	33	15	-0.819706544171	0.0864262447168	0.317079337079	0.53955078125	0.15625	0.8115234375	4.8125	4.5625	-6.375
18	12	18	11	33	15	-0.819870370656	0.0863021442796	0.316705676568	0.630859375	0.1298828125	0.80078125	1.375	3.4375	-0.75
18	12	18	11	33	15	-0.820379772788	0.0849615834924	0.314638622775	0.53662109375	0.0908203125	0.865234375	4.125	7.875	-6.0
18	12	18	11	33	15	-0.820810423944	0.0841684692607	0.313724388688	0.57373046875	0.1904296875	0.859375	0.1875	3.125	2.0625
18	12	18	11	33	15	-0.820915866778	0.0843498682444	0.313962172394	0.623046875	0.20166015625	0.79931640625	-1.875	-0.375	3.5
18	12	18	11	33	15	-0.821702768012	0.0827012739104	0.311884508991	0.51025390625	0.11669921875	0.78857421875	4.125	11.25	-1.75
18	12	18	11	33	15	-0.8228318635	0.0800187354832	0.309942897623	0.49560546875	0.13720703125	0.79736328125	9.75	13.25	0.1875
18	12	18	11	33	15	-0.823659157688	0.0784902316997	0.308711968847	0.572265625	0.220703125	0.7861328125	1.0625	11.0625	4.5
18	12	18	11	33	15	-0.824276364438	0.0789181295238	0.306944526972	0.6181640625	0.20166015625	0.8173828125	-8.625	9.625	4.5625
18	12	18	11	33	15	-0.825096873327	0.0797141971123	0.303841709973	0.5166015625	0.1337890625	0.791015625	-11.5	11.3125	2.625
18	12	18	11	33	15	-0.826222299102	0.0798939934642	0.300655318415	0.46044921875	0.130859375	0.7763671875	-8.5	11.5	5.0625
18	12	18	11	33	15	-0.827432834898	0.0799540468921	0.298454419315	0.48876953125	0.1630859375	0.7744140625	-5.4375	8.625	9.25
18	12	18	11	33	15	-0.828213044611	0.0792872536627	0.297189867655	0.5146484375	0.22119140625	0.8037109375	-3.5	6.25	7.25
18	12	18	11	33	15	-0.828819496132	0.078554436374	0.296272909215	0.4453125	0.22119140625	0.7890625	-2.6875	1.125	6.75
18	12	18	11	33	16	-0.829590546831	0.0767212564278	0.295288336196	0.39208984375	0.2109375	0.7705078125	3.125	2.625	5.5625
18	12	18	11	33	16	-0.830702393129	0.0734875592452	0.293645056087	0.3623046875	0.1982421875	0.79541015625	9.4375	8.125	4.1875
18	12	18	11	33	16	-0.83165709231	0.069396309552	0.29205043202	0.37109375	0.220703125	0.81005859375	11.625	10.0	0.875
18	12	18	11	33	16	-0.831976619684	0.0672002243616	0.291445114738	0.453125	0.25244140625	0.86279296875	4.125	2.4375	1.5
18	12	18	11	33	16	-0.832301229574	0.0667745339655	0.290597400557	0.49267578125	0.22265625	0.8984375	-3.0	-0.25	3.375
18	12	18	11	33	16	-0.833386210656	0.0657968606333	0.287907042307	0.42236328125	0.150390625	0.90380859375	-0.5625	7.375	4.0
18	12	18	11	33	16	-0.834662487292	0.0628667175072	0.28485336952	0.37255859375	0.189453125	0.90380859375	5.375	12.1875	2.5625
18	12	18	11	33	16	-0.835559339488	0.0593253234465	0.282893903472	0.35986328125	0.23779296875	0.92041015625	8.5625	7.0625	1.875
18	12	18	11	33	16	-0.836099639035	0.056456103811	0.281181913792	0.3447265625	0.232421875	0.9072265625	5.9375	3.5625	-0.25
18	12	18	11	33	16	-0.836854238503	0.0540772267022	0.279480384954	0.3525390625	0.20556640625	0.89990234375	5.5625	3.75	2.0
18	12	18	11	33	16	-0.83770534597	0.050903188236	0.277831310372	0.3447265625	0.171875	0.90234375	12.4375	5.4375	0.8125
18	12	18	11	33	16	-0.838446149297	0.0479739880139	0.277956159562	0.4072265625	0.224609375	0.90234375	14.125	-0.3125	5.1875
18	12	18	11	33	16	-0.83901302965	0.0457166273249	0.278450272171	0.4404296875	0.24755859375	0.8701171875	10.625	-0.9375	6.375
18	12	18	11	33	16	-0.839893903091	0.0425409527254	0.276424641167	0.33154296875	0.20361328125	0.857421875	9.4375	8.9375	0.9375
18	12	18	11	33	16	-0.840877715515	0.0399168197682	0.274840121432	0.30419921875	0.25244140625	0.86669921875	5.9375	3.4375	6.625
18	12	18	11	33	16	-0.841148971239	0.0402232909111	0.27497105547	0.423828125	0.29541015625	0.8994140625	-6.0	-7.5625	8.6875
18	12	18	11	33	16	-0.841012712114	0.0415043649203	0.27521056092	0.4873046875	0.2255859375	0.9541015625	-6.6875	-9.3125	3.3125
18	12	18	11	33	16	-0.84171302064	0.0402821110595	0.27410145571	0.466796875	0.14111328125	0.9052734375	7.4375	5.4375	1.5
18	12	18	11	33	16	-0.84330444827	0.0343010132393	0.270929177526	0.35107421875	0.1845703125	0.92626953125	23.3125	22.75	-0.5
18	12	18	11	33	16	-0.845252940118	0.0281974769539	0.26909670106	0.32666015625	0.2275390625	0.93994140625	27.75	15.5	9.25
18	12	18	11	33	16	-0.846301789511	0.0252071714314	0.269527527945	0.43896484375	0.24072265625	0.87744140625	17.0625	3.8125	9.4375
18	12	18	11	33	16	-0.846253871085	0.022460975446	0.268555141203	0.40576171875	0.27587890625	0.9755859375	7.125	3.625	-4.625
18	12	18	11	33	16	-0.846847916855	0.0213008953501	0.267939629189	0.50341796875	0.27490234375	0.92138671875	2.1875	6.625	4.75
18	12	18	11	33	16	-0.847383328206	0.0180047595665	0.266287342334	0.46484375	0.2236328125	0.90576171875	11.375	15.6875	-3.6875
18	12	18	11	33	16	-0.848640180247	0.0130006011502	0.26165998653	0.3466796875	0.20849609375	1.01025390625	14.5	26.1875	-5.0625
18	12	18	11	33	16	-0.849533873848	0.0102537316478	0.262324634657	0.50439453125	0.30322265625	1.00048828125	15.0625	3.6875	9.8125
18	12	18	11	33	16	-0.848737723928	0.00848371520394	0.265375494293	0.5380859375	0.34228515625	0.974609375	11.9375	-10.25	-1.4375
18	12	18	11	33	16	-0.848013397539	0.00494379481796	0.268490782768	0.42578125	0.25244140625	0.953125	26.75	-12.5	-4.5
18	12	18	11	33	16	-0.846982435316	0.000244139925147	0.274718450771	0.4326171875	0.30224609375	0.9326171875	40.0	-24.1875	0.75
18	12	18	11	33	16	-0.846165221238	-0.000183099802634	0.281607496451	0.53759765625	0.36376953125	0.908203125	19.1875	-32.25	12.8125
18	12	18	11	33	16	-0.845713417838	0.0046387283311	0.287906336023	0.5859375	0.31494140625	0.9111328125	-4.625	-40.9375	22.375
18	12	18	11	33	16	-0.845329875855	0.0107420980614	0.293759761191	0.55615234375	0.2451171875	0.87060546875	-8.4375	-43.4375	23.5
18	12	18	11	33	16	-0.844778998394	0.0153807028102	0.298703014099	0.51171875	0.2509765625	0.91845703125	-5.125	-40.6875	18.0
18	12	18	11	33	16	-0.844361279483	0.0198364475807	0.30505404618	0.61767578125	0.32666015625	0.89111328125	-3.125	-41.5	26.3125
18	12	18	11	33	16	-0.844573937612	0.0239859486545	0.310962871234	0.61865234375	0.3349609375	0.853515625	-2.125	-36.875	33.0625
18	12	18	11	33	16	-0.845658175542	0.0281377422537	0.313909779633	0.52197265625	0.32958984375	0.8310546875	-10.0625	-26.4375	35.875
18	12	18	11	33	16	-0.847351340954	0.0336303816802	0.315307716442	0.4892578125	0.29833984375	0.81787109375	-19.1875	-22.8125	41.5625
18	12	18	11	33	16	-0.849247028521	0.0394899257908	0.316651831534	0.52587890625	0.2294921875	0.8486328125	-16.0	-23.0625	42.5
18	12	18	11	33	16	-0.850894373456	0.0437623747054	0.3189099133	0.53662109375	0.216796875	0.84130859375	-5.875	-23.8125	39.6875
18	12	18	11	33	16	-0.852287617776	0.0454097670886	0.321042170546	0.484375	0.25390625	0.8046875	2.3125	-19.5	32.8125
18	12	18	11	33	16	-0.854268030967	0.0463267673267	0.321296578666	0.404296875	0.27490234375	0.7890625	-0.1875	-11.0	34.0
18	12	18	11	33	16	-0.856612537456	0.048094811508	0.320184493872	0.3408203125	0.2392578125	0.76806640625	-6.625	-8.1875	35.6875
18	12	18	11	33	16	-0.859065179044	0.0508420102411	0.318052479431	0.330078125	0.1845703125	0.7548828125	-12.125	-5.0625	34.25
18	12	18	11	33	16	-0.861676312007	0.0531605091202	0.314934818668	0.3115234375	0.16455078125	0.74462890625	-12.25	0.3125	31.625
18	12	18	11	33	16	-0.864289641981	0.0540753211493	0.31071948078	0.26171875	0.1875	0.7275390625	-11.75	8.125	26.0625
18	12	18	11	33	16	-0.866854457556	0.0539533436936	0.305471137089	0.2109375	0.16259765625	0.70751953125	-9.5625	13.75	19.25
18	12	18	11	33	16	-0.869579034256	0.0534064473204	0.299137140934	0.2041015625	0.12451171875	0.70849609375	-8.9375	21.1875	15.1875
18	12	18	11	33	16	-0.872197402823	0.0530398560569	0.291566619544	0.19677734375	0.0908203125	0.703125	-12.5	27.25	9.5625
18	12	18	11	33	16	-0.874433322824	0.0513295473229	0.28277026486	0.1572265625	0.12158203125	0.7578125	-13.5	32.6875	-0.625
18	12	18	11	33	16	-0.874459425448	0.0506596861256	0.273806448144	-0.064453125	0.1591796875	0.7490234375	-29.875	17.375	-23.875
18	12	18	11	33	17	-0.872902266653	0.056089860373	0.265068839608	-0.17333984375	0.18701171875	0.89794921875	-64.9375	-10.75	-26.5625
18	12	18	11	33	17	-0.87164275793	0.0714111075399	0.257507233086	0.08251953125	0.00048828125	0.9755859375	-96.6875	-27.8125	-2.9375
18	12	18	11	33	17	-0.871446506373	0.0858141047738	0.253658193058	0.490234375	-0.22314453125	1.1376953125	-62.6875	-26.6875	12.3125
18	12	18	11	33	17	-0.872261505831	0.0881355828437	0.256716247535	0.78759765625	-0.1826171875	1.103515625	17.25	-14.4375	14.625
18	12	18	11	33	17	-0.872291055145	0.0805642452275	0.262627232738	0.79541015625	0.07763671875	0.99951171875	55.125	-2.1875	-3.8125
18	12	18	11	33	17	-0.872394222656	0.0713516299087	0.264348938524	0.564453125	0.21240234375	1.0078125	43.125	9.875	-12.25
18	12	18	11	33	17	-0.872792918432	0.0663444686948	0.263607875155	0.4736328125	0.2294921875	0.94580078125	15.4375	10.375	-3.8125
18	12	18	11	33	17	-0.873228324679	0.0654295634344	0.260680658049	0.36865234375	0.13427734375	0.8828125	-5.875	8.5625	-2.3125
18	12	18	11	33	17	-0.87359881121	0.0686037213582	0.257263955093	0.36669921875	0.09716796875	0.92578125	-24.75	-0.3125	3.6875
18	12	18	11	33	17	-0.87345563114	0.0732406370881	0.256098094352	0.4990234375	0.05029296875	0.8876953125	-24.375	-6.6875	4.8125
18	12	18	11	33	17	-0.873854383911	0.0758679192011	0.253055827037	0.4248046875	0.00390625	0.88037109375	-16.8125	4.25	1.25
18	12	18	11	33	17	-0.874745636951	0.0774527081559	0.250485354036	0.4228515625	0.0263671875	0.89794921875	-9.875	4.125	7.125
18	12	18	11	33	17	-0.875295943069	0.0786734865501	0.248471500191	0.455078125	0.07080078125	0.90771484375	-10.4375	4.0	5.625
18	12	18	11	33	17	-0.876073885059	0.0815406653504	0.245903698126	0.4482421875	0.07080078125	0.90087890625	-19.875	2.5625	11.125
18	12	18	11	33	17	-0.876559050532	0.0841648050887	0.244499063949	0.443359375	0.0361328125	0.90087890625	-14.25	-3.125	8.625
18	12	18	11	33	17	-0.877147984216	0.0851451839107	0.243533536777	0.4306640625	-0.02978515625	0.87353515625	-0.9375	-1.5	5.5625
18	12	18	11	33	17	-0.878302479953	0.083252576974	0.243776240787	0.44921875	0.00927734375	0.841796875	16.0	1.9375	9.6875
18	12	18	11	33	17	-0.879214257307	0.0802614889524	0.244812800143	0.462890625	0.11181640625	0.8046875	16.9375	2.125	9.9375
18	12	18	11	33	17	-0.879826021855	0.0789798732071	0.245423547269	0.46533203125	0.14794921875	0.81005859375	4.625	0.125	9.875
18	12	18	11	33	17	-0.879937150684	0.0801385502427	0.245847738292	0.46826171875	0.1171875	0.80517578125	-8.0625	-4.375	7.5625
18	12	18	11	33	17	-0.879720591329	0.0818500876273	0.246038555724	0.4423828125	0.0625	0.8369140625	-9.125	-7.5625	2.25
18	12	18	11	33	17	-0.879775570997	0.082337813603	0.246769296069	0.451171875	0.00146484375	0.841796875	3.375	-7.375	2.25
18	12	18	11	33	17	-0.880123382612	0.0808102190414	0.247618624359	0.4521484375	0.00634765625	0.85595703125	13.875	-3.5625	1.875
18	12	18	11	33	17	-0.880294098137	0.0789780602502	0.249751331178	0.51806640625	0.09375	0.869140625	14.0625	-6.125	4.6875
18	12	18	11	33	17	-0.879997510068	0.0785515879773	0.252073083408	0.54052734375	0.068359375	0.87353515625	7.5625	-9.75	1.375
18	12	18	11	33	17	-0.880135209079	0.0783698757599	0.25268791717	0.48291015625	0.02783203125	0.875	5.4375	-4.9375	1.875
18	12	18	11	33	17	-0.880587885725	0.0775732743802	0.253471131787	0.513671875	0.078125	0.89306640625	7.0625	-2.9375	7.0625
18	12	18	11	33	17	-0.881058338551	0.0777601886605	0.254765327684	0.58984375	0.130859375	0.904296875	0.9375	-3.875	12.6875
18	12	18	11	33	17	-0.881527348064	0.078979186346	0.255675279446	0.55517578125	0.09033203125	0.86279296875	-2.875	-5.1875	12.6875
18	12	18	11	33	17	-0.881986425227	0.0787324398687	0.255300617032	0.349609375	0.0556640625	0.83740234375	1.6875	-6.25	5.3125
18	12	18	11	33	17	-0.882437056633	0.0789176313616	0.255246352942	0.3115234375	0.10009765625	0.8408203125	-2.0625	-11.4375	8.8125
18	12	18	11	33	17	-0.882598626562	0.0798922344353	0.256888017371	0.484375	0.0888671875	0.85498046875	-0.625	-12.625	10.5
18	12	18	11	33	17	-0.882688266008	0.0800779287099	0.258056008068	0.4658203125	0.08251953125	0.86962890625	1.625	-10.4375	6.375
18	12	18	11	33	17	-0.882926166558	0.0791618441882	0.25970211798	0.46142578125	0.12451171875	0.89306640625	6.8125	-11.5	8.25
18	12	18	11	33	17	-0.883379346909	0.0780044776722	0.261540834762	0.49560546875	0.0947265625	0.8828125	11.25	-9.9375	10.3125
18	12	18	11	33	17	-0.8834082958	0.075743380896	0.264155803802	0.4794921875	0.06494140625	0.8916015625	19.5	-13.0625	2.875
18	12	18	11	33	17	-0.883060783959	0.0718997514172	0.267152132388	0.4638671875	0.09521484375	0.91162109375	25.75	-13.6875	-4.125
18	12	18	11	33	17	-0.882988296479	0.0690301903172	0.269956261514	0.50244140625	0.1240234375	0.892578125	20.125	-12.125	2.4375
18	12	18	11	33	17	-0.883314299147	0.0659189775483	0.271610601935	0.48388671875	0.12646484375	0.8515625	19.4375	-4.4375	3.9375
18	12	18	11	33	17	-0.883479864858	0.0637814479293	0.272520732062	0.47021484375	0.14697265625	0.89453125	10.6875	-5.6875	2.4375
18	12	18	11	33	17	-0.883718534601	0.0631707081506	0.273068355812	0.4951171875	0.13720703125	0.87841796875	3.625	-4.6875	5.8125
18	12	18	11	33	17	-0.884541001894	0.0625624156046	0.272283840012	0.48291015625	0.08740234375	0.89501953125	4.125	1.5625	7.4375
18	12	18	11	33	17	-0.885375793508	0.062316881647	0.271057072864	0.48876953125	0.09326171875	0.89697265625	0.5625	3.375	7.5625
18	12	18	11	33	17	-0.886398176704	0.062498914339	0.269099329415	0.5048828125	0.142578125	0.89013671875	-5.9375	7.875	10.3125
18	12	18	11	33	17	-0.887380837689	0.0637200353909	0.267331182962	0.53173828125	0.154296875	0.91748046875	-11.625	5.5	13.625
18	12	18	11	33	17	-0.888282086976	0.0650007161351	0.266228285241	0.53515625	0.1318359375	0.90576171875	-8.8125	2.375	14.375
18	12	18	11	33	17	-0.8895733183	0.0643910703812	0.264583213367	0.46142578125	0.09716796875	0.89404296875	2.0	6.1875	12.4375
18	12	18	11	33	17	-0.891239501729	0.063110645445	0.263062748422	0.48828125	0.14208984375	0.8671875	4.375	9.75	18.875
18	12	18	11	33	17	-0.892854653173	0.063047293508	0.26097795454	0.49462890625	0.1904296875	0.85888671875	-6.6875	11.25	20.5625
18	12	18	11	33	17	-0.894394686128	0.0650624222337	0.258052458915	0.47998046875	0.173828125	0.87939453125	-19.0625	9.8125	21.75
18	12	18	11	33	18	-0.895806027039	0.0684198784705	0.255918421433	0.48876953125	0.12841796875	0.90478515625	-21.0	2.5	24.5625
18	12	18	11	33	18	-0.897827419356	0.070068380518	0.253112869345	0.41650390625	0.0703125	0.88037109375	-9.5	6.4375	25.9375
18	12	18	11	33	18	-0.900234541087	0.0696995149777	0.250600883099	0.42041015625	0.0908203125	0.859375	1.375	10.9375	29.375
18	12	18	11	33	18	-0.902265524145	0.0703111603744	0.248774557019	0.4765625	0.12548828125	0.8447265625	-5.3125	8.875	29.6875
18	12	18	11	33	18	-0.904101235459	0.0724477260845	0.246029303999	0.42529296875	0.11572265625	0.890625	-15.75	6.1875	27.75
18	12	18	11	33	18	-0.905870828882	0.0763538880832	0.243892995028	0.46435546875	0.02490234375	0.912109375	-17.8125	0.75	30.5
18	12	18	11	33	18	-0.908481965773	0.0789161694151	0.240898778563	0.416015625	0.0390625	0.8720703125	-11.6875	7.375	39.25
18	12	18	11	33	18	-0.911678173963	0.0801998473983	0.23669330914	0.3466796875	0.11181640625	0.84130859375	-11.0	13.75	45.125
18	12	18	11	33	18	-0.914273501486	0.0837371992015	0.232779648509	0.43798828125	0.0830078125	0.83642578125	-22.9375	13.875	42.5
18	12	18	11	33	18	-0.916543919235	0.089231351796	0.227594877461	0.44287109375	0.02783203125	0.90966796875	-34.4375	15.0625	37.875
18	12	18	11	33	18	-0.918590606455	0.0958263954906	0.221804535804	0.5087890625	-0.033203125	0.95849609375	-39.8125	19.375	35.4375
18	12	18	11	33	18	-0.921118596144	0.101803990085	0.213922653027	0.47802734375	-0.060546875	0.92626953125	-39.1875	31.75	36.6875
18	12	18	11	33	18	-0.924139681827	0.105591549406	0.203980900645	0.27880859375	-0.01806640625	0.87158203125	-34.4375	38.0625	35.6875
18	12	18	11	33	18	-0.926032162487	0.113098971598	0.195374963889	0.27685546875	-0.0703125	0.89013671875	-51.6875	23.125	31.6875
18	12	18	11	33	18	-0.927174339187	0.121702694512	0.188535417928	0.30224609375	-0.193359375	0.86572265625	-48.5625	14.4375	26.25
18	12	18	11	33	18	-0.928366492023	0.128778732376	0.182426365437	0.31005859375	-0.2802734375	0.84326171875	-34.25	14.5625	23.875
18	12	18	11	33	18	-0.929406505557	0.132807233786	0.177239065678	0.3369140625	-0.24072265625	0.86767578125	-21.0	17.125	16.25
18	12	18	11	33	18	-0.930607605243	0.132385905147	0.173523802827	0.39794921875	-0.13134765625	0.9619140625	-3.25	18.8125	12.375
18	12	18	11	33	18	-0.932036936859	0.129878501843	0.171564130018	0.44091796875	0.06591796875	0.9375	-0.0625	16.4375	19.6875
18	12	18	11	33	18	-0.933576100119	0.128293472963	0.169735560567	0.43896484375	0.05078125	0.9619140625	-3.4375	12.875	25.125
18	12	18	11	33	18	-0.934657959917	0.127924976099	0.169122189299	0.49609375	0.01806640625	0.921875	-5.75	9.25	23.3125
18	12	18	11	33	18	-0.935894065655	0.12737778238	0.167293963347	0.458984375	-0.04345703125	0.96240234375	-3.625	13.125	21.0625
18	12	18	11	33	18	-0.937393116786	0.12750450716	0.163149615911	0.42626953125	-0.064453125	0.95556640625	-9.5625	23.6875	22.25
18	12	18	11	33	18	-0.939421074312	0.127803256861	0.157953595395	0.43505859375	-0.0126953125	0.900390625	-13.6875	31.1875	33.125
18	12	18	11	33	18	-0.941390142709	0.129880590229	0.152035972866	0.36767578125	-0.12158203125	0.9365234375	-17.875	27.3125	34.0625
18	12	18	11	33	18	-0.943370687695	0.131654410802	0.147218562288	0.43896484375	-0.15478515625	0.94189453125	-12.4375	26.625	37.3125
18	12	18	11	33	18	-0.945624978424	0.134522523233	0.140504014738	0.40771484375	-0.20458984375	0.89794921875	-17.4375	34.625	42.8125
18	12	18	11	33	18	-0.947397468079	0.138246054967	0.133058013169	0.3203125	-0.28271484375	0.833984375	-19.375	34.8125	33.6875
18	12	18	11	33	18	-0.949074891929	0.141537278095	0.125485400502	0.2919921875	-0.34228515625	0.7568359375	-13.1875	36.75	30.4375
18	12	18	11	33	18	-0.950989890801	0.142456222651	0.118103166594	0.30029296875	-0.25	0.8310546875	-6.9375	39.1875	31.75
18	12	18	11	33	18	-0.95306038247	0.14233344937	0.111388741467	0.2900390625	-0.1474609375	0.94677734375	-8.75	34.625	35.875
18	12	18	11	33	18	-0.954957182413	0.143493821798	0.10546887455	0.31884765625	-0.11083984375	0.97412109375	-17.875	29.9375	41.8125
18	12	18	11	33	18	-0.95713075396	0.145931617952	0.0989966893842	0.23828125	-0.140625	0.89794921875	-21.0625	26.75	52.3125
18	12	18	11	33	18	-0.959157029096	0.148069675634	0.0925893231396	0.1689453125	-0.197265625	0.8935546875	-16.875	23.25	48.8125
18	12	18	11	33	18	-0.961016859903	0.149172766313	0.0877091919772	0.216796875	-0.126953125	0.8505859375	-13.5625	20.625	46.5
18	12	18	11	33	18	-0.963054970781	0.150204593643	0.0821517200501	0.13232421875	-0.193359375	0.919921875	-10.5625	18.25	49.9375
18	12	18	11	33	18	-0.965329397087	0.150695389568	0.0764158071037	0.1142578125	-0.2216796875	0.90087890625	-5.125	19.0625	56.0
18	12	18	11	33	18	-0.967929524948	0.148677490559	0.0728129089642	0.17138671875	-0.1552734375	0.8798828125	7.75	13.5625	61.3125
18	12	18	11	33	18	-0.969879948999	0.147273319296	0.0693338129798	0.16748046875	-0.287109375	1.005859375	9.5	13.0	46.9375
18	12	18	11	33	18	-0.971882276034	0.144769201127	0.0674409642689	0.1943359375	-0.259765625	0.9365234375	17.375	8.0	48.125
18	12	18	11	33	18	-0.97340232645	0.143556701267	0.0655526773644	0.1357421875	-0.3720703125	1.083984375	13.9375	2.3125	39.1875
18	12	18	11	33	18	-0.974759619912	0.139338564414	0.0668312431159	0.263671875	-0.310546875	1.0390625	30.1875	-1.8125	27.25
18	12	18	11	33	18	-0.976260977447	0.134583023149	0.0653688969582	0.09716796875	-0.33837890625	1.04638671875	33.0	3.5625	23.5625
18	12	18	11	33	18	-0.977949043886	0.12695088381	0.0667712821576	0.15625	-0.2431640625	1.03857421875	46.5	-6.0	24.0
18	12	18	11	33	18	-0.979221693084	0.123104597043	0.0666485969115	0.08984375	-0.15087890625	0.955078125	19.5625	-4.3125	27.875
18	12	18	11	33	18	-0.980396098899	0.119017144547	0.0676261518758	0.09033203125	-0.25341796875	1.02685546875	28.125	-10.875	25.125
18	12	18	11	33	18	-0.981410312041	0.117732617657	0.0678076403407	0.197265625	-0.16455078125	0.91064453125	8.1875	-1.3125	35.6875
18	12	18	11	33	18	-0.982322868421	0.116206445571	0.0678684703128	0.1201171875	-0.1884765625	1.025390625	8.75	-5.875	30.1875
18	12	18	11	33	18	-0.983309176638	0.112362497312	0.0687846466434	0.24560546875	-0.24072265625	1.08154296875	25.4375	-0.8125	25.5625
18	12	18	11	33	18	-0.984911500389	0.106565996138	0.0655509048409	0.19140625	-0.158203125	0.9501953125	31.625	21.75	35.0
18	12	18	11	33	19	-0.986487683488	0.0989966604355	0.0614609353012	0.00146484375	-0.1865234375	0.99267578125	42.5	16.25	23.625
18	12	18	11	33	19	-0.987861792809	0.0896613514759	0.0573124636051	-0.18505859375	-0.2626953125	0.8291015625	60.0625	8.5625	6.4375
18	12	18	11	33	19	-0.989596120464	0.0782448640949	0.0491319154418	-0.42822265625	-0.1630859375	0.82275390625	64.1875	16.6875	11.75
18	12	18	11	33	19	-0.991211000273	0.0667114300061	0.0416259791987	-0.314453125	-0.158203125	0.98095703125	64.6875	20.125	19.375
18	12	18	11	33	19	-0.992407915362	0.0531603502018	0.0399770716213	-0.01220703125	-0.2626953125	1.11669921875	88.0	8.9375	12.5625
18	12	18	11	33	19	-0.993120235431	0.0334457896396	0.0436382109349	0.04248046875	-0.1962890625	1.10498046875	116.8125	-10.125	-5.0625
18	12	18	11	33	19	-0.992878034314	0.0107417343275	0.0527931829162	0.0517578125	-0.05615234375	1.08642578125	134.3125	-39.3125	-23.9375
18	12	18	11	33	19	-0.991769081652	-0.00781208876624	0.0656093392478	0.2080078125	0.03759765625	1.17724609375	112.375	-60.8125	-26.75
18	12	18	11	33	19	-0.989631057615	-0.0224610971508	0.083252544874	0.3505859375	0.1982421875	1.171875	84.0	-80.875	-35.0
18	12	18	11	33	19	-0.986740744813	-0.0302119545174	0.101438926077	0.54736328125	0.2294921875	1.03173828125	42.8125	-76.625	-49.5
18	12	18	11	33	19	-0.983306147432	-0.0292959438128	0.12047956893	0.68115234375	0.2314453125	1.09130859375	-5.625	-82.875	-56.5625
18	12	18	11	33	19	-0.979084900681	-0.0264881465463	0.141473556899	0.80859375	0.1494140625	1.11669921875	-9.0625	-91.4375	-60.375
18	12	18	11	33	19	-0.974041904933	-0.0258173899233	0.161984285713	0.8642578125	0.2099609375	1.11083984375	2.75	-113.5625	-69.3125
18	12	18	11	33	19	-0.968336265411	-0.0260607327197	0.182852354164	0.84521484375	0.2373046875	1.001953125	7.625	-115.75	-69.3125
18	12	18	11	33	19	-0.963064002488	-0.0253293339903	0.201230877508	0.78271484375	0.22216796875	0.94189453125	3.5625	-103.25	-52.8125
18	12	18	11	33	19	-0.957755713667	-0.0244138596397	0.221067499038	0.77685546875	0.232421875	0.91748046875	3.375	-94.4375	-30.25
18	12	18	11	33	19	-0.952978098696	-0.0248406613404	0.239251578512	0.7177734375	0.2939453125	0.853515625	8.9375	-87.8125	-12.0
18	12	18	11	33	19	-0.94835969683	-0.0252073983003	0.255675039904	0.7021484375	0.26416015625	0.79150390625	9.5625	-79.6875	-10.4375
18	12	18	11	33	19	-0.943873412248	-0.022704229509	0.269582208982	0.69140625	0.22705078125	0.775390625	-9.125	-70.875	-17.4375
18	12	18	11	33	19	-0.939940534364	-0.018005354392	0.279357651025	0.66796875	0.2021484375	0.76611328125	-27.3125	-53.0	-26.4375
18	12	18	11	33	19	-0.937304600224	-0.0123899742037	0.284664234906	0.5556640625	0.16552734375	0.68310546875	-35.9375	-32.625	-21.5625
18	12	18	11	33	19	-0.936060081485	-0.00720187061454	0.286549004536	0.4404296875	0.16259765625	0.6865234375	-34.5	-18.1875	-8.875
18	12	18	11	33	19	-0.935677155842	-0.0034179987428	0.286684644552	0.36376953125	0.15478515625	0.67724609375	-25.8125	-9.75	-0.5
18	12	18	11	33	19	-0.935951088306	-0.00140377404832	0.285942670278	0.330078125	0.13427734375	0.64501953125	-13.875	-2.6875	6.75
18	12	18	11	33	19	-0.936714349086	0.000671392313804	0.284792412383	0.3486328125	0.1123046875	0.64794921875	-10.8125	1.125	16.0
18	12	18	11	33	19	-0.938226910012	0.00341794867035	0.282163869697	0.40185546875	0.1005859375	0.62939453125	-13.875	13.5625	24.75
18	12	18	11	33	19	-0.940358106299	0.00634758506232	0.277340639646	0.4150390625	0.0693359375	0.6005859375	-15.875	28.5	25.0
18	12	18	11	33	19	-0.943224407429	0.00903307961042	0.269222392984	0.3818359375	0.05322265625	0.607421875	-18.8125	46.3125	21.25
18	12	18	11	33	19	-0.947056505735	0.0117184281176	0.256645782472	0.330078125	0.07861328125	0.599609375	-27.4375	70.0625	19.5
18	12	18	11	33	19	-0.952634351677	0.019164991442	0.237853412896	0.38525390625	0.2177734375	0.7275390625	-57.375	101.9375	41.625
18	12	18	11	33	19	-0.956714124074	0.0361323611772	0.222653468876	0.14697265625	0.41015625	0.7275390625	-108.5625	66.1875	57.9375
18	12	18	11	33	19	-0.959375190715	0.0642675790968	0.209220570887	-0.19482421875	0.01318359375	0.8974609375	-161.25	36.6875	73.875
18	12	18	11	33	19	-0.960906214328	0.086300901109	0.204583182827	0.42724609375	-0.56982421875	1.09814453125	-81.125	-5.25	85.0625
18	12	18	11	33	19	-0.959611374695	0.0952775318597	0.211124268227	1.0576171875	-0.45068359375	1.07470703125	-17.8125	-14.8125	32.375
18	12	18	11	33	19	-0.960130326176	0.0859362722812	0.216610674947	1.08056640625	-0.27197265625	1.0712890625	72.9375	11.125	14.3125
18	12	18	11	33	19	-0.963484859122	0.0733019964402	0.212154654143	0.52099609375	0.26123046875	0.88818359375	55.9375	41.625	47.0
18	12	18	11	33	19	-0.966301973823	0.069518566712	0.20550396323	0.1943359375	0.248046875	0.89306640625	5.0	26.0	50.0625
18	12	18	11	33	19	-0.967344710311	0.0750731272435	0.20208709293	0.3486328125	-0.03173828125	0.86865234375	-30.5	10.875	39.0625
18	12	18	11	33	19	-0.968954628536	0.0848964404317	0.196158993205	0.28857421875	-0.15576171875	0.85107421875	-44.875	17.6875	63.125
18	12	18	11	33	19	-0.969759589294	0.0924045577564	0.193231723815	0.349609375	-0.400390625	0.8876953125	-17.875	6.1875	42.75
18	12	18	11	33	19	-0.971051225354	0.0914289588674	0.190792340066	0.5302734375	-0.22119140625	0.943359375	16.25	20.1875	34.25
18	12	18	11	33	19	-0.973385368464	0.0889279208586	0.186156594797	0.48291015625	0.18994140625	0.85546875	4.0625	32.125	72.625
18	12	18	11	33	19	-0.974460539971	0.0922215881183	0.183954908397	0.3232421875	-0.0146484375	0.91943359375	-17.25	3.125	63.375
18	12	18	11	33	19	-0.974323851923	0.0950277021701	0.185844157423	0.40234375	-0.30419921875	0.9482421875	0.125	-14.4375	28.9375
18	12	18	11	33	19	-0.975770298872	0.0942384025432	0.182983633954	0.3681640625	-0.10986328125	0.859375	12.25	13.375	59.4375
18	12	18	11	33	19	-0.977268546018	0.0936864363064	0.17968265048	0.31884765625	-0.07470703125	0.873046875	9.875	12.0	69.875
18	12	18	11	33	19	-0.977888288481	0.0919173487987	0.179745413155	0.31787109375	-0.203125	0.9736328125	20.5	-7.1875	40.25
18	12	18	11	33	19	-0.978623162015	0.0904527582703	0.178830352046	0.39501953125	-0.2431640625	0.96337890625	21.75	3.125	44.4375
18	12	18	11	33	19	-0.979626832035	0.0892900165266	0.175833586885	0.37646484375	-0.1591796875	0.99853515625	13.625	13.75	47.3125
18	12	18	11	33	19	-0.980040357513	0.0899046799911	0.1744993076	0.26416015625	-0.14501953125	0.982421875	0.875	-2.5625	37.3125
18	12	18	11	33	20	-0.979811302567	0.0914873017658	0.175833833481	0.29931640625	-0.28125	1.0810546875	1.8125	-17.9375	27.4375
18	12	18	11	33	20	-0.978995891904	0.0929557820056	0.180113271634	0.46435546875	-0.3798828125	0.978515625	8.625	-21.8125	18.125
18	12	18	11	33	20	-0.979219894778	0.0910008017399	0.180353701637	0.3564453125	-0.26025390625	1.02783203125	20.0	-5.5625	18.875
18	12	18	11	33	20	-0.979129890384	0.089599967528	0.181824457266	0.3037109375	-0.19287109375	0.9912109375	11.5	-15.3125	14.375
18	12	18	11	33	20	-0.978695693417	0.0886227718642	0.184813879618	0.5078125	-0.31103515625	1.1083984375	15.4375	-14.1875	10.5625
18	12	18	11	33	20	-0.978930783845	0.0883778150139	0.183957689539	0.42333984375	0.005859375	0.95068359375	-4.625	5.25	35.875
18	12	18	11	33	20	-0.978939009106	0.0897823606456	0.18334888605	0.2529296875	-0.201171875	0.95263671875	-0.9375	-7.375	32.0
18	12	18	11	33	20	-0.978240955302	0.0919771100349	0.18596831737	0.4208984375	-0.28271484375	0.982421875	-5.0	-14.25	8.375
18	12	18	11	33	20	-0.978132843891	0.0949080601679	0.184994424675	0.34423828125	-0.1279296875	0.96142578125	-16.75	0.875	28.9375
18	12	18	11	33	20	-0.977440788982	0.100643138372	0.185539806338	0.3759765625	-0.287109375	0.91650390625	-24.5	-4.375	16.9375
18	12	18	11	33	20	-0.97729107367	0.103026938069	0.184874760314	0.408203125	-0.177734375	0.87451171875	-11.25	6.1875	21.3125
18	12	18	11	33	20	-0.977187586745	0.106196140212	0.183218857998	0.45751953125	-0.17236328125	0.85400390625	-14.0	13.9375	38.25
18	12	18	11	33	20	-0.976865776168	0.108947542047	0.182922007571	0.3818359375	-0.1533203125	0.80078125	-13.6875	3.5625	27.75
18	12	18	11	33	20	-0.976765223613	0.108393841361	0.183219770138	0.37158203125	-0.17529296875	0.82373046875	5.9375	-1.3125	26.4375
18	12	18	11	33	20	-0.976340408683	0.111384712499	0.182976092094	0.29638671875	-0.16796875	0.87353515625	-15.0625	-4.375	30.9375
18	12	18	11	33	20	-0.975286586124	0.115533010484	0.185292245023	0.33251953125	-0.09521484375	0.8154296875	-27.5625	-15.1875	29.4375
18	12	18	11	33	20	-0.974438185699	0.121636934993	0.18511029796	0.337890625	-0.2939453125	0.951171875	-28.75	-3.375	26.875
18	12	18	11	33	20	-0.973533730422	0.125605442744	0.18627201713	0.36376953125	-0.2490234375	0.94921875	-20.125	-10.0625	28.875
18	12	18	11	33	20	-0.973828826171	0.125054854902	0.183462612902	0.22265625	-0.263671875	0.984375	9.6875	0.9375	35.875
18	12	18	11	33	20	-0.973830521793	0.125246018848	0.181521276829	0.29833984375	-0.25	0.9462890625	4.25	2.625	36.8125
18	12	18	11	33	20	-0.973969870319	0.12395869198	0.180109355014	0.31494140625	-0.2548828125	0.9501953125	11.625	1.9375	26.75
18	12	18	11	33	20	-0.974277885931	0.122616317286	0.177546474358	0.3291015625	-0.21240234375	0.92724609375	10.25	9.6875	30.1875
18	12	18	11	33	20	-0.973837726208	0.12383534385	0.177666183316	0.40185546875	-0.22412109375	0.8740234375	-5.5625	2.0625	25.3125
18	12	18	11	33	20	-0.973872800935	0.124694292574	0.176146709921	0.39990234375	-0.248046875	0.88134765625	-3.1875	12.875	13.9375
18	12	18	11	33	20	-0.97356517838	0.129088480489	0.173949016261	0.2119140625	-0.24462890625	0.8330078125	-22.5625	7.4375	14.5
18	12	18	11	33	20	-0.97333037068	0.132873908382	0.17230273007	0.220703125	-0.35986328125	0.8876953125	-15.125	4.375	2.9375
18	12	18	11	33	20	-0.973119311395	0.1360438375	0.170466773503	0.3173828125	-0.20166015625	0.8173828125	-19.75	12.5625	13.8125
18	12	18	11	33	20	-0.973630810366	0.136474328735	0.165038723121	0.2607421875	-0.10302734375	0.77685546875	-4.625	27.8125	33.5
18	12	18	11	33	20	-0.973640612597	0.141907875143	0.158387499354	0.11376953125	-0.30126953125	0.8642578125	-22.875	26.3125	28.0625
18	12	18	11	33	20	-0.973434369608	0.145444485722	0.153867204576	0.193359375	-0.341796875	0.89599609375	-11.25	17.9375	31.0
18	12	18	11	33	20	-0.973550666209	0.149288754909	0.143978811459	0.255859375	-0.28759765625	0.88232421875	-10.0625	50.6875	60.5625
18	12	18	11	33	20	-0.973032427229	0.155631480238	0.133415849333	0.07958984375	-0.28955078125	0.8330078125	-22.4375	45.375	67.375
18	12	18	11	33	20	-0.972293362322	0.162109929085	0.123962826044	0.001953125	-0.48974609375	0.91064453125	-15.25	35.6875	52.5625
18	12	18	11	33	20	-0.971574623371	0.167839073702	0.112909922309	0.10009765625	-0.46630859375	0.8984375	-11.1875	52.0	61.375
18	12	18	11	33	20	-0.970388161716	0.173460164513	0.100401819361	-0.01904296875	-0.40185546875	0.82275390625	-10.8125	51.6875	77.875
18	12	18	11	33	20	-0.969014433952	0.178215163264	0.0900841030745	-0.056640625	-0.44921875	0.8798828125	-7.9375	38.375	67.25
18	12	18	11	33	20	-0.967508374433	0.181819798602	0.0832501528341	0.08740234375	-0.46533203125	0.96728515625	-6.625	29.125	60.75
18	12	18	11	33	20	-0.965980696937	0.1840166678	0.0769635217564	0.14208984375	-0.47802734375	0.9443359375	2.0625	29.375	64.4375
18	12	18	11	33	20	-0.96473629326	0.185660011647	0.0704311812755	0.0380859375	-0.48828125	1.03125	3.125	25.8125	52.5625
18	12	18	11	33	20	-0.963578965661	0.187735552215	0.0686003773374	0.095703125	-0.59423828125	1.11865234375	-0.75	7.5	31.0
18	12	18	11	33	20	-0.962618612331	0.187677671374	0.0686015293089	0.19921875	-0.564453125	1.02734375	9.9375	2.4375	32.5
18	12	18	11	33	20	-0.961891837175	0.186397060326	0.0629868258861	0.09326171875	-0.41650390625	0.88037109375	18.3125	24.5625	46.0
18	12	18	11	33	20	-0.960594280229	0.187553607163	0.051145435341	-0.36474609375	-0.3271484375	0.7392578125	9.75	32.0625	52.5625
18	12	18	11	33	20	-0.958481409682	0.191708488781	0.035277779852	-0.470703125	-0.37841796875	0.78173828125	-0.625	51.25	60.3125
18	12	18	11	33	20	-0.954885937973	0.199216855324	0.0280759048557	0.01171875	-0.53271484375	0.9306640625	-25.9375	39.75	71.875
18	12	18	11	33	20	-0.951558429072	0.207388592264	0.0269153529101	0.19091796875	-0.60791015625	1.23486328125	-42.375	24.125	51.875
18	12	18	11	33	20	-0.948020413005	0.217703522384	0.0274036673816	0.25732421875	-0.66650390625	1.27734375	-56.3125	25.0625	43.3125
18	12	18	11	33	20	-0.944370731848	0.228570308975	0.0230706480087	0.15673828125	-0.7099609375	1.3251953125	-53.75	47.5	46.3125
18	12	18	11	33	20	-0.940899004479	0.237910243867	0.0127560905511	0.02734375	-0.68408203125	1.34130859375	-40.6875	71.5	53.625
18	12	18	11	33	21	-0.938386138943	0.24150854971	0.00219719681313	-0.21240234375	-0.5869140625	1.33203125	-14.1875	50.3125	50.9375
18	12	18	11	33	21	-0.937538338754	0.239496155281	-0.00122067357432	-0.4140625	-0.47705078125	1.22900390625	5.375	-7.0	24.6875
18	12	18	11	33	21	-0.938165651541	0.232115280256	0.00195311306026	-0.2880859375	-0.4404296875	0.98046875	33.5	-44.125	13.5
18	12	18	11	33	21	-0.940006752648	0.2219714686	0.0109856652043	-0.17724609375	-0.4052734375	0.87841796875	43.1875	-71.625	-6.875
18	12	18	11	33	21	-0.942339035995	0.21208731542	0.0235584758999	-0.07177734375	-0.3759765625	0.88818359375	35.875	-81.25	-26.0
18	12	18	11	33	21	-0.94469814703	0.203002069843	0.0398557882162	-0.07373046875	-0.259765625	0.87451171875	19.1875	-99.9375	-44.3125
18	12	18	11	33	21	-0.945842292689	0.20000807854	0.0649400657818	0.0478515625	-0.25	0.82470703125	-22.5	-131.375	-70.125
18	12	18	11	33	21	-0.945630158164	0.200917418399	0.0964916277306	0.2705078125	-0.404296875	0.841796875	-53.8125	-154.875	-90.75
18	12	18	11	33	21	-0.945638284411	0.197379257247	0.127924218673	0.47998046875	-0.56640625	0.82080078125	-27.6875	-156.0625	-102.5625
18	12	18	11	33	21	-0.947219723429	0.183828982408	0.155754171017	0.5419921875	-0.48828125	0.76123046875	31.75	-146.8125	-112.5
18	12	18	11	33	21	-0.948904980803	0.165953086949	0.182005187673	0.5302734375	-0.30712890625	0.68017578125	54.375	-143.0625	-120.9375
18	12	18	11	33	21	-0.949022729857	0.150083406825	0.210324286262	0.6015625	-0.14892578125	0.6064453125	35.5625	-150.4375	-131.75
18	12	18	11	33	21	-0.947569268775	0.140441667469	0.236999128545	0.70166015625	0.00830078125	0.62548828125	-2.5	-135.125	-130.0625
18	12	18	11	33	21	-0.945657295787	0.137142890386	0.258600100829	0.7822265625	-0.203125	0.6875	-32.5625	-100.5625	-127.5625
18	12	18	11	33	21	-0.945370192994	0.13281203047	0.271239275464	0.7734375	-0.4287109375	0.63720703125	-12.1875	-52.0	-117.6875
18	12	18	11	33	21	-0.946311054186	0.124140385954	0.277637470847	0.65087890625	-0.50146484375	0.630859375	38.625	-14.4375	-94.5625
18	12	18	11	33	21	-0.949059709444	0.106502198905	0.278126372729	0.51025390625	-0.3271484375	0.662109375	93.4375	1.125	-68.4375
18	12	18	11	33	21	-0.951818499945	0.0842873580265	0.277031367185	0.4453125	-0.16357421875	0.62109375	120.1875	-0.625	-46.75
18	12	18	11	33	21	-0.953458553461	0.0661598432948	0.27660185407	0.44921875	-0.048828125	0.60693359375	93.625	-0.75	-29.8125
18	12	18	11	33	21	-0.954475444887	0.055969688129	0.275759052308	0.50244140625	-0.00341796875	0.62939453125	47.8125	7.75	-17.1875
18	12	18	11	33	21	-0.955488504684	0.0529775804577	0.273310605173	0.54345703125	-0.10107421875	0.6416015625	14.6875	23.0625	-9.625
18	12	18	11	33	21	-0.956987163763	0.0556614983005	0.267870960571	0.5263671875	-0.24755859375	0.69873046875	-5.625	40.625	-3.875
18	12	18	11	33	21	-0.959389078336	0.0592027104769	0.258599880712	0.5185546875	-0.30859375	0.73974609375	-4.75	62.625	-1.1875
18	12	18	11	33	21	-0.962907837416	0.0638398680317	0.244007449704	0.45361328125	-0.0888671875	0.7421875	-19.5625	92.0625	12.125
18	12	18	11	33	21	-0.964331044243	0.0755596096691	0.237359710827	0.037109375	0.0673828125	0.78857421875	-84.1875	25.3125	-13.6875
18	12	18	11	33	21	-0.961334839529	0.102535872669	0.241325500317	-0.40869140625	-0.39892578125	1.0146484375	-157.8125	-24.0	2.25
18	12	18	11	33	21	-0.956354280551	0.116698537521	0.251341306229	0.361328125	-1.16845703125	1.3427734375	-28.625	-82.375	32.5
18	12	18	11	33	21	-0.953058442182	0.102355363915	0.266294843627	1.154296875	-0.57275390625	0.91259765625	98.6875	-62.9375	20.3125
18	12	18	11	33	21	-0.954510185129	0.0736679962562	0.265802919383	0.95849609375	-0.2197265625	0.7822265625	176.25	-11.5625	22.0625
18	12	18	11	33	21	-0.956566249507	0.0501689183369	0.259267110821	0.5361328125	0.00537109375	0.72705078125	147.125	21.375	23.0
18	12	18	11	33	21	-0.958318066638	0.0363161104165	0.253480347159	0.37060546875	0.29638671875	0.72021484375	60.5625	21.75	11.0625
18	12	18	11	33	21	-0.958143282449	0.0409525538266	0.252978145471	0.392578125	0.1435546875	0.77783203125	-40.5	3.6875	20.5
18	12	18	11	33	21	-0.956700914572	0.0536484914774	0.254998176783	0.37890625	-0.1611328125	0.84326171875	-68.5625	-9.375	29.6875
18	12	18	11	33	21	-0.954436303763	0.0605448787142	0.259940159722	0.53515625	-0.298828125	0.8427734375	-29.625	-22.5625	27.8125
18	12	18	11	33	21	-0.952920650355	0.0550524836111	0.263910132078	0.66552734375	-0.203125	0.81201171875	36.125	-17.875	21.9375
18	12	18	11	33	21	-0.95235449506	0.0441266534176	0.2651261168	0.51806640625	-0.060546875	0.81591796875	60.875	-15.25	16.6875
18	12	18	11	33	21	-0.951405732003	0.036437594432	0.267025922345	0.431640625	-0.001953125	0.861328125	38.6875	-23.3125	19.375
18	12	18	11	33	21	-0.94961486934	0.0324696388257	0.271597542809	0.51123046875	-0.13037109375	0.880859375	22.1875	-33.0	17.0
18	12	18	11	33	21	-0.947991518839	0.0300290900894	0.274839416001	0.4765625	-0.21044921875	0.873046875	21.0625	-25.8125	19.6875
18	12	18	11	33	21	-0.946322418966	0.025267815637	0.277884938636	0.623046875	-0.19970703125	0.892578125	34.5	-20.1875	21.875
18	12	18	11	33	21	-0.944900878246	0.0177603769261	0.279649646307	0.65283203125	-0.13525390625	0.79541015625	49.5625	-10.25	23.1875
18	12	18	11	33	21	-0.944379132609	0.0114133586116	0.277704714882	0.5908203125	-0.12841796875	0.82080078125	47.3125	8.0625	26.125
18	12	18	11	33	21	-0.94407852042	0.00250240621523	0.273128483248	0.79345703125	0.1474609375	0.7451171875	52.5	35.0	46.3125
18	12	18	11	33	21	-0.943669224573	0.00439455301528	0.264527677336	0.59375	0.28076171875	0.20556640625	2.0	75.75	94.0625
18	12	18	11	33	21	-0.945110056684	0.0227046135671	0.256098275612	-0.38623046875	-0.67138671875	0.92041015625	-53.75	14.5	16.3125
18	12	18	11	33	21	-0.944393728936	0.0159301210659	0.263365794633	0.58642578125	-0.00537109375	0.935546875	11.9375	-44.5	-34.125
18	12	18	11	33	21	-0.942250145088	0.0161741345024	0.264096150913	0.99462890625	0.0546875	0.69140625	0.875	28.625	63.5625
18	12	18	11	33	21	-0.941325580973	0.0214839268951	0.252619242667	0.43701171875	-0.1298828125	0.30517578125	12.1875	69.375	104.375
18	12	18	11	33	21	-0.946709265667	0.0188597229767	0.240965004245	0.0458984375	0.025390625	1.349609375	0.0625	28.5625	-61.0
18	12	18	11	33	21	-0.945463232411	0.0143427706163	0.244254331942	0.3466796875	-0.01025390625	0.9755859375	14.5	-35.1875	9.0625
18	12	18	11	33	21	-0.942077183992	0.0236205941176	0.247070193767	0.5654296875	-0.2314453125	0.8447265625	-34.1875	-1.5625	73.0
18	12	18	11	33	22	-0.941037613164	0.0238036495741	0.24536069561	0.30859375	-0.71875	0.87646484375	44.3125	-1.125	15.4375
18	12	18	11	33	22	-0.942739051233	0.014953455105	0.241391489552	0.201171875	-0.42578125	1.380859375	63.375	-19.1875	-37.0625
18	12	18	11	33	22	-0.940990541475	0.009154791881	0.240893090362	0.4013671875	-0.21533203125	1.07861328125	46.25	-17.375	33.6875
18	12	18	11	33	22	-0.939852928893	0.00897190600346	0.240532527617	0.28173828125	-0.32470703125	1.4130859375	14.9375	-27.3125	19.6875
18	12	18	11	33	22	-0.938868059005	0.00299060878185	0.244436493292	0.59912109375	-0.3330078125	1.21142578125	37.1875	-32.5	-12.5625
18	12	18	11	33	22	-0.938732829782	-0.000793415693854	0.243700681966	0.59765625	0.04296875	1.1083984375	11.125	-0.1875	8.375
18	12	18	11	33	22	-0.938184843751	0.000427224427937	0.241992122396	0.3896484375	-0.04052734375	1.0146484375	-4.875	1.875	24.9375
18	12	18	11	33	22	-0.937101140299	0.00402817997002	0.243826954246	0.41552734375	-0.11474609375	1.00390625	-21.0	-12.625	18.75
18	12	18	11	33	22	-0.935206223189	0.0	0.249441221313	0.7822265625	0.0732421875	0.94482421875	2.6875	-21.625	14.5625
18	12	18	11	33	22	-0.933348702185	-0.00360083524677	0.250593720733	0.58154296875	0.1494140625	0.75830078125	9.8125	-3.1875	37.875
18	12	18	11	33	22	-0.932048007139	-0.00451650530602	0.248163656409	0.34228515625	0.1708984375	0.80078125	1.25	4.6875	46.3125
18	12	18	11	33	22	-0.930246838226	-0.00689659445739	0.251328990934	0.65771484375	0.119140625	0.7353515625	-1.125	-7.125	26.625
18	12	18	11	33	22	-0.92896921879	-0.00524875847946	0.252367631542	0.46875	0.10595703125	0.81640625	-19.5	-3.1875	30.5
18	12	18	11	33	22	-0.926530943544	-0.0026243877592	0.255664193565	0.47509765625	-0.00341796875	0.74267578125	-18.25	-12.75	40.0625
18	12	18	11	33	22	-0.924959031817	-0.00213616404577	0.256705885043	0.365234375	-0.06103515625	0.7939453125	-1.9375	-11.0625	27.4375
18	12	18	11	33	22	-0.922518490141	-0.00421129843333	0.260062936586	0.5400390625	-0.15869140625	0.791015625	14.5625	-18.8125	26.8125
18	12	18	11	33	22	-0.921015882767	-0.00903315776338	0.260130529646	0.5888671875	-0.05029296875	0.67138671875	29.0	2.5625	23.6875
18	12	18	11	33	22	-0.919063044898	-0.0123900782384	0.257506108808	0.44921875	-0.01220703125	0.52490234375	30.125	15.375	45.75
18	12	18	11	33	22	-0.917684205358	-0.0120233964123	0.253773006509	0.1923828125	-0.09033203125	0.443359375	16.875	15.625	40.3125
18	12	18	11	33	22	-0.915568862747	-0.00750716419691	0.253107397761	-0.0478515625	-0.0576171875	0.51806640625	-13.875	-10.875	44.375
18	12	18	11	33	22	-0.911156195228	-0.0014647832196	0.262440326846	0.28271484375	-0.04931640625	0.6728515625	-45.375	-49.6875	45.9375
18	12	18	11	33	22	-0.904935552064	0.00500470191335	0.277883022091	0.8662109375	-0.0810546875	0.89208984375	-62.375	-58.125	53.6875
18	12	18	11	33	22	-0.899255315602	0.0127558274033	0.290515494928	0.79736328125	-0.09716796875	0.73095703125	-62.25	-39.8125	54.0
18	12	18	11	33	22	-0.896663715922	0.0186766794005	0.296141334807	0.2587890625	-0.39453125	1.03271484375	-31.75	-45.1875	13.4375
18	12	18	11	33	22	-0.895738123514	0.00823961887942	0.299067648216	0.4384765625	-0.25927734375	1.06591796875	47.4375	-51.125	-18.0
18	12	18	11	33	22	-0.891947601167	-0.00512683717654	0.29839413043	0.9248046875	0.0888671875	0.994140625	69.25	-12.9375	55.75
18	12	18	11	33	22	-0.887774796777	-0.00872760868549	0.297410049821	0.61328125	-0.0546875	0.96533203125	29.875	-9.8125	67.125
18	12	18	11	33	22	-0.886450149694	-0.0110470584615	0.299247114015	0.74609375	-0.7529296875	1.46875	35.5625	-28.75	-11.1875
18	12	18	11	33	22	-0.884811885148	-0.0219722893463	0.29442867724	1.306640625	-0.55224609375	1.30419921875	94.625	27.4375	17.875
18	12	18	11	33	22	-0.882376368898	-0.0185545006671	0.275204748382	0.4404296875	0.23095703125	0.93408203125	51.375	101.3125	117.1875
18	12	18	11	33	22	-0.881338606039	-0.000793448883554	0.2683077917	0.14404296875	-0.1845703125	1.240234375	-69.0625	39.8125	64.8125
18	12	18	11	33	22	-0.87931927631	0.0152585423112	0.279719597649	1.05224609375	-0.70703125	1.32470703125	-92.8125	-7.0625	3.625
18	12	18	11	33	22	-0.876567976173	0.0328972384875	0.277764995096	0.8466796875	-0.35888671875	0.96435546875	-71.9375	63.0	72.0
18	12	18	11	33	22	-0.874846006193	0.0462019273537	0.270436908989	0.34716796875	-0.42578125	0.861328125	-31.0625	56.9375	58.625
18	12	18	11	33	22	-0.876766970528	0.0456541381103	0.26458648223	0.33984375	-0.501953125	1.0791015625	24.25	18.8125	-13.125
18	12	18	11	33	22	-0.876914573163	0.039854204919	0.25908284821	0.50634765625	-0.10693359375	0.88623046875	36.4375	18.0625	18.75
18	12	18	11	33	22	-0.875513198848	0.0385115948744	0.252247894795	0.46484375	0.09033203125	0.609375	16.0	38.125	51.8125
18	12	18	11	33	22	-0.874711768975	0.0455909636774	0.247424051872	0.14892578125	-0.115234375	0.54345703125	-22.375	32.75	32.4375
18	12	18	11	33	22	-0.873752949809	0.0543806844286	0.245842196272	0.17626953125	-0.1884765625	0.61572265625	-39.375	21.125	23.5625
18	12	18	11	33	22	-0.871607572644	0.0608495728539	0.250661179249	0.578125	-0.07666015625	0.55322265625	-51.3125	8.3125	26.8125
18	12	18	11	33	22	-0.869283642438	0.0682951903313	0.253040088573	0.2158203125	-0.1650390625	0.65185546875	-45.1875	-2.625	27.4375
18	12	18	11	33	22	-0.866249359536	0.0689068926172	0.255730628934	0.3486328125	-0.2001953125	0.60791015625	-6.875	-13.625	32.1875
18	12	18	11	33	22	-0.863544609604	0.0642058752776	0.259386853546	0.60791015625	-0.05712890625	0.41015625	13.1875	-10.125	30.75
18	12	18	11	33	22	-0.861749629549	0.0611568190954	0.256834226301	0.05029296875	-0.234375	0.53369140625	30.625	-10.875	23.25
18	12	18	11	33	22	-0.859720596949	0.0537096496745	0.254937734876	-0.01025390625	-0.0263671875	0.6689453125	36.75	-33.125	23.75
18	12	18	11	33	22	-0.855935578561	0.0449207491315	0.261468056086	0.5615234375	-0.20263671875	0.767578125	27.5	-49.3125	23.25
18	12	18	11	33	22	-0.85331350233	0.0388174942766	0.269036972911	0.49267578125	-0.376953125	0.9306640625	14.4375	-55.0625	0.0625
18	12	18	11	33	22	-0.850988985946	0.0306387772319	0.269340485905	0.2236328125	-0.51513671875	1.1455078125	53.4375	-48.5	6.0625
18	12	18	11	33	22	-0.848332337655	0.0214844940538	0.272828660286	0.69873046875	-0.36181640625	1.13916015625	39.1875	-38.9375	11.625
18	12	18	11	33	22	-0.846343544743	0.0127558809296	0.275807779527	0.88037109375	-0.37646484375	1.1982421875	37.375	-26.5625	7.125
18	12	18	11	33	23	-0.844747489417	0.00909380651131	0.272936259856	0.591796875	-0.20703125	1.18115234375	22.6875	-0.5625	26.25
18	12	18	11	33	23	-0.84191055402	0.0076293184901	0.270932358221	0.75634765625	-0.2451171875	1.14404296875	15.375	10.375	42.3125
18	12	18	11	33	23	-0.839321572701	0.00848354411034	0.270191725011	0.7197265625	-0.23046875	0.927734375	1.625	15.8125	39.3125
18	12	18	11	33	23	-0.836510359314	0.0131219704693	0.265918257371	0.2392578125	-0.29736328125	0.888671875	0.9375	15.75	45.5625
18	12	18	11	33	23	-0.834395684653	0.0172115853319	0.266901640625	0.32861328125	-0.3857421875	1.0166015625	-15.0	-7.6875	21.1875
18	12	18	11	33	23	-0.831524914167	0.0185542846379	0.270990209843	0.71630859375	-0.33642578125	0.931640625	-13.3125	-5.8125	26.5625
18	12	18	11	33	23	-0.828770463681	0.0224602349683	0.270255218586	0.48681640625	-0.126953125	0.94482421875	-21.75	10.3125	44.0
18	12	18	11	33	23	-0.82553850461	0.023314779592	0.271293704938	0.51611328125	-0.29052734375	0.9013671875	-2.0625	-4.375	35.4375
18	12	18	11	33	23	-0.823022174393	0.0226430275639	0.270068455446	0.37890625	-0.205078125	0.841796875	8.0	-3.0	31.5625
18	12	18	11	33	23	-0.819511969384	0.0203855662303	0.268735473389	0.20849609375	-0.18359375	0.76611328125	18.8125	-16.5	36.4375
18	12	18	11	33	23	-0.817435264851	0.0173338023757	0.269284281977	0.42333984375	-0.12841796875	0.87744140625	6.375	-15.625	21.5
18	12	18	11	33	23	-0.81480161259	0.0154415586506	0.27251604496	0.541015625	-0.0771484375	0.81298828125	-9.8125	-17.0	25.4375
18	12	18	11	33	23	-0.812287426302	0.0155023672914	0.274282041761	0.3125	-0.28955078125	0.95068359375	-4.0625	-22.5	19.5
18	12	18	11	33	23	-0.809622224072	0.0128172383758	0.275265452738	0.38671875	-0.33447265625	0.94921875	14.4375	-22.9375	19.125
18	12	18	11	33	23	-0.806520120045	0.0070800918666	0.275330124226	0.5771484375	-0.25537109375	0.9091796875	30.1875	-16.0625	27.1875
18	12	18	11	33	23	-0.804545023757	0.00244134432941	0.272820228811	0.46484375	-0.1181640625	0.86083984375	24.8125	-4.1875	24.875
18	12	18	11	33	23	-0.802521107781	0.001953051597	0.270253514735	0.38623046875	-0.11328125	0.900390625	5.25	2.875	30.0625
18	12	18	11	33	23	-0.80008484644	0.00366199487271	0.272147252291	0.57666015625	-0.20751953125	0.8671875	-15.3125	0.875	28.25
18	12	18	11	33	23	-0.79788103799	0.00897181309451	0.276783485603	0.4677734375	-0.369140625	0.85986328125	-34.1875	-6.875	17.875
18	12	18	11	33	23	-0.795417269644	0.00958186997116	0.276775670823	0.3486328125	-0.12060546875	0.71044921875	-5.5625	-2.75	29.0
18	12	18	11	33	23	-0.793740351308	0.0118404942833	0.277885414802	0.44140625	-0.126953125	0.77880859375	-20.875	1.6875	23.5
18	12	18	11	33	23	-0.791671532961	0.0103757736954	0.279901753925	0.4638671875	-0.0380859375	0.638671875	-8.8125	-8.9375	22.0625
18	12	18	11	33	23	-0.789154105462	0.0103145432191	0.282276700523	0.40478515625	-0.2734375	0.82421875	-6.125	-16.5625	19.5
18	12	18	11	33	23	-0.787139134633	0.0054319130792	0.284839756636	0.47021484375	-0.1806640625	0.755859375	10.4375	-26.0625	10.4375
18	12	18	11	33	23	-0.785022650178	-0.00109861667728	0.284236548117	0.3525390625	-0.32275390625	0.85888671875	36.75	-27.625	9.0625
18	12	18	11	33	23	-0.783491332913	-0.00811749998266	0.285394209917	0.552734375	-0.318359375	0.95654296875	28.75	-28.0	1.5625
18	12	18	11	33	23	-0.780737623867	-0.0167841499815	0.283438518233	0.65234375	-0.0537109375	0.9482421875	36.75	-15.4375	27.3125
18	12	18	11	33	23	-0.778288197069	-0.0141595719667	0.28801301772	0.4658203125	-0.46240234375	1.072265625	-19.75	-23.5625	12.1875
18	12	18	11	33	23	-0.776039660483	-0.0181269193208	0.288749007766	0.48046875	-0.50146484375	1.07666015625	26.8125	-26.9375	5.875
18	12	18	11	33	23	-0.773360822647	-0.018737413981	0.288995619543	0.52783203125	-0.3935546875	1.07080078125	8.75	-11.1875	21.4375
18	12	18	11	33	23	-0.771477208773	-0.0225217634523	0.292416717344	0.53955078125	-0.3818359375	0.8935546875	10.6875	-29.3125	1.625
18	12	18	11	33	23	-0.773055678956	-0.0236811624376	0.294854885918	0.3671875	-0.5263671875	1.1357421875	-1.6875	-29.6875	-32.5
18	12	18	11	33	23	-0.773063860429	-0.0319210799782	0.294858006453	0.5849609375	-0.45166015625	1.11962890625	39.6875	-31.3125	-19.875
18	12	18	11	33	23	-0.772305945648	-0.0352157839923	0.295458596719	0.55029296875	-0.24462890625	0.90283203125	10.1875	-14.375	1.375
18	12	18	11	33	23	-0.773363401045	-0.0389397719096	0.297968599471	0.359375	-0.33447265625	0.9580078125	3.6875	-35.1875	-27.625
18	12	18	11	33	23	-0.775664462525	-0.0469341389316	0.292407619794	0.498046875	-0.255859375	0.99609375	48.4375	-3.6875	-26.4375
18	12	18	11	33	23	-0.775028441991	-0.0566974897716	0.284830123535	0.71142578125	0.154296875	0.6259765625	54.8125	21.5625	18.25
18	12	18	11	33	23	-0.774619724936	-0.0596894178213	0.279466098368	0.390625	-0.01220703125	0.74658203125	24.5625	11.0	13.4375
18	12	18	11	33	23	-0.774939923392	-0.0634746412797	0.276847089274	0.470703125	-0.28466796875	0.9541015625	28.1875	-5.5625	-9.25
18	12	18	11	33	23	-0.772614022367	-0.0759247842503	0.27257241677	0.771484375	0.34228515625	0.62890625	46.9375	-1.0	25.875
18	12	18	11	33	23	-0.769817788209	-0.0715314713217	0.273736048531	0.31640625	-0.17822265625	0.6982421875	-15.375	0.3125	31.5
18	12	18	11	33	23	-0.767011394732	-0.0728743220586	0.273065089523	0.19873046875	-0.3447265625	0.87841796875	23.3125	-23.3125	14.4375
18	12	18	11	33	23	-0.76323520778	-0.0819692030427	0.273434124819	0.49365234375	-0.15869140625	0.75634765625	44.875	-34.3125	15.1875
18	12	18	11	33	23	-0.759369547419	-0.0852017270694	0.274281204477	0.392578125	-0.099609375	0.83544921875	14.375	-25.8125	28.0
18	12	18	11	33	23	-0.755395075602	-0.0907548256782	0.27940524005	0.5322265625	-0.25537109375	0.7890625	16.1875	-44.6875	13.0
18	12	18	11	33	23	-0.753380377212	-0.0978955059177	0.281785256123	0.44189453125	-0.27490234375	0.9111328125	28.75	-46.3125	-6.6875
18	12	18	11	33	23	-0.751286332971	-0.106925560956	0.280435475224	0.40380859375	-0.2314453125	0.93798828125	49.6875	-39.6875	-5.125
18	12	18	11	33	23	-0.750149122041	-0.11693806182	0.282885133892	0.5	-0.146484375	0.73193359375	32.9375	-47.25	-18.125
18	12	18	11	33	23	-0.75206436278	-0.126585090765	0.283809388648	0.4033203125	-0.11767578125	0.86572265625	27.3125	-48.6875	-43.375
18	12	18	11	33	23	-0.753752537597	-0.140069803545	0.284594986463	0.42919921875	-0.208984375	0.82373046875	49.6875	-59.875	-56.5625
18	12	18	11	33	24	-0.755834307219	-0.152704896371	0.284963693508	0.53125	-0.021484375	0.66455078125	38.5	-43.5625	-51.5625
18	12	18	11	33	24	-0.759690180697	-0.164730762248	0.282404311568	0.4130859375	-0.13232421875	0.6767578125	49.0625	-34.5625	-69.4375
18	12	18	11	33	24	-0.765177441455	-0.176570019792	0.27764155549	0.4892578125	-0.0810546875	0.759765625	50.0625	-22.75	-81.8125
18	12	18	11	33	24	-0.769636481905	-0.192439637387	0.272088773698	0.634765625	0.251953125	0.66796875	54.8125	-22.5625	-72.1875
18	12	18	11	33	24	-0.776502151323	-0.202380030951	0.266768128856	0.36474609375	0.17138671875	0.6103515625	27.75	-16.0	-83.9375
18	12	18	11	33	24	-0.781720117023	-0.21258050965	0.259576487953	0.228515625	-0.10986328125	0.77490234375	57.9375	-22.1875	-82.0
18	12	18	11	33	24	-0.785441321514	-0.226556701022	0.252495978483	0.49169921875	0.02880859375	0.73681640625	70.875	-20.75	-78.5
18	12	18	11	33	24	-0.787899007537	-0.240721487778	0.241820115258	0.50048828125	0.34033203125	0.59716796875	71.875	3.5625	-53.875
18	12	18	11	33	24	-0.791963058325	-0.248464982309	0.229178582307	0.240234375	0.36669921875	0.6171875	47.9375	20.4375	-45.8125
18	12	18	11	33	24	-0.794206643773	-0.254014297348	0.220874037026	0.31982421875	0.37890625	0.6748046875	30.5	9.375	-25.4375
18	12	18	11	33	24	-0.795857607313	-0.256456569473	0.217518137459	0.60595703125	0.25537109375	0.84814453125	12.875	3.6875	-20.9375
18	12	18	11	33	24	-0.797984831788	-0.261458280641	0.212450110857	0.63818359375	0.22412109375	0.90380859375	30.3125	2.0625	-36.75
18	12	18	11	33	24	-0.798793150448	-0.26774950726	0.205008113719	0.6220703125	0.3251953125	0.8603515625	42.6875	12.5625	-24.0625
18	12	18	11	33	24	-0.796581033715	-0.271101206847	0.199633509139	0.68408203125	0.34765625	0.783203125	32.4375	23.125	15.1875
18	12	18	11	33	24	-0.796392735126	-0.273723765579	0.191576120435	0.56982421875	0.14501953125	0.755859375	42.75	32.375	-9.75
18	12	18	11	33	24	-0.798625708309	-0.27684877439	0.177363875303	0.3505859375	0.2392578125	0.86962890625	54.3125	43.0	-29.5625
