19	03	23	12	23	50	0.698380930825	0.570509225696	0.274359577352	-0.71240234375	0.75732421875	0.2197265625	-1.0	-11.0	4.375
19	03	23	12	23	50	0.700720150549	0.56924356481	0.27076607908	-0.7509765625	0.7080078125	0.2568359375	-4.625	-18.0625	8.0625
19	03	23	12	23	50	0.703075355662	0.568795836393	0.265873448152	-0.7177734375	0.74169921875	0.2763671875	0.5	-19.5625	12.8125
19	03	23	12	23	50	0.705154246629	0.568920863224	0.260503620238	-0.71923828125	0.73681640625	0.2978515625	5.4375	-18.5625	15.75
19	03	23	12	23	50	0.7071376083	0.56894515727	0.254838110889	-0.73876953125	0.71826171875	0.28857421875	6.25	-22.75	17.625
19	03	23	12	23	50	0.708899734546	0.569671191882	0.24873139472	-0.7158203125	0.7197265625	0.28271484375	9.625	-21.4375	21.0
19	03	23	12	23	50	0.710050938917	0.570885105449	0.242258417997	-0.69970703125	0.67578125	0.2705078125	15.1875	-24.1875	21.625
19	03	23	12	23	50	0.710485518733	0.573332515246	0.235180472825	-0.671875	0.67041015625	0.25634765625	23.0	-22.4375	24.5
19	03	23	12	23	50	0.709957414639	0.577145573661	0.228148281974	-0.6708984375	0.7001953125	0.220703125	28.875	-18.75	26.1875
19	03	23	12	23	50	0.709578991266	0.581152823729	0.221510723381	-0.6640625	0.734375	0.1884765625	25.375	-14.5	28.8125
19	03	23	12	23	50	0.710168585154	0.584126631708	0.215644659334	-0.6796875	0.779296875	0.185546875	14.4375	-12.1875	30.125
19	03	23	12	23	50	0.711585485527	0.586395759089	0.209911004008	-0.6376953125	0.7880859375	0.19921875	8.4375	-9.9375	32.0625
19	03	23	12	23	50	0.713207163121	0.58832724393	0.203921705775	-0.63671875	0.78125	0.22705078125	8.6875	-11.1875	33.5625
19	03	23	12	23	51	0.715120379221	0.590664041458	0.19654213222	-0.63671875	0.8076171875	0.2509765625	11.875	-13.0	42.1875
19	03	23	12	23	51	0.717751445371	0.593171914798	0.188120584627	-0.61669921875	0.89013671875	0.25537109375	9.4375	-12.5	50.3125
19	03	23	12	23	51	0.72141547414	0.594272024386	0.180308089568	-0.61572265625	0.8818359375	0.255859375	-1.0625	-12.1875	52.5625
19	03	23	12	23	51	0.725851637501	0.594439042855	0.171513883399	-0.63134765625	0.8818359375	0.28857421875	-4.125	-19.0625	57.9375
19	03	23	12	23	51	0.730979516323	0.594561745867	0.160710509893	-0.580078125	0.890625	0.29248046875	-4.1875	-24.5	68.75
19	03	23	12	23	51	0.735827781263	0.594399911567	0.149607125	-0.541015625	0.837890625	0.3056640625	-1.9375	-28.375	67.625
19	03	23	12	23	51	0.738689051909	0.596347053144	0.137764104293	-0.5478515625	0.822265625	0.29931640625	15.6875	-28.75	69.75
19	03	23	12	23	51	0.740625879927	0.599935039872	0.124515971242	-0.52783203125	0.8974609375	0.25146484375	23.5	-29.375	76.8125
19	03	23	12	23	51	0.742979148515	0.603136457975	0.110482439929	-0.46923828125	0.93115234375	0.23291015625	19.9375	-30.8125	81.375
19	03	23	12	23	51	0.745710193198	0.605687341172	0.0957087323348	-0.39501953125	0.93408203125	0.2265625	16.5625	-33.5	83.5
19	03	23	12	23	51	0.748515303255	0.6076384118	0.0809370702207	-0.4013671875	0.9111328125	0.21484375	13.5	-35.75	86.3125
19	03	23	12	23	51	0.751443306983	0.609040802296	0.0656772803439	-0.380859375	0.9111328125	0.22705078125	12.5625	-38.125	89.1875
19	03	23	12	23	51	0.753886726236	0.610751403345	0.0496243145033	-0.35107421875	0.9267578125	0.216796875	15.6875	-40.0625	93.625
19	03	23	12	23	51	0.756192232888	0.612021916149	0.0339978265977	-0.33984375	0.9306640625	0.22119140625	14.0625	-39.0625	92.75
19	03	23	12	23	51	0.757062322765	0.614659162319	0.0183115937136	-0.31591796875	0.92919921875	0.2001953125	24.6875	-37.125	93.4375
19	03	23	12	23	51	0.758506199838	0.616534249985	0.00225836721606	-0.271484375	0.998046875	0.197265625	18.3125	-34.3125	99.5
19	03	23	12	23	51	0.761356942393	0.616153465886	-0.0139771316184	-0.19140625	1.02685546875	0.23779296875	7.4375	-36.375	102.625
19	03	23	12	23	51	0.764026652063	0.615457436506	-0.0304585203627	-0.080078125	0.9287109375	0.25439453125	8.625	-34.875	98.4375
19	03	23	12	23	51	0.765205516164	0.616095116867	-0.046936511281	-0.0498046875	0.8935546875	0.23828125	19.75	-32.875	98.5
19	03	23	12	23	51	0.764777153173	0.618230469632	-0.0626836501444	-0.013671875	0.90185546875	0.1982421875	28.9375	-28.4375	94.375
19	03	23	12	23	51	0.76345428014	0.621054309276	-0.0770290455337	-0.001953125	0.9404296875	0.14794921875	30.75	-22.3125	89.375
19	03	23	12	23	51	0.762452665905	0.623048095866	-0.090088067153	0.0322265625	0.962890625	0.14404296875	24.5	-18.6875	83.6875
19	03	23	12	23	51	0.761867661437	0.624106460358	-0.102359563229	0.0927734375	0.96435546875	0.1474609375	18.6875	-17.125	77.125
19	03	23	12	23	51	0.761094829087	0.625222097549	-0.112861042504	0.13623046875	0.9892578125	0.12939453125	17.0	-10.875	67.375
19	03	23	12	23	51	0.760687733832	0.625798871458	-0.121033762031	0.1416015625	0.99853515625	0.13232421875	11.0625	-5.8125	55.5
19	03	23	12	23	51	0.760634064209	0.625865968095	-0.127809960717	0.1474609375	0.99267578125	0.1455078125	7.25	-2.4375	48.25
19	03	23	12	23	51	0.760865660864	0.625611505203	-0.133606203404	0.18896484375	0.994140625	0.14794921875	4.5	0.9375	42.8125
19	03	23	12	23	51	0.761480277193	0.625004652008	-0.137940479838	0.22705078125	0.99853515625	0.15625	0.875	6.25	34.3125
19	03	23	12	23	51	0.76246586544	0.624157536023	-0.14032252839	0.21337890625	0.98779296875	0.1923828125	-0.875	11.0625	25.8125
19	03	23	12	23	51	0.762847111743	0.624108794813	-0.141546043538	0.18408203125	0.99365234375	0.17236328125	2.0625	12.4375	18.75
19	03	23	12	23	51	0.762766180818	0.624702877545	-0.141969603632	0.1689453125	0.99609375	0.1455078125	3.6875	13.8125	14.6875
19	03	23	12	23	51	0.763270797214	0.624716242262	-0.141606417396	0.154296875	0.96484375	0.15087890625	-0.6875	17.0	13.0625
19	03	23	12	23	51	0.764526239271	0.623951075276	-0.140575163995	0.158203125	0.9677734375	0.15185546875	-6.875	20.5625	12.375
19	03	23	12	23	51	0.766205310854	0.622827928937	-0.138372296639	0.14794921875	0.94287109375	0.15625	-10.625	23.75	6.8125
19	03	23	12	23	51	0.767464241555	0.622260055882	-0.135011205847	0.134765625	0.92626953125	0.14501953125	-9.4375	23.375	-3.8125
19	03	23	12	23	51	0.768703816869	0.621664949564	-0.130558795004	0.1083984375	0.93359375	0.16162109375	-10.5625	20.3125	-15.9375
19	03	23	12	23	51	0.770161801559	0.620926930358	-0.124453947803	0.0478515625	0.9716796875	0.1689453125	-14.3125	21.625	-23.75
19	03	23	12	23	51	0.77206551111	0.619654444525	-0.117680631308	-0.0283203125	0.9326171875	0.1943359375	-16.5625	22.375	-23.125
19	03	23	12	23	51	0.773750834589	0.618414723993	-0.11175654951	-0.03857421875	0.8779296875	0.2138671875	-13.6875	18.8125	-20.25
19	03	23	12	23	51	0.773782094392	0.619233205617	-0.106023467536	-0.009765625	0.8759765625	0.20068359375	0.8125	20.6875	-21.4375
19	03	23	12	23	51	0.772666876281	0.621478326431	-0.0995512817137	-0.0205078125	0.93017578125	0.1494140625	6.6875	22.1875	-27.5
19	03	23	12	23	51	0.772786524627	0.622147780232	-0.0921044835054	-0.09326171875	0.966796875	0.1494140625	-6.5	23.0	-28.75
19	03	23	12	23	51	0.774849718574	0.620245989772	-0.0845956447376	-0.16015625	0.9296875	0.18212890625	-22.375	20.5	-25.0625
19	03	23	12	23	51	0.77690750687	0.618205470583	-0.0779471155148	-0.16064453125	0.869140625	0.21533203125	-19.875	18.625	-20.75
19	03	23	12	23	51	0.777774154304	0.617617253975	-0.0719607414207	-0.13134765625	0.8642578125	0.23291015625	-7.3125	19.1875	-18.375
19	03	23	12	23	51	0.77791323352	0.617935941636	-0.0659807144319	-0.125	0.900390625	0.21533203125	-2.125	21.0	-18.5625
19	03	23	12	23	51	0.7784913715	0.617592574631	-0.0596351003572	-0.1650390625	0.92578125	0.22509765625	-7.3125	19.75	-19.875
19	03	23	12	23	51	0.779832247915	0.616065034299	-0.053470025765	-0.1884765625	0.9130859375	0.255859375	-13.5625	15.625	-21.625
19	03	23	12	23	51	0.780964136511	0.614578186052	-0.048035855837	-0.18310546875	0.90234375	0.2802734375	-10.5	10.75	-22.6875
19	03	23	12	23	51	0.781469732155	0.613798299348	-0.0433369920979	-0.17529296875	0.8759765625	0.296875	-3.875	8.75	-20.8125
19	03	23	12	23	52	0.781412803395	0.613740488841	-0.0397359580542	-0.16357421875	0.904296875	0.30126953125	2.5625	6.8125	-15.75
19	03	23	12	23	52	0.780810155211	0.614356958427	-0.0372337550562	-0.138671875	0.9130859375	0.29052734375	7.125	4.125	-12.625
19	03	23	12	23	52	0.77998720988	0.615249321198	-0.0352791773465	-0.150390625	0.9609375	0.28173828125	8.125	2.6875	-9.625
19	03	23	12	23	52	0.779989017307	0.615128673325	-0.0343026706101	-0.130859375	0.9697265625	0.28515625	1.75	0.4375	-4.625
19	03	23	12	23	52	0.780676879262	0.614165031989	-0.0337540511518	-0.1044921875	0.953125	0.30517578125	-3.0625	-0.5625	-2.625
19	03	23	12	23	52	0.780853583104	0.613854802257	-0.0335096237883	-0.0830078125	0.9423828125	0.28076171875	0.9375	-0.8125	-3.125
19	03	23	12	23	52	0.780120513246	0.614647802863	-0.0332044096085	-0.09912109375	0.97265625	0.259765625	6.6875	-1.3125	-4.9375
19	03	23	12	23	52	0.779955070965	0.614661728332	-0.0324726950817	-0.1279296875	0.9755859375	0.25390625	0.4375	-2.0625	-5.6875
19	03	23	12	23	52	0.780384199719	0.613930722	-0.0319234209193	-0.13818359375	0.95263671875	0.26513671875	-3.75	-2.6875	-3.4375
19	03	23	12	23	52	0.78033843925	0.613833686628	-0.031860513515	-0.14404296875	0.9443359375	0.28662109375	2.8125	-3.3125	-0.1875
19	03	23	12	23	52	0.779382399485	0.614948521796	-0.0319834268408	-0.1318359375	0.96240234375	0.279296875	10.875	-2.3125	-0.125
19	03	23	12	23	52	0.778660300788	0.615811223223	-0.0318617760454	-0.1220703125	0.9775390625	0.30029296875	10.375	0.0625	-0.625
19	03	23	12	23	52	0.778403249988	0.616106202884	-0.0315560636904	-0.1123046875	1.0048828125	0.283203125	4.25	0.6875	-1.5
19	03	23	12	23	52	0.779547153337	0.614628862676	-0.0310061034994	-0.10400390625	1.00146484375	0.29541015625	-8.0625	0.6875	-2.0
19	03	23	12	23	52	0.781582880366	0.611960168571	-0.030457622593	-0.09033203125	0.9658203125	0.29443359375	-16.375	-0.4375	-2.9375
19	03	23	12	23	52	0.783456612508	0.609443306006	-0.0297244757161	-0.09228515625	0.9404296875	0.29443359375	-15.625	-0.6875	-4.4375
19	03	23	12	23	52	0.784463283811	0.608062809938	-0.0289931574705	-0.1103515625	0.93408203125	0.29052734375	-7.8125	0.375	-3.4375
19	03	23	12	23	52	0.784971186751	0.607359325042	-0.0282592068631	-0.12841796875	0.96337890625	0.28173828125	-4.0625	1.0	-2.25
19	03	23	12	23	52	0.785439934936	0.606658961247	-0.0274061649663	-0.15185546875	0.95849609375	0.27734375	-4.5	0.1875	-2.25
19	03	23	12	23	52	0.785814370646	0.605993869176	-0.0271012568407	-0.14013671875	0.94091796875	0.27880859375	-3.375	-2.6875	-2.6875
19	03	23	12	23	52	0.786012245781	0.605469908227	-0.027099661215	-0.13916015625	0.92919921875	0.291015625	-0.9375	-5.8125	-3.25
19	03	23	12	23	52	0.785781704931	0.60548038783	-0.0274663482382	-0.13916015625	0.90576171875	0.27880859375	2.875	-6.75	-2.375
19	03	23	12	23	52	0.785789506508	0.605181214621	-0.027771805613	-0.1474609375	0.89501953125	0.2763671875	0.5	-6.875	-2.0625
19	03	23	12	23	52	0.785866208529	0.604827049345	-0.0280775499746	-0.1669921875	0.8779296875	0.2734375	0.0	-6.75	0.5
19	03	23	12	23	52	0.785725274513	0.604751496922	-0.028443096242	-0.16943359375	0.87060546875	0.26708984375	1.875	-7.0625	0.875
19	03	23	12	23	52	0.785496526366	0.604763352493	-0.0287488432604	-0.1796875	0.88427734375	0.27099609375	2.4375	-7.0625	0.125
19	03	23	12	23	52	0.785879587759	0.603982797738	-0.0289325766678	-0.15673828125	0.89501953125	0.28271484375	-2.875	-6.5625	-1.125
19	03	23	12	23	52	0.78659047107	0.602867547355	-0.0290538577038	-0.14697265625	0.89990234375	0.3154296875	-3.6875	-4.625	0.0
19	03	23	12	23	52	0.787521381574	0.601597483862	-0.0290544239365	-0.13330078125	0.90087890625	0.32861328125	-4.125	-1.625	1.6875
19	03	23	12	23	52	0.788716612842	0.600113120064	-0.0289924463009	-0.1083984375	0.92919921875	0.3427734375	-6.0	1.0625	2.5
19	03	23	12	23	52	0.790280338129	0.598127522463	-0.0285055161741	-0.111328125	0.95361328125	0.330078125	-11.5625	2.3125	1.0
19	03	23	12	23	52	0.792299720095	0.595399720324	-0.0273438313383	-0.1455078125	0.923828125	0.3466796875	-15.9375	1.625	-1.9375
19	03	23	12	23	52	0.79402264621	0.592968714577	-0.0260625466932	-0.18603515625	0.88818359375	0.365234375	-12.1875	0.25	-1.375
19	03	23	12	23	52	0.795428768346	0.591017247076	-0.025024999618	-0.2216796875	0.880859375	0.380859375	-7.6875	0.4375	3.25
19	03	23	12	23	52	0.796910301858	0.589137425975	-0.0241099547514	-0.23828125	0.88818359375	0.3896484375	-7.5	2.0625	8.1875
19	03	23	12	23	52	0.798798015971	0.586753673686	-0.0230721823212	-0.20751953125	0.87744140625	0.3994140625	-10.5625	4.0625	7.625
19	03	23	12	23	52	0.80051295225	0.584560620945	-0.0213022508834	-0.2109375	0.90771484375	0.40087890625	-10.5	6.625	3.8125
19	03	23	12	23	52	0.802810525308	0.581614954433	-0.0191043635993	-0.27099609375	0.953125	0.40234375	-17.875	7.5625	7.1875
19	03	23	12	23	52	0.805990361484	0.5775297842	-0.017761695963	-0.1962890625	0.904296875	0.396484375	-25.3125	6.375	9.375
19	03	23	12	23	52	0.808161659723	0.574869071848	-0.0158092046728	-0.2109375	0.85107421875	0.39404296875	-15.125	10.375	8.875
19	03	23	12	23	52	0.809353160266	0.573932712366	-0.012878847422	-0.30908203125	0.85107421875	0.38330078125	-5.375	18.9375	18.4375
19	03	23	12	23	52	0.810270283333	0.573628634483	-0.0084231487081	-0.3681640625	0.884765625	0.33544921875	-6.6875	28.8125	22.1875
19	03	23	12	23	52	0.81274721528	0.571169152943	-0.00360108784181	-0.3115234375	0.90673828125	0.359375	-21.0	32.3125	21.125
19	03	23	12	23	52	0.816314526476	0.567281831095	-0.00213630988685	0.0595703125	0.94677734375	0.4462890625	-25.375	29.6875	14.0
19	03	23	12	23	52	0.817070520134	0.56693194315	0.0	-0.04931640625	0.85888671875	0.35107421875	-4.25	24.375	7.9375
19	03	23	12	23	52	0.815094708716	0.56996812865	0.00811798683984	-0.88916015625	0.80224609375	0.26220703125	13.4375	24.5	29.5
19	03	23	12	23	52	0.81588535713	0.569111623392	0.0166021408797	-1.12060546875	0.6376953125	0.25634765625	-10.3125	22.5625	50.875
19	03	23	12	23	52	0.81700895586	0.567786126814	0.022218248781	-0.56787109375	0.6171875	0.27783203125	-10.5625	23.125	25.4375
19	03	23	12	23	52	0.818686494709	0.564895512453	0.0302742489656	-0.84423828125	0.7314453125	0.40673828125	-15.625	17.5	18.1875
19	03	23	12	23	52	0.823160968762	0.558011091237	0.0330826965052	-0.61083984375	0.65625	0.51513671875	-32.3125	-4.75	18.875
19	03	23	12	23	53	0.822790454179	0.558618563549	0.0261242072988	-0.03125	0.85400390625	0.65771484375	28.125	-31.625	6.625
19	03	23	12	23	53	0.818755372245	0.564839884804	0.0108646530684	0.76708984375	1.271484375	0.5419921875	54.5625	-45.4375	-19.0625
19	03	23	12	23	53	0.815275212104	0.570576677604	-0.0121464226405	0.96435546875	1.42578125	0.5068359375	50.5	-62.5625	19.5
19	03	23	12	23	53	0.81559584823	0.570404370731	-0.0362568428266	0.8583984375	1.14111328125	0.4609375	15.125	-64.1875	55.875
19	03	23	12	23	53	0.81460233598	0.571552245925	-0.0516374626284	0.5888671875	1.373046875	0.27587890625	3.25	-37.25	36.75
19	03	23	12	23	53	0.817133997936	0.56882585544	-0.0546912722904	0.05859375	1.126953125	0.05078125	-41.4375	13.875	47.5625
19	03	23	12	23	53	0.822607545913	0.562342013838	-0.0405291541505	-1.29638671875	0.95458984375	0.1318359375	-68.625	39.125	51.75
19	03	23	12	23	53	0.831293830101	0.550330066245	-0.0315573030444	-1.205078125	0.51416015625	0.29345703125	-82.6875	15.9375	65.875
19	03	23	12	23	53	0.838152249465	0.540782765093	-0.0376594769822	-0.03515625	0.43359375	0.3740234375	-51.375	2.1875	78.5
19	03	23	12	23	53	0.842750299974	0.534386823805	-0.0382097260653	0.29931640625	0.59326171875	0.4541015625	-32.1875	29.5	23.875
19	03	23	12	23	53	0.845912307621	0.529557340423	-0.0370494819775	0.10009765625	0.96630859375	0.43603515625	-35.3125	10.8125	-2.125
19	03	23	12	23	53	0.849539601149	0.523225568404	-0.0427272396037	0.095703125	0.72412109375	0.587890625	-25.9375	-27.9375	11.625
19	03	23	12	23	53	0.847466491456	0.525546419723	-0.0525546419723	0.17822265625	1.02099609375	0.56494140625	24.0	-47.6875	12.5625
19	03	23	12	23	53	0.844749640882	0.528334746494	-0.067262579787	0.27734375	1.0419921875	0.48974609375	25.875	-62.0	33.9375
19	03	23	12	23	53	0.840491885109	0.533288133638	-0.0816076725048	0.25146484375	1.14794921875	0.423828125	35.25	-58.0625	41.1875
19	03	23	12	23	53	0.837706806577	0.535744144661	-0.0953437796469	0.0126953125	1.220703125	0.4189453125	17.625	-57.75	67.8125
19	03	23	12	23	53	0.836628624915	0.534680583224	-0.113161849463	0.0849609375	1.0634765625	0.482421875	8.1875	-58.5625	100.9375
19	03	23	12	23	53	0.832917067678	0.536641276493	-0.133122682442	0.3076171875	0.95703125	0.4697265625	34.5	-55.6875	122.8125
19	03	23	12	23	53	0.825588364254	0.543352625949	-0.152043517326	0.45654296875	1.01904296875	0.35888671875	68.25	-44.4375	125.25
19	03	23	12	23	53	0.817063833572	0.550813090853	-0.169992736926	0.44970703125	1.1005859375	0.2802734375	76.3125	-34.875	133.0625
19	03	23	12	23	53	0.810137915168	0.55482209364	-0.187076976568	0.3857421875	1.1328125	0.259765625	55.3125	-28.125	137.625
19	03	23	12	23	53	0.805926551954	0.554211836696	-0.202702368906	0.4072265625	1.11474609375	0.26220703125	25.8125	-18.6875	136.5
19	03	23	12	23	53	0.803498764097	0.55080316372	-0.216378237521	0.42919921875	1.076171875	0.30419921875	7.0625	-10.0625	129.5625
19	03	23	12	23	53	0.802393534864	0.545549476238	-0.228034553952	0.3681640625	1.02001953125	0.3125	-5.4375	-2.5	120.9375
19	03	23	12	23	53	0.802081959242	0.539441469887	-0.237615483398	0.31787109375	0.9765625	0.32958984375	-12.5625	4.4375	110.9375
19	03	23	12	23	53	0.802748893876	0.533395877706	-0.243473641855	0.30859375	0.8994140625	0.376953125	-14.1875	9.75	99.0625
19	03	23	12	23	53	0.803257061712	0.528220867177	-0.247325046661	0.294921875	0.82373046875	0.37451171875	-8.375	16.1875	88.5
19	03	23	12	23	53	0.803013009356	0.525352156547	-0.248484794853	0.29052734375	0.81787109375	0.34326171875	2.75	24.0	74.5625
19	03	23	12	23	53	0.804153632597	0.521921647995	-0.247441277157	0.2666015625	0.8095703125	0.3125	-8.3125	28.3125	55.625
19	03	23	12	23	53	0.808694004393	0.514734435735	-0.245190113642	0.2138671875	0.7373046875	0.33984375	-38.6875	28.0625	36.4375
19	03	23	12	23	53	0.81589223436	0.504477393356	-0.242136941251	0.1689453125	0.64111328125	0.38720703125	-61.1875	25.3125	19.125
19	03	23	12	23	53	0.823216280833	0.494894165122	-0.237742078583	0.1728515625	0.59521484375	0.44775390625	-56.875	23.625	2.5
19	03	23	12	23	53	0.829037058943	0.488498275859	-0.232071778685	0.20361328125	0.55615234375	0.46240234375	-37.3125	22.375	-13.25
19	03	23	12	23	53	0.834009799384	0.484084581303	-0.225104518452	0.21240234375	0.53564453125	0.486328125	-23.5625	24.375	-22.875
19	03	23	12	23	53	0.837673217215	0.482132085601	-0.217353127842	0.19287109375	0.5712890625	0.4677734375	-10.4375	24.9375	-26.3125
19	03	23	12	23	53	0.839870451273	0.482559286901	-0.209723464431	0.1552734375	0.5654296875	0.40478515625	1.5625	21.625	-27.625
19	03	23	12	23	53	0.842045159431	0.482363213611	-0.203431176891	0.140625	0.58251953125	0.44677734375	-0.625	13.75	-22.9375
19	03	23	12	23	53	0.84500763508	0.48012352337	-0.198617079208	0.15234375	0.6328125	0.46142578125	-15.375	8.6875	-17.9375
19	03	23	12	23	53	0.849129870247	0.475529817359	-0.194765196662	0.13916015625	0.61376953125	0.48095703125	-30.4375	4.125	-17.6875
19	03	23	12	23	53	0.853739875078	0.469810239399	-0.191537551154	0.12353515625	0.53271484375	0.5048828125	-35.0625	0.1875	-20.3125
19	03	23	12	23	53	0.85762781641	0.465100274788	-0.188237434048	0.0830078125	0.48876953125	0.498046875	-26.9375	-0.25	-17.0625
19	03	23	12	23	53	0.859908141336	0.463342042936	-0.184213711709	0.06640625	0.48388671875	0.4833984375	-7.4375	2.0	-17.25
19	03	23	12	23	53	0.861174801081	0.463700117926	-0.17932749065	0.0927734375	0.4248046875	0.4453125	6.625	6.75	-23.875
19	03	23	12	23	53	0.861351462804	0.466870559736	-0.172490025077	0.0634765625	0.5185546875	0.46533203125	21.8125	10.625	-31.0
19	03	23	12	23	53	0.860359932635	0.471928419348	-0.166200347373	0.06201171875	0.63037109375	0.4765625	30.375	4.4375	-30.6875
19	03	23	12	23	53	0.858610001131	0.478165262591	-0.160894004619	0.15380859375	0.8671875	0.51171875	31.1875	-3.9375	-36.6875
19	03	23	12	23	53	0.856841972324	0.482988354965	-0.158147709809	0.08935546875	1.02734375	0.53466796875	21.3125	-12.5	-10.5
19	03	23	12	23	53	0.85723342824	0.481598671946	-0.159983538551	0.275390625	0.76513671875	0.5	-6.625	-9.5625	12.25
19	03	23	12	23	53	0.854153123957	0.486465656563	-0.160588600052	0.380859375	0.6357421875	0.55859375	44.3125	-3.9375	3.5625
19	03	23	12	23	53	0.849226392195	0.496058570356	-0.158699677978	0.20654296875	0.74169921875	0.49609375	63.9375	-13.0	-16.75
19	03	23	12	23	54	0.845694524535	0.503510222511	-0.15687007781	0.2041015625	1.0009765625	0.509765625	40.6875	-19.0625	-23.4375
19	03	23	12	23	54	0.843125258304	0.507779557217	-0.157723569642	0.37109375	0.9248046875	0.49072265625	26.625	-13.5625	-6.4375
19	03	23	12	23	54	0.841590322747	0.510093583347	-0.159064721575	0.31005859375	0.759765625	0.53173828125	22.1875	-16.125	-3.125
19	03	23	12	23	54	0.837181728149	0.517104374517	-0.160465934916	0.42919921875	0.84814453125	0.50048828125	49.5	-18.5	-12.6875
19	03	23	12	23	54	0.833750220101	0.523016518012	-0.160158168195	0.314453125	0.89306640625	0.44580078125	38.0625	-12.5	-11.6875
19	03	23	12	23	54	0.831799727359	0.526619316675	-0.159426246541	0.25732421875	0.85546875	0.408203125	22.0625	-8.5625	-9.375
19	03	23	12	23	54	0.831273756143	0.527976943288	-0.158698271971	0.28662109375	0.83154296875	0.41552734375	8.4375	-6.4375	-11.25
19	03	23	12	23	54	0.830919989591	0.528656286626	-0.158883767935	0.2919921875	0.73291015625	0.39599609375	6.6875	-7.0	-6.4375
19	03	23	12	23	54	0.830011012737	0.530430629555	-0.158823992877	0.24951171875	0.7998046875	0.4462890625	14.0625	-12.5	-10.0625
19	03	23	12	23	54	0.828603769301	0.532259658807	-0.160654520869	0.3037109375	0.8876953125	0.44970703125	14.1875	-17.75	0.0
19	03	23	12	23	54	0.828948158645	0.531207998283	-0.163030743814	0.25341796875	0.74169921875	0.4716796875	0.3125	-20.25	2.4375
19	03	23	12	23	54	0.828709592863	0.531455728442	-0.16461882389	0.1865234375	0.7568359375	0.484375	7.3125	-23.8125	-3.4375
19	03	23	12	23	54	0.828715601099	0.531459581555	-0.165840781335	0.21826171875	0.85498046875	0.47021484375	1.75	-21.8125	-6.25
19	03	23	12	23	54	0.83144509238	0.527298058514	-0.1664477145	0.23583984375	0.830078125	0.51806640625	-22.4375	-13.8125	-3.75
19	03	23	12	23	54	0.836092712808	0.520589483687	-0.165228717592	0.2197265625	0.83056640625	0.55126953125	-39.0625	-3.3125	-7.0625
19	03	23	12	23	54	0.842389500496	0.51168402164	-0.16272809277	0.1181640625	0.9169921875	0.53564453125	-61.5	-5.0625	-14.625
19	03	23	12	23	54	0.850563599707	0.499229255974	-0.160957029955	-0.08837890625	0.7109375	0.51953125	-83.5625	-18.125	-13.875
19	03	23	12	23	54	0.859637983759	0.483042814788	-0.164188169292	-0.32861328125	0.5869140625	0.59228515625	-111.5	-39.1875	-20.4375
19	03	23	12	23	54	0.866609881533	0.471087129573	-0.163885584724	-0.275390625	0.52587890625	0.6279296875	-73.4375	-48.0	-26.625
19	03	23	12	23	54	0.867865795778	0.469303052517	-0.162965164549	-0.1025390625	0.576171875	0.59423828125	-10.0625	-41.8125	-42.5
19	03	23	12	23	54	0.866842658825	0.472545829082	-0.158573245151	-0.08544921875	0.701171875	0.55126953125	12.375	-30.8125	-67.8125
19	03	23	12	23	54	0.866046563986	0.475535187822	-0.151309425056	-0.18701171875	0.7578125	0.41259765625	-3.375	-28.75	-92.5625
19	03	23	12	23	54	0.866518508485	0.474427580929	-0.146301673934	-0.15625	0.85693359375	0.44287109375	-27.1875	-34.6875	-111.4375
19	03	23	12	23	54	0.866637773577	0.47290016689	-0.139282160666	-0.03173828125	0.9091796875	0.42724609375	-33.0625	-35.875	-140.125
19	03	23	12	23	54	0.866166781495	0.471017479585	-0.130007416291	-0.04541015625	0.91748046875	0.43994140625	-36.3125	-32.375	-160.5
19	03	23	12	23	54	0.864291462622	0.469561738839	-0.120060826764	-0.11572265625	1.02783203125	0.39892578125	-34.0	-34.625	-171.0
19	03	23	12	23	54	0.862041981351	0.466392606351	-0.111455686323	-0.09814453125	1.2314453125	0.345703125	-43.375	-42.0	-167.3125
19	03	23	12	23	54	0.862295906847	0.456997908584	-0.102301121248	0.0751953125	1.2236328125	0.35205078125	-80.6875	-38.9375	-160.5625
19	03	23	12	23	54	0.865435593084	0.441354451907	-0.0886859381304	0.193359375	1.14013671875	0.36376953125	-123.1875	-17.125	-161.25
19	03	23	12	23	54	0.867505203591	0.428045732272	-0.0682993261674	0.1845703125	0.93359375	0.396484375	-114.0	27.1875	-165.8125
19	03	23	12	23	54	0.86693553329	0.420191805335	-0.0429713874136	0.06103515625	0.82275390625	0.4267578125	-84.6875	65.875	-165.1875
19	03	23	12	23	54	0.863194409457	0.417619583475	-0.0156256377331	-0.05078125	0.73779296875	0.35302734375	-54.0625	86.9375	-165.6875
19	03	23	12	23	54	0.854506835516	0.420417363074	0.0108644440516	-0.44677734375	0.8447265625	0.52392578125	-13.3125	80.75	-183.1875
19	03	23	12	23	54	0.840902919068	0.43525286462	0.0236212114161	-0.03076171875	1.32421875	0.43603515625	75.3125	53.1875	-138.125
19	03	23	12	23	54	0.836560530857	0.439032533085	0.0242313242923	-0.11962890625	1.53466796875	0.5625	-9.3125	3.6875	-68.125
19	03	23	12	23	54	0.834607638986	0.439887176698	0.0144045197309	-0.09716796875	0.9013671875	0.74755859375	27.375	-43.625	-15.25
19	03	23	12	23	54	0.828949710517	0.445207215118	0.000183112372546	0.1298828125	0.7158203125	0.7578125	76.375	-54.375	-30.9375
19	03	23	12	23	54	0.822209499798	0.453371848007	-0.00708012040506	0.1796875	0.49609375	0.6943359375	86.375	-10.3125	-40.0
19	03	23	12	23	54	0.813069292373	0.464549987558	-0.00488293246677	0.20166015625	0.595703125	0.63525390625	81.8125	37.0	-80.0625
19	03	23	12	23	54	0.799353472081	0.480735182202	0.0103154197298	-0.02978515625	0.8681640625	0.404296875	78.25	80.0	-117.75
19	03	23	12	23	54	0.790039918951	0.487732462325	0.0332031609942	-0.3701171875	0.8623046875	0.2451171875	6.375	91.8125	-127.125
19	03	23	12	23	54	0.787060440419	0.48273447253	0.0604257336964	-0.384765625	0.6640625	0.26806640625	-72.875	85.9375	-126.3125
19	03	23	12	23	54	0.783520587741	0.476569973443	0.0883802922061	-0.34619140625	0.4375	0.29541015625	-76.125	86.875	-129.875
19	03	23	12	23	54	0.774913860641	0.476020258281	0.115236087657	-0.46826171875	0.369140625	0.35693359375	-32.8125	93.6875	-139.75
19	03	23	12	23	54	0.762110687727	0.48066808152	0.140019375112	-0.63330078125	0.40771484375	0.36279296875	6.5625	97.375	-139.9375
19	03	23	12	23	54	0.748188439377	0.486584943605	0.163700554284	-0.77978515625	0.4541015625	0.3623046875	16.0625	99.3125	-133.1875
19	03	23	12	23	54	0.736416664284	0.48964231089	0.186164179533	-0.79150390625	0.49365234375	0.3623046875	-1.0625	91.3125	-120.125
19	03	23	12	23	54	0.727204388268	0.488729690856	0.205880510461	-0.80126953125	0.49951171875	0.42333984375	-18.1875	68.3125	-110.25
19	03	23	12	23	54	0.719855141253	0.484074200889	0.224428298659	-0.81640625	0.5146484375	0.50732421875	-34.9375	51.875	-109.5
19	03	23	12	23	54	0.714151376568	0.476222994871	0.242017966504	-0.806640625	0.50390625	0.5576171875	-49.75	38.3125	-108.1875
19	03	23	12	23	55	0.708079855294	0.469001431607	0.258365832899	-0.73193359375	0.486328125	0.55224609375	-43.625	37.0625	-104.4375
19	03	23	12	23	55	0.70046148091	0.462172737317	0.276009656385	-0.7392578125	0.45458984375	0.53515625	-41.5	45.0	-112.75
19	03	23	12	23	55	0.691607980808	0.455334528005	0.294746707203	-0.8779296875	0.46044921875	0.50927734375	-41.1875	49.875	-119.0625
19	03	23	12	23	55	0.684100859637	0.446911714335	0.311532011741	-1.0625	0.4736328125	0.4873046875	-47.0625	34.8125	-112.0625
19	03	23	12	23	55	0.678125724771	0.436966882415	0.325817742469	-1.12109375	0.45703125	0.4453125	-50.1875	17.1875	-104.0625
19	03	23	12	23	55	0.672882083288	0.425556411891	0.339309824111	-1.142578125	0.17431640625	0.44677734375	-52.25	5.125	-92.875
19	03	23	12	23	55	0.666956443632	0.41847289993	0.346204534481	-1.13623046875	0.00927734375	0.54736328125	-7.375	-3.0	-66.875
19	03	23	12	23	55	0.660468112048	0.419315768392	0.344119694643	-0.97705078125	0.14013671875	0.57275390625	47.125	-6.9375	-42.3125
19	03	23	12	23	55	0.654378023106	0.421949004172	0.34034249201	-0.9072265625	0.22216796875	0.5419921875	52.6875	-5.9375	-35.6875
19	03	23	12	23	55	0.649009868855	0.42341591839	0.337841589778	-0.9365234375	0.21435546875	0.498046875	39.9375	-7.625	-34.5625
19	03	23	12	23	55	0.644556768845	0.423356604991	0.335157312285	-0.91015625	0.20263671875	0.49560546875	32.75	-14.5	-34.5625
19	03	23	12	23	55	0.641054963775	0.421693682255	0.332581976351	-0.84228515625	0.1865234375	0.46728515625	24.0	-20.5625	-34.75
19	03	23	12	23	55	0.636545672912	0.423102368839	0.329411927961	-0.88427734375	0.2490234375	0.375	34.8125	-16.0	-31.125
19	03	23	12	23	55	0.634176931963	0.426589275986	0.327403759678	-0.94287109375	0.2744140625	0.32861328125	23.0	-2.1875	-6.1875
19	03	23	12	23	55	0.633614552479	0.428106393516	0.32715287557	-0.89306640625	0.10400390625	0.34521484375	8.0625	1.0625	7.6875
19	03	23	12	23	55	0.63118539936	0.429213396026	0.326121611912	-0.876953125	-0.0341796875	0.40576171875	24.125	-2.125	0.9375
19	03	23	12	23	55	0.62702639899	0.431649050293	0.323492642329	-0.9765625	0.00146484375	0.4541015625	40.9375	-5.1875	-5.8125
19	03	23	12	23	55	0.62464738583	0.434945990954	0.318427341399	-0.962890625	0.20703125	0.5	40.125	-7.5625	-0.25
19	03	23	12	23	55	0.623726046857	0.435613347335	0.314640157701	-0.83740234375	0.14501953125	0.544921875	24.5625	-7.0	0.25
19	03	23	12	23	55	0.620670707461	0.438418496577	0.310243800376	-0.80712890625	0.09033203125	0.4853515625	42.0625	-3.875	-1.75
19	03	23	12	23	55	0.616510579454	0.443660568463	0.30566131887	-0.86279296875	0.18017578125	0.41162109375	49.625	0.9375	-2.375
19	03	23	12	23	55	0.614103778856	0.446798495301	0.302992859382	-0.93798828125	0.1953125	0.39013671875	28.3125	-2.125	-0.375
19	03	23	12	23	55	0.613127320886	0.44716483353	0.301405944304	-0.90234375	0.126953125	0.435546875	14.3125	-6.1875	0.8125
19	03	23	12	23	55	0.61095286826	0.448479687909	0.299006803357	-0.89990234375	0.146484375	0.48681640625	24.9375	-2.9375	-4.0625
19	03	23	12	23	55	0.608286957643	0.449531752262	0.297124313647	-0.9638671875	0.1220703125	0.51611328125	25.4375	-2.25	-6.5625
19	03	23	12	23	55	0.605782403192	0.450873008804	0.294803930218	-0.9404296875	0.0966796875	0.4892578125	27.5	-3.6875	-2.5625
19	03	23	12	23	55	0.603095654909	0.453557718007	0.292422961509	-0.8857421875	0.15869140625	0.43212890625	29.0	1.1875	-2.0625
19	03	23	12	23	55	0.601765881342	0.454666198409	0.291696840139	-0.8818359375	0.1611328125	0.4228515625	12.5	1.8125	-1.1875
19	03	23	12	23	55	0.600775430434	0.454655712822	0.291934256199	-0.91455078125	0.1064453125	0.4462890625	6.625	0.875	-1.0
19	03	23	12	23	55	0.598886784227	0.455390776306	0.290959366124	-0.92919921875	0.07666015625	0.44091796875	17.875	-2.0625	-0.4375
19	03	23	12	23	55	0.596761576905	0.457840706594	0.288218079794	-0.912109375	0.16064453125	0.41162109375	26.9375	-2.5625	1.6875
19	03	23	12	23	55	0.595096425803	0.460757222399	0.285402142262	-0.921875	0.21240234375	0.4091796875	24.9375	-0.3125	4.0625
19	03	23	12	23	55	0.593204408322	0.463137673665	0.283449045401	-0.9462890625	0.17578125	0.39697265625	22.25	-0.8125	2.5
19	03	23	12	23	55	0.590780356153	0.465714858709	0.280649661906	-0.89599609375	0.16259765625	0.400390625	28.875	-1.875	1.0
19	03	23	12	23	55	0.587788947573	0.469193524402	0.277353372562	-0.9052734375	0.21826171875	0.39013671875	33.625	-1.0	-1.5
19	03	23	12	23	55	0.585098359368	0.471997247339	0.274726446434	-0.93505859375	0.2177734375	0.39453125	28.3125	-1.25	-2.25
19	03	23	12	23	55	0.583329075741	0.473890022398	0.272956746543	-0.92626953125	0.216796875	0.39111328125	18.875	-1.3125	-0.75
19	03	23	12	23	55	0.581538622967	0.474972036517	0.271848554439	-0.900390625	0.15869140625	0.38525390625	16.0625	-2.25	-1.875
19	03	23	12	23	55	0.57929570971	0.476449511115	0.27008571441	-0.91162109375	0.17138671875	0.3837890625	21.1875	-3.875	-3.0
19	03	23	12	23	55	0.576974639	0.478096090901	0.267765549698	-0.90185546875	0.169921875	0.375	24.0	-5.75	-1.8125
19	03	23	12	23	55	0.5749558444	0.479251941638	0.265199909121	-0.912109375	0.17578125	0.39453125	22.875	-8.125	-1.5
19	03	23	12	23	55	0.573245657709	0.480166480962	0.262330689612	-0.8740234375	0.1708984375	0.39794921875	22.625	-9.25	-0.1875
19	03	23	12	23	55	0.571235545682	0.480841289548	0.25976904396	-0.896484375	0.14208984375	0.4111328125	23.0	-9.6875	-1.375
19	03	23	12	23	55	0.568791352646	0.482303816784	0.256349788723	-0.92626953125	0.15966796875	0.42822265625	29.4375	-9.1875	-0.0625
19	03	23	12	23	55	0.566973254798	0.483108333699	0.252937578629	-0.89306640625	0.17578125	0.44189453125	25.8125	-10.3125	0.125
19	03	23	12	23	55	0.564897545423	0.484267652662	0.249824489834	-0.92138671875	0.18701171875	0.43994140625	25.6875	-8.3125	-1.0
19	03	23	12	23	55	0.562935887259	0.485297976753	0.246952032945	-0.91015625	0.22607421875	0.42822265625	22.5625	-8.375	-2.875
19	03	23	12	23	55	0.561283760015	0.485172314958	0.245424314813	-0.91845703125	0.16162109375	0.44677734375	15.6875	-7.75	-3.625
19	03	23	12	23	55	0.55884297245	0.486027368896	0.243227309438	-0.919921875	0.154296875	0.42431640625	23.5	-7.625	-3.3125
19	03	23	12	23	55	0.556720975162	0.486344998365	0.241585530062	-0.95166015625	0.1669921875	0.42431640625	18.125	-8.4375	-4.1875
19	03	23	12	23	56	0.554878168974	0.486700970124	0.239566253792	-0.93505859375	0.189453125	0.4150390625	18.0625	-9.9375	-3.3125
19	03	23	12	23	56	0.553832420836	0.485900363927	0.238158927276	-0.9306640625	0.14208984375	0.45654296875	11.625	-10.75	-0.9375
19	03	23	12	23	56	0.551758835093	0.485962814714	0.235840280841	-0.9501953125	0.12939453125	0.46875	21.875	-10.3125	-1.5
19	03	23	12	23	56	0.549199241068	0.487003861356	0.232546022279	-0.93994140625	0.166015625	0.4580078125	29.0	-9.875	-1.6875
19	03	23	12	23	56	0.546574150031	0.488834435243	0.228822611777	-0.88134765625	0.2080078125	0.4248046875	30.5	-7.375	-1.5
19	03	23	12	23	56	0.544392179016	0.489519595886	0.226509628471	-0.8974609375	0.1904296875	0.43408203125	21.3125	-7.4375	-4.0
19	03	23	12	23	56	0.541894001101	0.490133907281	0.224558237221	-0.9404296875	0.16357421875	0.443359375	21.8125	-7.625	-4.4375
19	03	23	12	23	56	0.539259923087	0.490979832633	0.221868683692	-0.90234375	0.17041015625	0.455078125	25.9375	-7.3125	-3.9375
19	03	23	12	23	56	0.536448310249	0.49183075253	0.219486645085	-0.89990234375	0.14990234375	0.45947265625	25.8125	-6.0	-4.0625
19	03	23	12	23	56	0.533384062645	0.492551709068	0.217040133512	-0.904296875	0.1494140625	0.48095703125	27.1875	-6.1875	-6.0625
19	03	23	12	23	56	0.530582892584	0.494144610418	0.213990983711	-0.8515625	0.240234375	0.42041015625	27.0625	-5.0	-6.375
19	03	23	12	23	56	0.528385052175	0.493716840365	0.213685580185	-0.89111328125	0.12353515625	0.42919921875	12.3125	-6.125	-7.1875
19	03	23	12	23	56	0.525599879392	0.493921057257	0.212473949618	-0.8974609375	0.1357421875	0.43603515625	19.1875	-6.5625	-7.5625
19	03	23	12	23	56	0.52332947349	0.494092849067	0.210699013586	-0.8984375	0.16845703125	0.4375	18.6875	-8.25	-5.4375
19	03	23	12	23	56	0.521358469805	0.494014920932	0.208921803107	-0.9052734375	0.138671875	0.46240234375	18.3125	-7.75	-2.5625
19	03	23	12	23	56	0.519365097401	0.494950237962	0.20514585643	-0.8857421875	0.24658203125	0.48681640625	26.25	-7.8125	-1.9375
19	03	23	12	23	56	0.518445188555	0.494824010315	0.202824742355	-0.91845703125	0.27099609375	0.49169921875	12.8125	-8.125	-2.5625
19	03	23	12	23	56	0.516911083515	0.493717529171	0.202028065466	-0.912109375	0.2021484375	0.52099609375	9.4375	-6.6875	-8.75
19	03	23	12	23	56	0.514533005056	0.493536640437	0.201235506248	-0.890625	0.205078125	0.49072265625	13.75	-4.0625	-11.1875
19	03	23	12	23	56	0.511277480109	0.493638803763	0.200800156328	-0.890625	0.142578125	0.45849609375	17.25	-3.125	-12.875
19	03	23	12	23	56	0.508043599764	0.493517605441	0.200678442579	-0.89697265625	0.14306640625	0.44287109375	15.0	-4.5625	-14.0625
19	03	23	12	23	56	0.505017490748	0.492810154738	0.201482080851	-0.955078125	0.07861328125	0.4541015625	10.9375	-5.5	-12.0625
19	03	23	12	23	56	0.501833505576	0.492861293788	0.201111822047	-0.96240234375	0.087890625	0.45458984375	17.9375	-5.25	-8.8125
19	03	23	12	23	56	0.498918182361	0.493730019222	0.199530650616	-0.9345703125	0.13232421875	0.4404296875	21.8125	-4.625	-5.5
19	03	23	12	23	56	0.495379804028	0.495013579431	0.197395057445	-0.94384765625	0.142578125	0.4404296875	26.875	-5.0	-6.9375
19	03	23	12	23	56	0.491959541396	0.4963542172	0.194281292837	-0.91845703125	0.16943359375	0.4462890625	30.125	-6.9375	-5.9375
19	03	23	12	23	56	0.489220070191	0.497032942179	0.192269896581	-0.9130859375	0.14453125	0.443359375	22.5625	-6.375	-4.75
19	03	23	12	23	56	0.486265521104	0.498228373136	0.189757688605	-0.9150390625	0.150390625	0.4296875	25.75	-5.75	-3.6875
19	03	23	12	23	56	0.483836490192	0.498912510512	0.187626260988	-0.9189453125	0.13720703125	0.4365234375	21.875	-6.9375	-1.875
19	03	23	12	23	56	0.481258622285	0.499813171578	0.1844468683	-0.91015625	0.1572265625	0.44580078125	26.9375	-8.25	-1.0625
19	03	23	12	23	56	0.478881588857	0.500488023022	0.180908109785	-0.892578125	0.17333984375	0.4677734375	26.875	-9.1875	-1.0
19	03	23	12	23	56	0.476254583995	0.50085161044	0.178099561207	-0.9541015625	0.1337890625	0.49169921875	26.0	-9.1875	-1.0625
19	03	23	12	23	56	0.474008635775	0.501230867497	0.174747196011	-0.9072265625	0.1708984375	0.4931640625	25.875	-8.875	-0.4375
19	03	23	12	23	56	0.472039291862	0.501396791136	0.1718115602	-0.873046875	0.15625	0.48779296875	22.9375	-8.0625	0.0
19	03	23	12	23	56	0.469374612133	0.502029412847	0.1685842235	-0.90673828125	0.1728515625	0.4814453125	26.8125	-8.25	-2.4375
19	03	23	12	23	56	0.466981676623	0.502077018939	0.166443475644	-0.9091796875	0.16064453125	0.4765625	20.4375	-8.375	-3.9375
19	03	23	12	23	56	0.464546072835	0.502266408272	0.164309292875	-0.916015625	0.1611328125	0.46337890625	20.4375	-8.5	-3.625
19	03	23	12	23	56	0.462173725654	0.502336207361	0.161992745363	-0.859375	0.17138671875	0.45703125	20.8125	-8.375	-4.6875
19	03	23	12	23	56	0.459829850902	0.502492588595	0.159725872022	-0.8671875	0.1689453125	0.4560546875	20.4375	-8.0	-4.0
19	03	23	12	23	56	0.457041133763	0.502635381482	0.157840327445	-0.89501953125	0.13427734375	0.46630859375	21.3125	-7.6875	-5.0625
19	03	23	12	23	56	0.454178790732	0.503374880683	0.154790675083	-0.890625	0.1962890625	0.45703125	25.8125	-7.9375	-4.625
19	03	23	12	23	56	0.452031156359	0.503301230804	0.152589507278	-0.876953125	0.18359375	0.4697265625	18.75	-8.5625	-4.375
19	03	23	12	23	56	0.449049530153	0.503860795353	0.150517349648	-0.90576171875	0.1669921875	0.45556640625	22.5	-7.0625	-5.75
19	03	23	12	23	56	0.446226199624	0.504819709628	0.147582403323	-0.943359375	0.1875	0.44873046875	25.8125	-8.3125	-2.6875
19	03	23	12	23	56	0.443609642588	0.50574428983	0.144105994242	-0.88916015625	0.22216796875	0.44189453125	26.3125	-8.75	-2.6875
19	03	23	12	23	56	0.441159641745	0.506405858821	0.14166180527	-0.93359375	0.20556640625	0.451171875	21.0625	-7.875	-3.125
19	03	23	12	23	56	0.438658102476	0.507139303391	0.138610345168	-0.99365234375	0.22607421875	0.4833984375	24.375	-9.3125	-1.875
19	03	23	12	23	56	0.436459769143	0.506954949308	0.135924472924	-0.90185546875	0.236328125	0.509765625	20.0625	-9.25	-5.1875
19	03	23	12	23	56	0.433594522098	0.507080981079	0.134399653387	-0.90185546875	0.21484375	0.46728515625	17.5625	-6.75	-10.0
19	03	23	12	23	56	0.43048426383	0.507389151456	0.132874555843	-0.9345703125	0.19775390625	0.4443359375	18.75	-8.25	-8.9375
19	03	23	12	23	57	0.427428719142	0.5075067542	0.131164403461	-0.8974609375	0.169921875	0.44873046875	20.125	-8.8125	-7.9375
19	03	23	12	23	57	0.424385126512	0.507211333426	0.129396874472	-0.89599609375	0.15771484375	0.48193359375	20.375	-9.3125	-8.125
19	03	23	12	23	57	0.42194041907	0.507390525637	0.125855799815	-0.833984375	0.23046875	0.46630859375	24.4375	-9.875	-4.375
19	03	23	12	23	57	0.419623096737	0.507392989552	0.122743570551	-0.87158203125	0.23193359375	0.49658203125	22.5	-9.0625	-4.3125
19	03	23	12	23	57	0.4169943056	0.507631973021	0.119629513902	-0.8642578125	0.2587890625	0.4736328125	22.3125	-9.25	-7.1875
19	03	23	12	23	57	0.414780977637	0.507063031519	0.117732858426	-0.86376953125	0.21435546875	0.48779296875	16.0625	-9.5	-6.8125
19	03	23	12	23	57	0.412246058102	0.506914941151	0.11529949715	-0.86572265625	0.2216796875	0.4833984375	19.625	-9.1875	-6.75
19	03	23	12	23	57	0.409788175876	0.506772598197	0.113769013976	-0.869140625	0.21044921875	0.46826171875	15.9375	-7.625	-7.875
19	03	23	12	23	57	0.407117068272	0.506363298108	0.112918527182	-0.88818359375	0.17529296875	0.45751953125	13.5	-8.6875	-9.0625
19	03	23	12	23	57	0.404476184126	0.506037730887	0.11144914927	-0.869140625	0.19384765625	0.4638671875	16.0	-8.875	-8.6875
19	03	23	12	23	57	0.401851631921	0.505732476018	0.109923266873	-0.9033203125	0.1650390625	0.47412109375	17.1875	-9.6875	-5.875
19	03	23	12	23	57	0.398938944416	0.505448806412	0.107303345209	-0.85595703125	0.17822265625	0.48681640625	22.9375	-10.5	-6.1875
19	03	23	12	23	57	0.396596498592	0.505358419259	0.104611634132	-0.861328125	0.205078125	0.47607421875	20.75	-9.75	-4.0625
19	03	23	12	23	57	0.394051998998	0.505626821514	0.101076535059	-0.88671875	0.23388671875	0.48828125	25.0	-10.1875	-3.0625
19	03	23	12	23	57	0.391974064104	0.505623348962	0.097657817279	-0.88037109375	0.2607421875	0.4853515625	21.4375	-10.75	-2.9375
19	03	23	12	23	57	0.389473330206	0.505747690658	0.0950336898811	-0.9013671875	0.27099609375	0.4970703125	19.4375	-8.9375	-7.0625
19	03	23	12	23	57	0.387145295892	0.505919495137	0.0934446552122	-0.900390625	0.2626953125	0.45654296875	13.875	-7.75	-8.1875
19	03	23	12	23	57	0.384577237343	0.505791392773	0.0917956141826	-0.87890625	0.24853515625	0.4736328125	15.3125	-8.3125	-9.5625
19	03	23	12	23	57	0.381833499445	0.505367866912	0.0902093849391	-0.88623046875	0.25341796875	0.5	15.5	-9.125	-11.5625
19	03	23	12	23	57	0.379039945765	0.504593112986	0.0894192464648	-0.9130859375	0.20751953125	0.51123046875	12.5625	-9.5	-11.1875
19	03	23	12	23	57	0.375917194524	0.504335732807	0.0878910147938	-0.90625	0.2158203125	0.49853515625	17.4375	-8.8125	-11.0625
19	03	23	12	23	57	0.373462043808	0.503523755748	0.0866060859886	-0.84326171875	0.1982421875	0.49462890625	13.625	-9.5625	-9.0625
19	03	23	12	23	57	0.370550161637	0.503181606413	0.0843518898669	-0.85205078125	0.18701171875	0.494140625	20.75	-9.8125	-7.25
19	03	23	12	23	57	0.367745275309	0.50288021963	0.0820331369319	-0.85986328125	0.20849609375	0.49951171875	19.8125	-9.4375	-7.5
19	03	23	12	23	57	0.365356331664	0.502380214823	0.0808715568752	-0.92138671875	0.18359375	0.5068359375	14.3125	-9.25	-6.0625
19	03	23	12	23	57	0.363416324095	0.501787974535	0.0788602436565	-0.85791015625	0.21875	0.51171875	15.1875	-9.25	-4.875
19	03	23	12	23	57	0.36113940207	0.501334975258	0.0768420664536	-0.83056640625	0.22509765625	0.5078125	16.125	-8.0	-6.875
19	03	23	12	23	57	0.358285500776	0.501111407388	0.0751361927521	-0.857421875	0.21630859375	0.51025390625	17.1875	-7.25	-9.6875
19	03	23	12	23	57	0.355525677441	0.50078767097	0.0747672025519	-0.89404296875	0.2021484375	0.486328125	10.9375	-7.0	-11.5
19	03	23	12	23	57	0.353210336717	0.500060875881	0.0744628669077	-0.8798828125	0.17919921875	0.49853515625	9.375	-8.125	-9.0
19	03	23	12	23	57	0.350706149346	0.499509071746	0.0732417993762	-0.83447265625	0.158203125	0.49560546875	14.875	-7.875	-6.8125
19	03	23	12	23	57	0.347789764693	0.499528156239	0.0708641482641	-0.8671875	0.177734375	0.5166015625	22.0	-7.25	-5.5625
19	03	23	12	23	57	0.344789808188	0.499636992358	0.0686039554618	-0.91943359375	0.20849609375	0.52978515625	21.0625	-7.5625	-7.125
19	03	23	12	23	57	0.342412703338	0.499458672266	0.0668956012225	-0.8984375	0.19873046875	0.51513671875	16.5625	-7.5625	-5.25
19	03	23	12	23	57	0.340089673204	0.499514336953	0.0646365692611	-0.83984375	0.18603515625	0.48876953125	19.0625	-7.0	-3.5625
19	03	23	12	23	57	0.337227228877	0.499889774571	0.0614638587292	-0.92138671875	0.19873046875	0.51708984375	25.625	-8.5	-2.1875
19	03	23	12	23	57	0.334422019485	0.500992140159	0.0581683125696	-0.9130859375	0.27294921875	0.474609375	24.0625	-6.1875	-5.0
19	03	23	12	23	57	0.332457461328	0.50109707316	0.0571897634045	-0.9248046875	0.21240234375	0.4765625	11.125	-6.9375	-4.75
19	03	23	12	23	57	0.330322916586	0.50109962032	0.0558472780259	-0.92138671875	0.185546875	0.4912109375	14.5	-7.8125	-3.125
19	03	23	12	23	57	0.327332143527	0.501648869598	0.0536500007758	-0.91552734375	0.189453125	0.4677734375	21.5625	-7.5	-4.5
19	03	23	12	23	57	0.324526250609	0.501956720897	0.0513309341287	-0.9072265625	0.21826171875	0.4814453125	20.125	-8.1875	-5.75
19	03	23	12	23	57	0.322757780899	0.50189811504	0.048645603513	-0.84033203125	0.30517578125	0.4970703125	15.5625	-7.5	-5.4375
19	03	23	12	23	57	0.32117603347	0.500929628789	0.0487684627029	-0.82568359375	0.20166015625	0.478515625	3.75	-7.75	-7.9375
19	03	23	12	23	57	0.318232646857	0.500603024457	0.0498649928044	-0.95751953125	0.1025390625	0.4912109375	7.8125	-6.625	-9.0625
19	03	23	12	23	57	0.315302822529	0.500968944506	0.0500480670681	-0.96337890625	0.13916015625	0.46240234375	11.1875	-6.25	-7.875
19	03	23	12	23	57	0.31377601595	0.500540188059	0.0502310175311	-0.8935546875	0.1943359375	0.47265625	3.8125	-6.875	-5.9375
19	03	23	12	23	57	0.312685590092	0.500309151276	0.0491947268425	-0.83251953125	0.2392578125	0.4609375	7.0625	-6.25	-3.8125
19	03	23	12	23	57	0.310976204621	0.500308527827	0.0480349898011	-0.83056640625	0.18310546875	0.451171875	11.4375	-5.875	-3.25
19	03	23	12	23	57	0.307860624521	0.501036452556	0.0473021379865	-0.9267578125	0.1455078125	0.43505859375	15.8125	-6.125	-7.0625
19	03	23	12	23	58	0.305966872603	0.501155793127	0.0479732618923	-1.00732421875	0.12548828125	0.46044921875	5.8125	-7.0625	-2.8125
19	03	23	12	23	58	0.305544017693	0.501040919145	0.0465090973795	-0.9091796875	0.1962890625	0.4599609375	8.375	-8.4375	4.9375
19	03	23	12	23	58	0.30565743954	0.501087775285	0.044554698655	-0.84619140625	0.21630859375	0.4521484375	8.6875	-6.0625	7.0625
19	03	23	12	23	58	0.3042078073	0.502150407436	0.041688188681	-0.8916015625	0.216796875	0.4443359375	19.1875	-4.5625	3.9375
19	03	23	12	23	58	0.302437699487	0.503737302495	0.0388804873003	-0.9775390625	0.26806640625	0.44091796875	19.125	-4.375	1.375
19	03	23	12	23	58	0.301579822244	0.504647231394	0.0377203663524	-0.966796875	0.25	0.42822265625	7.8125	-5.0625	1.625
19	03	23	12	23	58	0.30071367324	0.505054931208	0.0372306354123	-0.92919921875	0.20068359375	0.4345703125	6.3125	-5.125	1.25
19	03	23	12	23	58	0.299311947303	0.506034941902	0.0350336577797	-0.93212890625	0.22216796875	0.43115234375	15.6875	-5.375	3.3125
19	03	23	12	23	58	0.297854395862	0.507329044755	0.032409976271	-0.93798828125	0.23876953125	0.4306640625	18.125	-4.125	3.5
19	03	23	12	23	58	0.295598819484	0.50867655618	0.0301519340956	-0.98486328125	0.21826171875	0.43798828125	19.5	-4.8125	0.875
19	03	23	12	23	58	0.294131722149	0.509771351606	0.0277102722257	-0.96435546875	0.271484375	0.43359375	16.0625	-5.75	1.8125
19	03	23	12	23	58	0.293152269366	0.510437732399	0.026001013273	-0.9169921875	0.2255859375	0.42626953125	12.0	-5.1875	3.625
19	03	23	12	23	58	0.291740078445	0.511582706596	0.0238030607937	-0.9306640625	0.21142578125	0.4169921875	16.8125	-4.3125	4.75
19	03	23	12	23	58	0.289980857106	0.513066530169	0.0203859411226	-0.966796875	0.2529296875	0.42529296875	22.8125	-4.9375	5.375
19	03	23	12	23	58	0.288816946686	0.514340745927	0.017089760159	-0.9248046875	0.29443359375	0.40869140625	18.6875	-4.75	5.1875
19	03	23	12	23	58	0.288020167952	0.515372387834	0.0140378551873	-0.89111328125	0.29541015625	0.40380859375	16.0625	-4.6875	5.3125
19	03	23	12	23	58	0.2870520163	0.516425071213	0.0110475047736	-0.8125	0.27197265625	0.380859375	16.875	-3.625	4.5625
19	03	23	12	23	58	0.284979103522	0.517711020791	0.00811784552762	-0.82568359375	0.2568359375	0.39208984375	21.1875	-2.3125	0.4375
19	03	23	12	23	58	0.282715011208	0.519104311383	0.00561523770103	-0.91357421875	0.28125	0.3984375	19.3125	-3.125	-1.0
19	03	23	12	23	58	0.28119317855	0.52021043212	0.00408941674904	-0.87255859375	0.2724609375	0.39599609375	12.375	-1.9375	-0.875
19	03	23	12	23	58	0.279854204469	0.520827901142	0.00299080829204	-0.82861328125	0.2587890625	0.38427734375	9.5	-2.75	-1.75
19	03	23	12	23	58	0.278006491724	0.521895392038	0.00207513078345	-0.8798828125	0.23974609375	0.37841796875	11.3125	-2.1875	-2.1875
19	03	23	12	23	58	0.275510992589	0.523190125936	0.000305173895203	-0.9150390625	0.2666015625	0.3759765625	17.0625	-3.75	-3.5625
19	03	23	12	23	58	0.274238182512	0.5238175122	-0.00079347793738	-0.8564453125	0.26220703125	0.37548828125	9.25	-3.8125	-1.0625
19	03	23	12	23	58	0.27227257043	0.524709098406	-0.00158688339636	-0.896484375	0.2373046875	0.3671875	10.6875	-3.75	-2.75
19	03	23	12	23	58	0.270206674215	0.526191944523	-0.00354009195944	-0.93359375	0.25634765625	0.3662109375	16.875	-3.0625	0.5
19	03	23	12	23	58	0.268192397538	0.527656640126	-0.00677500139433	-0.9091796875	0.26513671875	0.36767578125	22.5	-3.875	3.625
19	03	23	12	23	58	0.265809521484	0.529360730156	-0.0109253511701	-0.8583984375	0.28076171875	0.35546875	27.875	-2.75	3.4375
19	03	23	12	23	58	0.263298726501	0.531663237495	-0.0150142528325	-0.95458984375	0.3271484375	0.35302734375	27.5625	-1.625	2.6875
19	03	23	12	23	58	0.261594207843	0.533381190468	-0.0186765813346	-0.93212890625	0.359375	0.35693359375	21.5625	-2.625	2.8125
19	03	23	12	23	58	0.260439325685	0.534550647843	-0.0215456015858	-0.87060546875	0.37353515625	0.3642578125	15.4375	-2.1875	0.5625
19	03	23	12	23	58	0.258172164758	0.535875084298	-0.0236810401717	-0.8701171875	0.326171875	0.3603515625	16.9375	-1.0625	-4.0
19	03	23	12	23	58	0.255556300815	0.537235863332	-0.0263674043353	-0.830078125	0.333984375	0.32568359375	19.6875	-2.625	-5.125
19	03	23	12	23	58	0.253361239447	0.538278190963	-0.0278935404547	-0.8115234375	0.33056640625	0.32080078125	12.5625	-2.5	-7.5
19	03	23	12	23	58	0.251763391069	0.538193838168	-0.0274040636582	-0.86669921875	0.2490234375	0.369140625	3.3125	-5.0	-5.3125
19	03	23	12	23	58	0.25036383775	0.537775664167	-0.0283200440555	-0.77978515625	0.27099609375	0.37646484375	8.25	-6.125	-3.5
19	03	23	12	23	58	0.248838456263	0.538203950779	-0.0283811337165	-0.89306640625	0.24560546875	0.359375	6.0625	-3.5625	-2.3125
19	03	23	12	23	58	0.247623841405	0.538766489543	-0.0294804819814	-0.927734375	0.25732421875	0.37158203125	10.0625	-4.375	2.6875
19	03	23	12	23	58	0.247498300346	0.539186186254	-0.0314331996741	-0.8916015625	0.3154296875	0.365234375	8.9375	-3.875	6.8125
19	03	23	12	23	58	0.247065093028	0.539966620064	-0.0343010331724	-0.83203125	0.33544921875	0.32568359375	13.375	-3.8125	6.0625
19	03	23	12	23	58	0.246645954299	0.541144031382	-0.0379643116986	-0.8525390625	0.400390625	0.31494140625	15.625	-3.3125	6.0625
19	03	23	12	23	58	0.245848470967	0.54192864293	-0.0399168073517	-0.93212890625	0.3583984375	0.3466796875	10.375	-4.25	2.875
19	03	23	12	23	58	0.245121551478	0.542673235604	-0.042420188814	-0.94091796875	0.42529296875	0.37890625	11.6875	-3.1875	1.3125
19	03	23	12	23	58	0.245060062867	0.54248912547	-0.0428473634204	-0.88623046875	0.35107421875	0.3916015625	1.0	-3.9375	0.75
19	03	23	12	23	58	0.24358516404	0.543809524328	-0.045347977169	-0.8212890625	0.4013671875	0.31640625	13.9375	-0.4375	-2.875
19	03	23	12	23	58	0.241887340247	0.545238357413	-0.0463266442714	-0.9326171875	0.31640625	0.32275390625	10.6875	-0.5625	-1.4375
19	03	23	12	23	58	0.240598769592	0.546016385786	-0.0494381033408	-0.81298828125	0.380859375	0.31787109375	16.625	-4.125	0.75
19	03	23	12	23	58	0.239559930388	0.546501813171	-0.0501702580329	-0.9287109375	0.3125	0.35107421875	6.75	-3.8125	0.875
19	03	23	12	23	58	0.238223699895	0.547127144724	-0.0522468580861	-0.89013671875	0.34814453125	0.3447265625	13.5	-3.875	1.1875
19	03	23	12	23	58	0.237920625624	0.547742353605	-0.054505674367	-0.86328125	0.4033203125	0.349609375	9.375	-1.9375	3.25
19	03	23	12	23	58	0.237370641484	0.548778461709	-0.0563366166341	-0.857421875	0.3779296875	0.3076171875	8.8125	-0.8125	2.0625
19	03	23	12	23	59	0.236510783766	0.549803649075	-0.0579832889233	-0.89208984375	0.40087890625	0.30712890625	8.5	-2.25	-0.0625
19	03	23	12	23	59	0.23602135163	0.550899591367	-0.0596919787677	-0.9091796875	0.4091796875	0.283203125	7.125	-2.875	1.875
19	03	23	12	23	59	0.235537725889	0.551459796167	-0.061890451944	-0.814453125	0.427734375	0.30517578125	8.25	-3.0	-0.125
19	03	23	12	23	59	0.234864049008	0.551881686885	-0.0639040174926	-0.83935546875	0.44140625	0.322265625	8.375	-3.3125	-1.75
19	03	23	12	23	59	0.233641465344	0.55224346354	-0.064574887757	-0.92919921875	0.41162109375	0.34765625	5.125	-4.0625	-4.625
19	03	23	12	23	59	0.232477747274	0.553149336714	-0.064207558449	-0.93408203125	0.404296875	0.30126953125	0.125	-2.125	-7.25
19	03	23	12	23	59	0.232114710862	0.553034813337	-0.0625604992462	-0.9765625	0.3642578125	0.37060546875	-7.125	-3.375	-4.8125
19	03	23	12	23	59	0.231438510465	0.55351156419	-0.0602399287524	-0.89697265625	0.31689453125	0.3115234375	-8.5625	-0.375	-7.3125
19	03	23	12	23	59	0.229856305267	0.553766929816	-0.0596918392329	-0.97412109375	0.302734375	0.35888671875	3.25	-3.8125	-3.875
19	03	23	12	23	59	0.229188647167	0.554203173444	-0.0612797341561	-0.810546875	0.42724609375	0.2841796875	5.6875	-4.25	-3.625
19	03	23	12	23	59	0.228329976265	0.554254080316	-0.0618279246075	-0.78662109375	0.41552734375	0.35107421875	3.0625	-0.875	-8.1875
19	03	23	12	23	59	0.227963141417	0.55419151916	-0.0606070681196	-0.8173828125	0.3310546875	0.32861328125	-5.5	-1.8125	-5.5
19	03	23	12	23	59	0.226198223383	0.554570172061	-0.0603032500547	-0.82470703125	0.34326171875	0.3427734375	3.6875	-0.5625	-10.5
19	03	23	12	23	59	0.224241681294	0.555660388269	-0.0576778412691	-0.88330078125	0.29296875	0.2861328125	-5.1875	1.9375	-14.1875
19	03	23	12	23	59	0.223325116338	0.556207101718	-0.0551141240921	-0.79931640625	0.2939453125	0.28271484375	-9.25	1.25	-11.625
19	03	23	12	23	59	0.22277825143	0.556823558299	-0.0517577964965	-0.84423828125	0.2236328125	0.265625	-12.5	1.25	-7.125
19	03	23	12	23	59	0.221925932598	0.557744546777	-0.0510258744917	-0.83740234375	0.25048828125	0.28662109375	0.625	1.25	-2.25
19	03	23	12	23	59	0.221134225637	0.558969704218	-0.0514535335942	-0.8056640625	0.30322265625	0.25439453125	4.125	1.625	-1.5625
19	03	23	12	23	59	0.221245141154	0.559979081404	-0.0510237070358	-0.96142578125	0.30517578125	0.28662109375	-2.125	0.125	3.1875
19	03	23	12	23	59	0.221983863496	0.560544350383	-0.0507810212891	-0.89208984375	0.35009765625	0.31005859375	-4.375	0.875	2.25
19	03	23	12	23	59	0.222410233148	0.561030423462	-0.049315990226	-0.92138671875	0.3271484375	0.31884765625	-8.3125	1.125	-1.25
19	03	23	12	23	59	0.222228354033	0.562315250125	-0.0482176324323	-0.93603515625	0.3525390625	0.27392578125	-5.5	3.0625	-3.9375
19	03	23	12	23	59	0.22173339473	0.563580007414	-0.047178616605	-0.96337890625	0.3115234375	0.27197265625	-3.1875	1.3125	-2.25
19	03	23	12	23	59	0.220824269851	0.565000073523	-0.0474241176545	-0.95166015625	0.3525390625	0.25830078125	3.125	0.5	-2.8125
19	03	23	12	23	59	0.21948658008	0.56592869035	-0.0463265612571	-0.92578125	0.33251953125	0.28173828125	-1.1875	0.1875	-9.125
19	03	23	12	23	59	0.218748773982	0.56713549326	-0.0458371454411	-0.94677734375	0.3349609375	0.24658203125	-1.1875	-0.375	-4.0
19	03	23	12	23	59	0.218379334644	0.567798476857	-0.0448599248081	-0.79736328125	0.3349609375	0.24951171875	-4.9375	0.875	-7.625
19	03	23	12	23	59	0.217159223896	0.56822719912	-0.0419914407084	-0.83740234375	0.23779296875	0.251953125	-8.875	-0.125	-11.625
19	03	23	12	23	59	0.21587774725	0.568960237452	-0.0385125412821	-0.9287109375	0.23486328125	0.25341796875	-11.0625	0.0625	-11.9375
19	03	23	12	23	59	0.21594767708	0.568861602709	-0.0349740019691	-0.92236328125	0.2421875	0.27001953125	-16.75	-2.5	-6.9375
19	03	23	12	23	59	0.216916922297	0.568048901469	-0.0315548814935	-0.83203125	0.21337890625	0.28076171875	-19.3125	-4.125	-2.9375
19	03	23	12	23	59	0.217226884238	0.56787831721	-0.028869996135	-0.95751953125	0.19384765625	0.31884765625	-11.625	-1.6875	-0.125
19	03	23	12	23	59	0.216550269882	0.567986699978	-0.0289913692768	-1.01220703125	0.23876953125	0.35009765625	4.0625	-3.1875	3.125
19	03	23	12	23	59	0.216675643752	0.568666752913	-0.0294190592362	-0.95458984375	0.30517578125	0.30810546875	1.25	-0.125	2.75
19	03	23	12	23	59	0.216245062935	0.569634539196	-0.0289913646328	-0.89794921875	0.31982421875	0.27978515625	-1.5625	2.25	-4.25
19	03	23	12	23	59	0.216060700363	0.57054673079	-0.0275263773627	-0.84619140625	0.26904296875	0.23046875	-6.625	1.4375	-4.9375
19	03	23	12	23	59	0.214169930266	0.571953951703	-0.0251461987089	-1.03564453125	0.205078125	0.26904296875	-2.5	2.125	-8.3125
19	03	23	12	23	59	0.213319645219	0.573063848057	-0.0238649445724	-1.01806640625	0.25830078125	0.25439453125	-2.9375	0.0	-3.5
19	03	23	12	23	59	0.21343610145	0.573170840354	-0.0229488058751	-0.74365234375	0.26708984375	0.2587890625	-5.5	0.1875	-4.4375
19	03	23	12	23	59	0.21124641306	0.574839271366	-0.0214847550988	-0.8583984375	0.19140625	0.19775390625	1.8125	3.0	-9.875
19	03	23	12	23	59	0.208802085885	0.576662410827	-0.0216065297875	-1.0439453125	0.228515625	0.24267578125	10.125	1.1875	-4.5
19	03	23	12	23	59	0.209040934407	0.577014012812	-0.0217890842579	-0.86376953125	0.26806640625	0.2392578125	-1.0	-2.6875	1.625
19	03	23	12	23	59	0.209474008604	0.576541808062	-0.020446909348	-0.85009765625	0.23095703125	0.3134765625	-7.625	-1.75	-0.75
19	03	23	12	23	59	0.208982272618	0.576410216883	-0.0202634680226	-1.07763671875	0.2607421875	0.38818359375	1.8125	-1.8125	0.8125
19	03	23	12	23	59	0.20995656846	0.576159885542	-0.0200191146671	-0.96044921875	0.361328125	0.3994140625	-5.375	2.1875	-0.6875
19	03	23	12	23	59	0.209901370057	0.576236939432	-0.0173341055819	-0.92236328125	0.3037109375	0.34033203125	-12.625	3.5625	-11.125
19	03	23	12	23	59	0.209954651128	0.576948057299	-0.0133662990107	-0.91748046875	0.2890625	0.2421875	-19.5625	3.375	-13.9375
19	03	23	12	23	59	0.208497431643	0.57770146092	-0.00811772787136	-0.9482421875	0.1533203125	0.22802734375	-17.4375	2.375	-16.5625
19	03	23	12	23	59	0.206477526574	0.578906100962	-0.00518787755211	-0.9404296875	0.17578125	0.19091796875	-6.0625	0.3125	-13.5
19	03	23	12	24	00	0.205442634608	0.579279870786	-0.00201414347655	-0.91650390625	0.14404296875	0.22265625	-10.0	-1.75	-8.875
19	03	23	12	24	00	0.20428853482	0.579661850966	-0.000610363115684	-0.8857421875	0.16259765625	0.24560546875	-1.75	-1.0625	-5.875
19	03	23	12	24	00	0.203676692461	0.579718676953	0.000732430419397	-0.87890625	0.162109375	0.28369140625	-3.25	-0.875	-3.0625
19	03	23	12	24	00	0.203491695721	0.579957436335	0.00177002374802	-0.927734375	0.1669921875	0.27734375	-3.0	-0.5	0.25
19	03	23	12	24	00	0.203305065785	0.580374623402	0.00128171911783	-0.90087890625	0.22021484375	0.26904296875	2.6875	-1.375	1.75
19	03	23	12	24	00	0.203490547256	0.580381407875	0.000183104871556	-0.8984375	0.2294921875	0.28662109375	3.6875	-3.375	4.375
19	03	23	12	24	00	0.203426747795	0.58025145253	-0.00109861429952	-0.99072265625	0.22216796875	0.31298828125	5.8125	-5.0	6.125
19	03	23	12	24	00	0.204283420669	0.580013548436	-0.00329587831375	-1.0009765625	0.29931640625	0.3349609375	5.875	-4.8125	9.0625
19	03	23	12	24	00	0.206295580808	0.578543139194	-0.005798248573	-1.015625	0.2744140625	0.40576171875	3.4375	-9.1875	16.8125
19	03	23	12	24	00	0.209719387177	0.576972458377	-0.0100098892599	-0.98876953125	0.35986328125	0.3388671875	3.25	-14.3125	24.0
19	03	23	12	24	00	0.214349715926	0.573959205174	-0.0144039102957	-1.01318359375	0.32666015625	0.384765625	0.4375	-21.25	33.125
19	03	23	12	24	00	0.219784251	0.57048691866	-0.0213619794085	-0.9482421875	0.31591796875	0.3466796875	8.5	-28.3125	45.5
19	03	23	12	24	00	0.224431931078	0.566908832161	-0.0310066415523	-0.99658203125	0.34326171875	0.365234375	23.0	-32.9375	51.8125
19	03	23	12	24	00	0.230713917701	0.56341803553	-0.0422365161506	-1.00439453125	0.3759765625	0.3251953125	23.875	-35.5	65.3125
19	03	23	12	24	00	0.238159372213	0.559021448	-0.0524292416019	-0.97900390625	0.38720703125	0.359375	15.375	-36.125	68.125
19	03	23	12	24	00	0.247187539674	0.55376112283	-0.0613391302154	-0.984375	0.38134765625	0.33935546875	3.0625	-40.4375	73.4375
19	03	23	12	24	00	0.25647383403	0.547982408834	-0.0722057462297	-0.84619140625	0.39453125	0.3349609375	9.8125	-42.5	78.75
19	03	23	12	24	00	0.264893125802	0.542969872611	-0.0841676544886	-0.77392578125	0.39697265625	0.32373046875	19.5	-38.1875	78.875
19	03	23	12	24	00	0.272211831029	0.539540938631	-0.0979596387447	-0.7294921875	0.4248046875	0.275390625	32.1875	-32.8125	79.1875
19	03	23	12	24	00	0.278377200581	0.537406544861	-0.11242508298	-0.736328125	0.5302734375	0.2861328125	39.375	-25.4375	73.3125
19	03	23	12	24	00	0.28729413134	0.532717904895	-0.120056842224	-0.8193359375	0.49560546875	0.29150390625	-3.5625	-31.5625	70.1875
19	03	23	12	24	00	0.295662488864	0.52735836164	-0.130435742919	-0.72412109375	0.47021484375	0.32275390625	11.4375	-35.6875	76.4375
19	03	23	12	24	00	0.302249252665	0.522893648542	-0.143067901504	-0.73583984375	0.5107421875	0.33837890625	28.8125	-35.5625	75.6875
19	03	23	12	24	00	0.307314949386	0.518010322827	-0.157655315643	-0.7626953125	0.42529296875	0.39697265625	46.375	-40.75	81.875
19	03	23	12	24	00	0.309448656038	0.513367385786	-0.176635978417	-0.708984375	0.40380859375	0.4130859375	77.875	-47.0	83.3125
19	03	23	12	24	00	0.308949595288	0.510847118246	-0.200066529702	-0.697265625	0.53076171875	0.3798828125	106.125	-42.75	77.4375
19	03	23	12	24	00	0.308297255254	0.508742352513	-0.222906667232	-0.74072265625	0.708984375	0.33154296875	104.25	-38.3125	74.9375
19	03	23	12	24	00	0.310292354305	0.50596451951	-0.24242353094	-0.708984375	0.83203125	0.31787109375	75.5625	-34.625	75.0625
19	03	23	12	24	00	0.315733341284	0.501035182409	-0.256529525115	-0.6767578125	0.796875	0.32177734375	38.0625	-32.5625	78.0
19	03	23	12	24	00	0.323107872478	0.49503739208	-0.26909380615	-0.60205078125	0.7490234375	0.33642578125	26.0	-30.125	83.5625
19	03	23	12	24	00	0.330924277475	0.48930651651	-0.282768752774	-0.55029296875	0.75439453125	0.30908203125	31.25	-27.0625	90.25
19	03	23	12	24	00	0.339160411688	0.483320370732	-0.297719000938	-0.48388671875	0.8134765625	0.30517578125	35.4375	-26.1875	94.0625
19	03	23	12	24	00	0.346911813381	0.477583557302	-0.313404673067	-0.44873046875	0.8232421875	0.26611328125	40.5	-26.5	95.1875
19	03	23	12	24	00	0.353570050095	0.472891549825	-0.329095409997	-0.48486328125	0.80126953125	0.2236328125	45.5625	-24.3125	95.125
19	03	23	12	24	00	0.359182643975	0.467700356972	-0.337698822279	-0.45947265625	0.65283203125	0.23095703125	15.1875	-23.5625	69.9375
19	03	23	12	24	00	0.362059407835	0.463865728177	-0.337889561999	-0.4775390625	0.47607421875	0.2509765625	-13.625	-17.0625	31.3125
19	03	23	12	24	00	0.358038125991	0.463508613838	-0.334905420612	-0.64306640625	0.49609375	0.2939453125	-4.5625	-19.0625	-9.8125
19	03	23	12	24	00	0.350518047058	0.466238440097	-0.330743043184	-0.68701171875	0.62939453125	0.20263671875	-3.0	-14.6875	-36.75
19	03	23	12	24	00	0.346686247771	0.468026434491	-0.32276001377	-0.6533203125	0.7197265625	0.22607421875	-33.1875	-3.125	-36.25
19	03	23	12	24	00	0.345580052459	0.470457619985	-0.314696352963	-0.52734375	0.55029296875	0.23876953125	-31.8125	12.5625	-25.3125
19	03	23	12	24	00	0.3414817444	0.475999307341	-0.317678727364	-0.44677734375	0.6357421875	0.248046875	38.5625	16.1875	-10.625
19	03	23	12	24	00	0.334473996962	0.482790021163	-0.330811872908	-0.44970703125	0.95166015625	0.2333984375	93.25	7.5	-0.125
19	03	23	12	24	00	0.331232741882	0.485038990185	-0.343988895015	-0.41015625	1.1171875	0.2431640625	71.5625	-4.875	15.6875
19	03	23	12	24	00	0.332999856513	0.482471383016	-0.354056482337	-0.28076171875	1.1396484375	0.2861328125	34.3125	-11.875	26.625
19	03	23	12	24	00	0.336551604691	0.478887176353	-0.362919086234	-0.26123046875	1.13232421875	0.287109375	22.8125	-10.5625	33.125
19	03	23	12	24	00	0.3432525914	0.474474688041	-0.369130809528	-0.27734375	1.12255859375	0.22900390625	-2.25	-5.375	43.0
19	03	23	12	24	00	0.353574666628	0.46893046154	-0.370847518458	-0.26220703125	1.09423828125	0.2158203125	-36.125	2.125	47.625
19	03	23	12	24	00	0.364993942319	0.464360186147	-0.371890985041	-0.28125	1.08154296875	0.189453125	-39.125	11.625	53.5625
19	03	23	12	24	00	0.377012956516	0.461668447967	-0.374266383254	-0.29150390625	1.08154296875	0.15087890625	-28.75	22.5625	62.9375
19	03	23	12	24	00	0.389945819105	0.460195879801	-0.377128692479	-0.29931640625	1.0703125	0.0751953125	-26.6875	31.0	71.875
19	03	23	12	24	01	0.404963661247	0.459894677844	-0.380610910556	-0.2666015625	1.0576171875	0.06640625	-21.5	46.4375	85.625
19	03	23	12	24	01	0.421998879767	0.459535661812	-0.385377628992	-0.267578125	1.12451171875	0.06787109375	-3.625	56.9375	108.75
19	03	23	12	24	01	0.439926547011	0.458297508533	-0.393175196427	-0.24560546875	1.1875	0.015625	8.1875	54.5	128.375
19	03	23	12	24	01	0.460631724482	0.454528216803	-0.400939419388	-0.1689453125	1.26123046875	0.0439453125	-2.5625	54.9375	147.0
19	03	23	12	24	01	0.484432496247	0.448422017126	-0.408322212409	-0.08203125	1.22607421875	0.0810546875	-13.8125	58.6875	166.8125
19	03	23	12	24	01	0.510128454229	0.440365733101	-0.414975276418	-0.0185546875	1.130859375	0.126953125	-22.5625	62.25	179.9375
19	03	23	12	24	01	0.535644153116	0.432677917211	-0.422790228878	0.0498046875	1.0947265625	0.15234375	-9.875	66.8125	190.4375
19	03	23	12	24	01	0.560720248621	0.425285587503	-0.429985212968	0.0810546875	1.11181640625	0.1630859375	-5.625	72.75	191.6875
19	03	23	12	24	01	0.585994776041	0.416684338718	-0.434018211898	0.1318359375	1.06884765625	0.1708984375	-22.5	77.25	185.0625
19	03	23	12	24	01	0.609571374075	0.409005484898	-0.435678428772	0.14599609375	1.00048828125	0.1669921875	-24.8125	81.875	169.1875
19	03	23	12	24	01	0.631464653656	0.403683280425	-0.435543376038	0.12890625	0.970703125	0.19482421875	-16.375	91.4375	156.5
19	03	23	12	24	01	0.651503323869	0.400277196733	-0.434823841038	0.09521484375	0.98876953125	0.14306640625	-6.3125	95.875	148.8125
19	03	23	12	24	01	0.668154982994	0.39874454224	-0.434389240337	0.1201171875	1.0146484375	0.0791015625	5.4375	89.5	132.0625
19	03	23	12	24	01	0.684896106753	0.397228755258	-0.430799101814	0.18603515625	0.9326171875	0.10791015625	-5.25	99.3125	119.4375
19	03	23	12	24	01	0.700503426673	0.396425002722	-0.426088213087	0.15283203125	0.869140625	0.1416015625	-3.625	100.6875	110.0625
19	03	23	12	24	01	0.713143207229	0.397709785887	-0.422673460293	0.14013671875	0.84033203125	0.20166015625	15.25	92.25	101.0
19	03	23	12	24	01	0.723090641228	0.39960111658	-0.41980395293	0.14990234375	0.7900390625	0.24951171875	18.3125	78.0	89.9375
19	03	23	12	24	01	0.730036174876	0.402707021305	-0.418515011381	0.19580078125	0.75537109375	0.2578125	30.8125	63.0	74.0
19	03	23	12	24	01	0.734327482852	0.407722349385	-0.418342662078	0.2353515625	0.78125	0.25048828125	43.375	54.125	60.625
19	03	23	12	24	01	0.736819138768	0.413514717127	-0.418092370822	0.24169921875	0.8076171875	0.24462890625	44.75	46.0625	45.4375
19	03	23	12	24	01	0.738261238169	0.418323621561	-0.417835353547	0.21044921875	0.73974609375	0.22705078125	36.5625	33.8125	33.3125
19	03	23	12	24	01	0.737133296712	0.425238691578	-0.418646789943	0.2041015625	0.72509765625	0.18408203125	48.4375	24.375	20.125
19	03	23	12	24	01	0.733406379908	0.435124341076	-0.420109530035	0.212890625	0.728515625	0.19970703125	68.4375	18.5	5.9375
19	03	23	12	24	01	0.726643787553	0.447888459728	-0.422985421902	0.15869140625	0.7919921875	0.1796875	88.875	8.1875	-0.75
19	03	23	12	24	01	0.718159311206	0.461438415155	-0.427318828638	0.126953125	0.84912109375	0.14404296875	97.6875	-0.875	1.5
19	03	23	12	24	01	0.708792499305	0.474359364901	-0.434015625812	0.17333984375	0.83984375	0.12548828125	107.4375	-8.75	3.625
19	03	23	12	24	01	0.698265156831	0.487686940828	-0.441664919128	0.21337890625	0.8095703125	0.09814453125	115.625	-12.8125	4.75
19	03	23	12	24	01	0.686652647173	0.50189730824	-0.449040313356	0.23486328125	0.90283203125	0.0078125	120.8125	-12.875	0.3125
19	03	23	12	24	01	0.675624121914	0.514240963694	-0.455217698187	0.21435546875	0.97119140625	-0.0498046875	97.3125	-14.875	0.125
19	03	23	12	24	01	0.667619802091	0.521253712732	-0.460278014954	0.22021484375	0.92578125	-0.015625	60.5625	-22.5625	-0.125
19	03	23	12	24	01	0.660768548655	0.526551844564	-0.464784084427	0.24609375	0.8544921875	0.0029296875	50.0	-23.6875	-2.5625
19	03	23	12	24	01	0.653204669985	0.533513550769	-0.469242898789	0.20654296875	0.81103515625	-0.01220703125	64.0	-17.25	0.25
19	03	23	12	24	01	0.644541274684	0.541756472926	-0.474677792919	0.16845703125	0.802734375	-0.03369140625	79.5625	-14.875	9.0625
19	03	23	12	24	01	0.635575780485	0.55116194159	-0.479809969307	0.20947265625	0.865234375	-0.0771484375	89.0625	-6.1875	10.5
19	03	23	12	24	01	0.627863125376	0.559931594459	-0.483455216886	0.228515625	0.88525390625	-0.115234375	79.5	1.875	8.375
19	03	23	12	24	01	0.621651714945	0.566963454111	-0.485846602942	0.232421875	0.8564453125	-0.1376953125	60.5625	1.75	3.25
19	03	23	12	24	01	0.615370616158	0.573377461633	-0.488109384786	0.22216796875	0.83642578125	-0.2451171875	48.5	-1.25	-0.9375
19	03	23	12	24	01	0.611776172281	0.578266732135	-0.487931629373	0.1435546875	0.78369140625	-0.17529296875	31.5625	6.875	-2.3125
19	03	23	12	24	01	0.608208175696	0.583733366016	-0.488031367071	0.2470703125	0.71728515625	-0.17724609375	40.25	13.625	-3.125
19	03	23	12	24	01	0.602735708797	0.591138768578	-0.487864964093	0.28173828125	0.8095703125	-0.20263671875	52.75	10.25	-13.3125
19	03	23	12	24	01	0.596995005827	0.599253344976	-0.48615327895	0.27392578125	0.919921875	-0.27001953125	46.625	11.0625	-24.625
19	03	23	12	24	01	0.594740311443	0.605543783849	-0.481456442596	0.29248046875	0.9521484375	-0.36865234375	14.75	24.375	-32.0
19	03	23	12	24	01	0.598940807445	0.606570237887	-0.473268829199	0.2666015625	0.95654296875	-0.28857421875	-37.8125	31.25	-35.8125
19	03	23	12	24	01	0.60662524627	0.604366957296	-0.463681657704	0.25341796875	0.86962890625	-0.19384765625	-63.875	33.375	-35.125
19	03	23	12	24	01	0.614207542955	0.601573044158	-0.455940608752	0.36279296875	0.826171875	-0.13525390625	-54.25	33.1875	-26.625
19	03	23	12	24	01	0.618667087184	0.60175994599	-0.449900858291	0.3935546875	0.830078125	-0.1806640625	-25.75	34.875	-23.5625
19	03	23	12	24	01	0.621287049656	0.603891744699	-0.443671830627	0.3408203125	0.8837890625	-0.2490234375	-17.3125	35.125	-27.3125
19	03	23	12	24	01	0.623179966856	0.6065170745	-0.436653230449	0.26123046875	0.94287109375	-0.26318359375	-20.0625	31.375	-33.4375
19	03	23	12	24	01	0.626315989558	0.607088863867	-0.429955153537	0.267578125	0.92041015625	-0.23291015625	-32.875	25.8125	-31.25
19	03	23	12	24	01	0.629767674855	0.606879239298	-0.424382113129	0.31396484375	0.83056640625	-0.1630859375	-29.1875	23.625	-26.4375
19	03	23	12	24	02	0.630925630374	0.608830721001	-0.420047420745	0.29248046875	0.83056640625	-0.13818359375	-5.8125	22.8125	-22.4375
19	03	23	12	24	02	0.629794530251	0.612276500577	-0.417502867505	0.3203125	0.931640625	-0.16455078125	11.5	16.5625	-19.6875
19	03	23	12	24	02	0.629890845884	0.614326682541	-0.413823637121	0.2763671875	0.97607421875	-0.1650390625	-4.5625	13.9375	-23.8125
19	03	23	12	24	02	0.630677883611	0.61474766706	-0.410462476269	0.259765625	0.9794921875	-0.12109375	-14.1875	5.25	-23.375
19	03	23	12	24	02	0.632015197003	0.61419303983	-0.407529258367	0.24365234375	0.8876953125	-0.125	-20.5	3.1875	-20.625
19	03	23	12	24	02	0.632090475479	0.615061386771	-0.405158031695	0.2236328125	0.91064453125	-0.08740234375	-4.875	4.375	-17.75
19	03	23	12	24	02	0.633570384587	0.615625327451	-0.402848221414	0.3681640625	0.90478515625	-0.1162109375	-5.5	17.4375	-13.625
19	03	23	12	24	02	0.63588928544	0.616418304248	-0.398209032272	0.2880859375	0.8994140625	-0.05078125	-9.4375	23.875	-19.875
19	03	23	12	24	02	0.638253723599	0.61701318656	-0.393072007265	0.2939453125	0.92919921875	-0.0322265625	-12.125	21.375	-25.25
19	03	23	12	24	02	0.641388386312	0.617034183215	-0.386493268189	0.27392578125	0.92626953125	-0.06689453125	-25.9375	22.8125	-33.5
19	03	23	12	24	02	0.645999418387	0.616153073377	-0.378175774407	0.25048828125	0.94580078125	-0.05078125	-38.625	28.25	-37.375
19	03	23	12	24	02	0.651581419364	0.614897538049	-0.369097221817	0.2109375	0.85595703125	-0.064453125	-44.6875	36.75	-33.75
19	03	23	12	24	02	0.655100856517	0.61567151213	-0.361211857716	0.18115234375	0.8212890625	-0.06494140625	-25.1875	37.0	-28.75
19	03	23	12	24	02	0.657011571724	0.617642149226	-0.354263764612	0.16796875	0.96533203125	-0.107421875	-15.625	33.5	-27.0
19	03	23	12	24	02	0.660054923262	0.617695193583	-0.347423027853	0.2255859375	1.02685546875	-0.140625	-32.875	28.4375	-30.25
19	03	23	12	24	02	0.664575082272	0.615867246522	-0.339673065103	0.22265625	1.04296875	-0.12158203125	-49.5625	25.75	-34.625
19	03	23	12	24	02	0.669688036658	0.613290684683	-0.330937708235	0.16943359375	0.984375	-0.083984375	-56.8125	25.125	-37.875
19	03	23	12	24	02	0.673789156144	0.611226072074	-0.323435885353	0.19482421875	1.04345703125	-0.07275390625	-48.75	21.6875	-35.5625
19	03	23	12	24	02	0.679891487403	0.607135346548	-0.314890042509	0.1904296875	0.98583984375	-0.0458984375	-65.125	24.8125	-35.25
19	03	23	12	24	02	0.686683222833	0.602144888289	-0.305070466464	0.1318359375	0.875	-0.0439453125	-76.25	25.6875	-39.3125
19	03	23	12	24	02	0.693017321363	0.597188785646	-0.294749043937	0.080078125	0.869140625	-0.00341796875	-75.25	23.125	-42.125
19	03	23	12	24	02	0.69909853789	0.592408801184	-0.285095972628	0.02197265625	0.7861328125	0.0185546875	-69.8125	23.9375	-33.5
19	03	23	12	24	02	0.704550580447	0.588275014671	-0.27570432053	0.00439453125	0.6953125	0.1181640625	-56.625	24.375	-31.75
19	03	23	12	24	02	0.70565451955	0.589500160005	-0.269236405651	0.08154296875	0.97998046875	0.0810546875	-16.5625	27.5	-28.375
19	03	23	12	24	02	0.709552567386	0.587540044186	-0.262946448198	0.12744140625	0.98486328125	0.0693359375	-39.125	28.8125	-19.25
19	03	23	12	24	02	0.712853891541	0.585652289523	-0.256478470096	0.091796875	1.0888671875	0.20068359375	-31.5	23.6875	-23.8125
19	03	23	12	24	02	0.718213912999	0.581126426928	-0.249882532491	0.08056640625	1.09716796875	0.212890625	-50.5	22.5	-17.5
19	03	23	12	24	02	0.72413017661	0.575629778794	-0.242434681515	0.03564453125	1.162109375	0.3515625	-52.3125	21.875	-18.875
19	03	23	12	24	02	0.731517582031	0.56861224816	-0.235538285278	0.14404296875	1.0654296875	0.30517578125	-63.75	25.9375	-13.75
19	03	23	12	24	02	0.735769031679	0.565300105467	-0.228024313758	0.0078125	1.15283203125	0.32763671875	-41.25	26.125	-20.4375
19	03	23	12	24	02	0.740750790006	0.560873352783	-0.220955657533	0.0244140625	1.173828125	0.248046875	-54.25	25.0625	-16.4375
19	03	23	12	24	02	0.746647807454	0.554813093252	-0.21502822085	0.1318359375	0.9287109375	0.2099609375	-60.875	21.9375	-15.25
19	03	23	12	24	02	0.74796314347	0.554654895113	-0.206431479616	-0.017578125	1.12744140625	0.1845703125	-34.8125	28.375	-38.625
19	03	23	12	24	02	0.75314819186	0.549403264035	-0.196847630987	0.00927734375	1.0048828125	0.140625	-72.375	28.8125	-31.8125
19	03	23	12	24	02	0.758497294417	0.542367985691	-0.187442278197	-0.13232421875	0.79052734375	0.2646484375	-71.25	15.5	-29.3125
19	03	23	12	24	02	0.760647734282	0.53920414738	-0.179571949467	-0.1650390625	0.96923828125	0.3212890625	-42.6875	13.375	-31.9375
19	03	23	12	24	02	0.764422350052	0.535046815758	-0.172977717985	0.00634765625	0.7939453125	0.275390625	-46.0625	21.625	-21.0625
19	03	23	12	24	02	0.765587826782	0.534013226223	-0.16406761368	-0.17138671875	0.89453125	0.3642578125	-27.5	24.875	-34.75
19	03	23	12	24	02	0.76794793773	0.532045952407	-0.157532477132	-0.05615234375	1.08447265625	0.3505859375	-35.4375	25.1875	-21.8125
19	03	23	12	24	02	0.772975103518	0.530840530267	-0.152715074937	-1.0029296875	0.0029296875	1.3388671875	-22.4375	47.4375	30.125
19	03	23	12	24	02	0.771453001795	0.535543052279	-0.137883719523	-0.57861328125	1.1484375	0.076171875	-29.8125	49.9375	-36.0
19	03	23	12	24	02	0.773583233316	0.533158398533	-0.131412711167	0.0703125	1.107421875	0.19189453125	-49.125	25.0	-36.25
19	03	23	12	24	02	0.777536754492	0.528082895036	-0.124269160228	0.15625	0.9580078125	0.4013671875	-50.875	28.625	-38.125
19	03	23	12	24	02	0.778463654626	0.52705297614	-0.115115450261	-0.111328125	0.966796875	0.3662109375	-31.625	31.75	-41.9375
19	03	23	12	24	02	0.779568863732	0.525531468582	-0.106021853766	-0.18896484375	1.05126953125	0.3779296875	-36.625	28.4375	-38.625
19	03	23	12	24	02	0.782911840983	0.521493628234	-0.100648758539	0.01611328125	1.033203125	0.40478515625	-45.0625	23.6875	-22.625
19	03	23	12	24	02	0.785296285747	0.518078258466	-0.0941794006613	-0.1083984375	0.919921875	0.4140625	-38.8125	21.375	-25.75
19	03	23	12	24	02	0.78628984309	0.51692972218	-0.0899698205802	-0.14599609375	1.1181640625	0.359375	-29.5	15.75	-19.4375
19	03	23	12	24	02	0.788838634871	0.514295445483	-0.0878318473832	-0.04345703125	0.96923828125	0.34375	-32.875	13.5	-4.5
19	03	23	12	24	02	0.789204030506	0.514050761401	-0.085268215825	-0.11279296875	0.99658203125	0.3310546875	-18.875	11.8125	-14.875
19	03	23	12	24	03	0.790144348788	0.513822721367	-0.0836838858391	-0.1337890625	1.111328125	0.30322265625	-23.5	11.5625	-3.6875
19	03	23	12	24	03	0.792404785071	0.511931823478	-0.084233446572	0.009765625	0.89599609375	0.37841796875	-19.0625	8.3125	6.0625
19	03	23	12	24	03	0.791353201663	0.514242246356	-0.0844761150097	-0.15234375	1.02734375	0.35107421875	2.75	6.125	-1.9375
19	03	23	12	24	03	0.792852414133	0.513919732641	-0.0861822639535	0.0009765625	1.01416015625	0.3369140625	-12.9375	7.5	10.9375
19	03	23	12	24	03	0.792900509808	0.514683379423	-0.0862485312054	-0.1708984375	0.89111328125	0.40087890625	0.25	5.125	5.0
19	03	23	12	24	03	0.792239477192	0.517275005331	-0.087952009756	-0.1357421875	1.11474609375	0.3623046875	5.375	6.125	10.4375
19	03	23	12	24	03	0.794898978433	0.515588702359	-0.0900922131741	0.01171875	0.9169921875	0.44970703125	-11.0625	7.75	20.875
19	03	23	12	24	03	0.793438041801	0.519375667181	-0.0899095496248	-0.2490234375	1.044921875	0.40869140625	15.0625	11.625	9.1875
19	03	23	12	24	03	0.794815484386	0.520640153725	-0.0921038677575	0.0224609375	1.11474609375	0.3544921875	-3.6875	16.9375	23.4375
19	03	23	12	24	03	0.79708269664	0.519547278796	-0.0908231145264	-0.0908203125	0.92578125	0.4375	-14.0	18.5625	12.75
19	03	23	12	24	03	0.796851906205	0.522058548738	-0.0886272667798	-0.28125	0.9423828125	0.39501953125	5.625	19.5	13.125
19	03	23	12	24	03	0.79872912108	0.522353952178	-0.0882593847686	-0.03173828125	0.92724609375	0.400390625	-5.9375	23.0	19.1875
19	03	23	12	24	03	0.79914596079	0.523812009127	-0.0850233195891	-0.27685546875	0.78662109375	0.3603515625	0.0625	21.75	11.8125
19	03	23	12	24	03	0.799094477766	0.526503892852	-0.0837425621368	-0.20654296875	0.958984375	0.31005859375	3.0	20.625	17.4375
19	03	23	12	24	03	0.800796983558	0.526499602147	-0.0833756615503	-0.12939453125	0.919921875	0.29443359375	-13.0625	16.5625	21.875
19	03	23	12	24	03	0.801170120275	0.527969034007	-0.0823997914346	-0.201171875	0.88232421875	0.31982421875	-0.75	15.125	16.9375
19	03	23	12	24	03	0.80030999116	0.531688554988	-0.0845965259112	-0.083984375	1.01025390625	0.27099609375	12.875	12.0625	23.625
19	03	23	12	24	03	0.80057365318	0.532372934053	-0.0844154744089	-0.23046875	0.8896484375	0.35791015625	-0.6875	5.375	14.5625
19	03	23	12	24	03	0.799704010603	0.53486538276	-0.0861229094002	-0.185546875	0.91259765625	0.3798828125	15.5	2.8125	19.4375
19	03	23	12	24	03	0.800636139309	0.534876457175	-0.0866740350552	-0.16015625	0.90087890625	0.39453125	-1.6875	6.5	18.75
19	03	23	12	24	03	0.800443659706	0.536396132492	-0.0856964235342	-0.216796875	0.927734375	0.37353515625	4.1875	11.0625	11.125
19	03	23	12	24	03	0.801576025397	0.536866117368	-0.0847169362104	-0.05224609375	0.99267578125	0.3671875	-5.875	20.5625	12.4375
19	03	23	12	24	03	0.803540591594	0.536141325982	-0.0829480944911	-0.06494140625	1.080078125	0.3388671875	-19.75	22.375	11.1875
19	03	23	12	24	03	0.806057127897	0.534868893818	-0.0829495408762	0.0439453125	1.0361328125	0.41357421875	-15.1875	21.0625	17.6875
19	03	23	12	24	03	0.806665000923	0.536149013931	-0.0830713579189	0.00927734375	0.9267578125	0.37646484375	4.0	20.1875	15.625
19	03	23	12	24	03	0.805429197843	0.540411497249	-0.0820932306077	-0.10546875	1.01123046875	0.330078125	17.0	25.625	15.8125
19	03	23	12	24	03	0.805505967117	0.542497312702	-0.0791650556453	-0.1767578125	0.998046875	0.30224609375	-1.1875	26.9375	12.75
19	03	23	12	24	03	0.807420787803	0.541902158612	-0.073124440867	-0.21337890625	1.00927734375	0.349609375	-21.25	35.375	4.5625
19	03	23	12	24	03	0.810383934628	0.539930427485	-0.0704363230067	-0.091796875	0.9921875	0.39599609375	-22.875	27.875	18.0625
19	03	23	12	24	03	0.812084693148	0.539619749878	-0.0695200650504	-0.0234375	0.912109375	0.38720703125	-7.25	23.5	18.125
19	03	23	12	24	03	0.811808778165	0.541836580735	-0.0686680357471	-0.1298828125	0.80419921875	0.4140625	15.4375	19.75	18.625
19	03	23	12	24	03	0.809336223989	0.54761422335	-0.0672615775894	-0.1884765625	0.93359375	0.3125	29.375	25.75	18.9375
19	03	23	12	24	03	0.810985906716	0.547493307989	-0.0632333408112	-0.15625	0.8623046875	0.251953125	-16.0	32.6875	15.9375
19	03	23	12	24	03	0.815222399458	0.543176410061	-0.0552393135302	-0.26171875	0.89111328125	0.337890625	-45.0625	39.125	5.125
19	03	23	12	24	03	0.821748017632	0.535237938544	-0.0487689717068	-0.201171875	0.890625	0.50244140625	-58.1875	33.5625	12.25
19	03	23	12	24	03	0.826880023649	0.529625597195	-0.0460835917808	-0.05712890625	0.9638671875	0.494140625	-41.6875	28.875	22.6875
19	03	23	12	24	03	0.830434597512	0.526643859415	-0.0467558178386	0.095703125	0.90576171875	0.4482421875	-22.3125	24.375	30.625
19	03	23	12	24	03	0.831408717465	0.52706954521	-0.0465115221135	-0.037109375	0.8935546875	0.40185546875	-2.125	21.5	24.125
19	03	23	12	24	03	0.832407018144	0.527227733006	-0.04394581706	-0.2431640625	0.8857421875	0.41845703125	-4.6875	22.5625	25.0
19	03	23	12	24	03	0.834442977549	0.525654518518	-0.0400405671328	-0.267578125	0.94970703125	0.3662109375	-22.6875	24.75	21.0625
19	03	23	12	24	03	0.838916782901	0.519623004426	-0.0340596307377	-0.32421875	0.8056640625	0.4384765625	-46.25	24.3125	12.75
19	03	23	12	24	03	0.842944099275	0.514067719341	-0.026918055596	-0.40771484375	0.74658203125	0.51708984375	-37.625	26.375	11.4375
19	03	23	12	24	03	0.844567043279	0.512892741539	-0.0217901593157	-0.251953125	0.8876953125	0.48095703125	-14.1875	32.0625	14.5
19	03	23	12	24	03	0.845987609571	0.512048344639	-0.0181283059194	-0.1748046875	0.900390625	0.50732421875	-9.9375	29.125	16.3125
19	03	23	12	24	03	0.847212059188	0.511379152153	-0.0141608932083	-0.19921875	0.80419921875	0.521484375	-4.6875	29.4375	15.3125
19	03	23	12	24	03	0.846843456585	0.513391978761	-0.010986869121	-0.14892578125	0.8935546875	0.4501953125	6.25	30.0625	15.3125
19	03	23	12	24	03	0.847633715752	0.513390018232	-0.00793493073002	-0.0546875	0.908203125	0.4423828125	-7.4375	30.6875	9.8125
19	03	23	12	24	03	0.849841838401	0.511199123508	-0.00543244441698	0.02734375	0.9443359375	0.47412109375	-21.4375	31.9375	11.8125
19	03	23	12	24	03	0.852886542825	0.507837689566	-0.00592070383268	0.1689453125	1.0107421875	0.55419921875	-25.5	26.375	19.75
19	03	23	12	24	03	0.855959623665	0.503968811509	-0.00744631161489	0.10302734375	0.7021484375	0.50537109375	-20.375	13.75	23.125
19	03	23	12	24	04	0.856144381803	0.503847713109	-0.00659182955975	-0.2724609375	0.57275390625	0.470703125	7.125	0.5	13.9375
19	03	23	12	24	04	0.853959650749	0.508066623746	-0.00469979937872	-0.31591796875	0.796875	0.404296875	23.375	10.625	17.0625
19	03	23	12	24	04	0.854225121443	0.508445534949	-0.00219736365644	-0.13232421875	0.9013671875	0.4169921875	-5.6875	21.9375	12.625
19	03	23	12	24	04	0.85704953653	0.504304769661	0.00219740640375	-0.1533203125	0.76904296875	0.4814453125	-28.375	26.0	6.875
19	03	23	12	24	04	0.858458061586	0.502293187485	0.00585978199035	-0.228515625	0.77685546875	0.53515625	-10.6875	18.875	7.75
19	03	23	12	24	04	0.857643025409	0.504172755667	0.00952190676562	-0.2421875	0.83642578125	0.48681640625	10.0	22.5625	10.0
19	03	23	12	24	04	0.856729672597	0.506005199903	0.0144049731215	-0.330078125	0.865234375	0.43359375	5.1875	23.5	7.6875
19	03	23	12	24	04	0.856299391652	0.507285212347	0.0189217201092	-0.29248046875	0.93603515625	0.4482421875	0.0	27.6875	14.125
19	03	23	12	24	04	0.856758145139	0.507084609946	0.0229494238493	-0.2177734375	0.88037109375	0.474609375	-5.9375	27.9375	13.25
19	03	23	12	24	04	0.857185718048	0.506998830314	0.0261251504183	-0.21240234375	0.86279296875	0.51171875	-2.125	26.4375	17.9375
19	03	23	12	24	04	0.856532948456	0.508926938233	0.027649784483	-0.0986328125	0.90771484375	0.529296875	11.375	25.8125	20.375
19	03	23	12	24	04	0.855268161588	0.511927924011	0.0289321373532	-0.060546875	0.93896484375	0.4912109375	15.3125	28.5625	21.9375
19	03	23	12	24	04	0.854417655925	0.514005649417	0.0318010857792	-0.15869140625	0.8515625	0.4697265625	11.25	31.25	22.625
19	03	23	12	24	04	0.853878053324	0.515354378742	0.0353417251322	-0.23681640625	0.83642578125	0.48486328125	8.375	30.1875	22.9375
19	03	23	12	24	04	0.853399396415	0.516849241084	0.0361330598396	-0.08154296875	0.86328125	0.4365234375	5.8125	24.625	26.9375
19	03	23	12	24	04	0.852860935981	0.518198622091	0.0378425377734	-0.134765625	0.78466796875	0.4404296875	8.375	24.6875	24.0625
19	03	23	12	24	04	0.851932202009	0.520021662209	0.0400392265739	-0.203125	0.794921875	0.3974609375	9.0	22.6875	23.4375
19	03	23	12	24	04	0.850522211298	0.522618858414	0.0413236354994	-0.15380859375	0.80712890625	0.3779296875	13.5	19.1875	21.9375
19	03	23	12	24	04	0.848952259605	0.525216348688	0.0433356894327	-0.2158203125	0.83984375	0.390625	14.3125	15.375	14.375
19	03	23	12	24	04	0.84793442108	0.526937651684	0.0448016027262	-0.2021484375	0.861328125	0.36767578125	6.75	12.6875	15.1875
19	03	23	12	24	04	0.848058204013	0.526816637313	0.0460224475188	-0.1708984375	0.83935546875	0.4052734375	-2.5625	12.125	13.5625
19	03	23	12	24	04	0.847785120043	0.527409015284	0.0465701977388	-0.11328125	0.83837890625	0.42041015625	3.125	12.75	14.875
19	03	23	12	24	04	0.846849853518	0.529021744302	0.047365971337	-0.109375	0.86376953125	0.3857421875	7.5625	13.9375	14.5625
19	03	23	12	24	04	0.846352387499	0.529809514171	0.049013483857	-0.16162109375	0.8525390625	0.40185546875	3.3125	15.375	12.625
19	03	23	12	24	04	0.846715664196	0.529258327872	0.0501730302746	-0.14794921875	0.83154296875	0.41943359375	-3.8125	13.9375	15.1875
19	03	23	12	24	04	0.846362615083	0.529876955253	0.050845237153	-0.12744140625	0.83935546875	0.42236328125	3.8125	12.25	15.5
19	03	23	12	24	04	0.845314482317	0.531579451693	0.0512108347653	-0.1533203125	0.82666015625	0.400390625	11.25	7.0	13.4375
19	03	23	12	24	04	0.844186902384	0.533392331714	0.05145322527	-0.1884765625	0.82080078125	0.3896484375	11.625	4.0625	13.8125
19	03	23	12	24	04	0.843231525267	0.534870637417	0.0521869673618	-0.20751953125	0.82568359375	0.39111328125	9.75	5.5625	13.3125
19	03	23	12	24	04	0.841843193487	0.536955813015	0.0535918158267	-0.1943359375	0.8349609375	0.3828125	13.5	10.3125	12.0625
19	03	23	12	24	04	0.840295297305	0.539200163899	0.0556046354213	-0.2109375	0.80419921875	0.3935546875	16.5625	11.875	9.9375
19	03	23	12	24	04	0.838039630291	0.542558941999	0.0571307424583	-0.24169921875	0.78466796875	0.40185546875	25.9375	8.1875	11.75
19	03	23	12	24	04	0.834570276006	0.547814541589	0.0578638646715	-0.2548828125	0.837890625	0.39404296875	38.125	3.5	13.5625
19	03	23	12	24	04	0.83054365888	0.553919578477	0.057863995636	-0.19384765625	0.8544921875	0.37109375	42.3125	4.6875	17.0625
19	03	23	12	24	04	0.826664504608	0.559695326879	0.057983703439	-0.15673828125	0.8857421875	0.396484375	41.75	8.5625	17.375
19	03	23	12	24	04	0.847785120043	0.527409015284	0.0465701977388	-0.11328125	0.83837890625	0.42041015625	3.125	12.75	14.875
19	03	23	12	24	04	0.846849853518	0.529021744302	0.047365971337	-0.109375	0.86376953125	0.3857421875	7.5625	13.9375	14.5625
19	03	23	12	24	04	0.823492224738	0.564254845859	0.0589647534725	-0.17138671875	0.86962890625	0.390625	34.6875	12.625	15.9375
19	03	23	12	24	04	0.82040184555	0.568745212174	0.0589009583331	-0.22607421875	0.72900390625	0.435546875	42.0625	-1.375	12.4375
19	03	23	12	24	04	0.812949943313	0.579300841804	0.0593278282829	-0.19580078125	0.7275390625	0.3603515625	81.9375	-5.3125	-1.0
19	03	23	12	24	04	0.806456763111	0.588178729135	0.0600020434558	-0.12744140625	0.9443359375	0.34619140625	68.1875	-17.25	-29.4375
19	03	23	12	24	04	0.801240204808	0.594872174606	0.0623803983632	-0.03662109375	0.9775390625	0.306640625	52.0	-9.625	-45.25
19	03	23	12	24	04	0.798893621359	0.597171303489	0.0665897273208	-0.19921875	1.0244140625	0.3076171875	22.4375	-18.1875	-61.1875
19	03	23	12	24	04	0.798756602808	0.596412254779	0.0691572085421	-0.267578125	1.02294921875	0.3330078125	3.1875	-30.375	-56.8125
19	03	23	12	24	04	0.798672556288	0.595662627193	0.0692162536363	-0.189453125	0.9111328125	0.33984375	5.875	-38.6875	-51.4375
19	03	23	12	24	04	0.796192514596	0.598059970716	0.0679974287995	-0.16357421875	0.88818359375	0.2998046875	26.875	-42.0	-47.75
19	03	23	12	24	04	0.79033392636	0.604958259511	0.0655559651614	-0.2001953125	1.04931640625	0.20703125	50.8125	-41.3125	-37.1875
19	03	23	12	24	04	0.783475184684	0.613913478307	0.0604879953274	-0.07177734375	1.3798828125	0.1826171875	56.6875	-27.625	-11.625
19	03	23	12	24	04	0.782624262957	0.615930544181	0.0531637601806	0.10009765625	1.15185546875	0.14306640625	5.3125	-20.8125	15.125
19	03	23	12	24	04	0.782701787954	0.616920141219	0.0466947569043	0.09228515625	1.01416015625	0.1865234375	0.875	-7.4375	27.5625
19	03	23	12	24	04	0.780555152096	0.62033015411	0.0437032756413	-0.04541015625	0.94873046875	0.185546875	20.375	5.6875	24.125
19	03	23	12	24	04	0.78006242987	0.621242207451	0.0439471791476	-0.1767578125	0.9482421875	0.1845703125	2.3125	11.4375	15.375
19	03	23	12	24	04	0.781902906039	0.618991207662	0.0464502819279	-0.17529296875	0.828125	0.224609375	-15.9375	18.75	6.25
19	03	23	12	24	05	0.783107163513	0.61708600336	0.0519426497388	-0.21826171875	0.80224609375	0.2431640625	-11.5625	24.625	-10.5
19	03	23	12	24	05	0.782809825597	0.61666492538	0.059756009299	-0.35302734375	0.88623046875	0.25146484375	-0.625	28.6875	-18.75
19	03	23	12	24	05	0.782884952775	0.615638362209	0.0676921419482	-0.4501953125	0.99267578125	0.26611328125	-5.4375	27.25	-16.0
19	03	23	12	24	05	0.784854543328	0.612368429366	0.0742801134793	-0.4560546875	0.9736328125	0.287109375	-21.0	24.1875	-5.75
19	03	23	12	24	05	0.787574829318	0.608366916516	0.0791664383186	-0.38916015625	0.92333984375	0.31494140625	-24.875	21.25	0.9375
19	03	23	12	24	05	0.790115914234	0.604748434008	0.0828874014315	-0.31689453125	0.89697265625	0.322265625	-21.6875	20.0	3.5625
19	03	23	12	24	05	0.792266011121	0.601646076396	0.0862459070658	-0.29052734375	0.8876953125	0.314453125	-18.9375	19.375	3.5625
19	03	23	12	24	05	0.794306859682	0.598736339554	0.0890566132541	-0.25439453125	0.88720703125	0.30859375	-18.5	18.4375	3.6875
19	03	23	12	24	05	0.796492750777	0.595675741806	0.0913747910118	-0.20068359375	0.880859375	0.30322265625	-20.1875	17.0	2.5625
19	03	23	12	24	05	0.798315069368	0.593105553104	0.0933269929707	-0.17236328125	0.880859375	0.279296875	-18.5	15.625	1.25
19	03	23	12	24	05	0.799535804112	0.591396473474	0.0947919004341	-0.158203125	0.90576171875	0.24365234375	-15.5	13.4375	1.75
19	03	23	12	24	05	0.800938108341	0.589503143603	0.095890395382	-0.15576171875	0.91162109375	0.21875	-19.0625	11.9375	4.25
19	03	23	12	24	05	0.802416697257	0.587559951909	0.0966244965585	-0.169921875	0.86572265625	0.21142578125	-19.75	11.0	8.0
19	03	23	12	24	05	0.803179480998	0.58662193114	0.0970480564471	-0.1826171875	0.8505859375	0.21923828125	-11.5	9.75	10.75
19	03	23	12	24	05	0.803130216698	0.586813642145	0.0971715538063	-0.21044921875	0.86181640625	0.22509765625	-3.125	7.25	12.4375
19	03	23	12	24	05	0.802813532589	0.587415603865	0.096803943031	-0.22265625	0.8583984375	0.24267578125	1.25	3.75	13.0625
19	03	23	12	24	05	0.802421044166	0.588173526669	0.0959535890331	-0.22265625	0.86572265625	0.26513671875	4.0	0.5	13.5
19	03	23	12	24	05	0.80209083264	0.588887630569	0.0947908882954	-0.22607421875	0.8623046875	0.2939453125	5.6875	-0.875	14.375
19	03	23	12	24	05	0.802039085222	0.589260679508	0.0933270746807	-0.2197265625	0.86865234375	0.3369140625	5.9375	-1.9375	15.0625
19	03	23	12	24	05	0.801960283404	0.589674883778	0.09186012836	-0.20361328125	0.8916015625	0.37255859375	7.9375	-0.4375	14.875
19	03	23	12	24	05	0.80197234643	0.589866866269	0.0909459468895	-0.2177734375	0.93115234375	0.39208984375	7.3125	1.25	13.0
19	03	23	12	24	05	0.802650830155	0.589017529353	0.0908246718837	-0.25048828125	0.96630859375	0.40234375	0.1875	3.25	11.125
19	03	23	12	24	05	0.804296450771	0.586757363684	0.0911906274153	-0.26611328125	0.9814453125	0.40869140625	-9.9375	4.0625	8.6875
19	03	23	12	24	05	0.806543892963	0.583514425361	0.092349092633	-0.263671875	0.96337890625	0.4208984375	-15.8125	6.0625	4.1875
19	03	23	12	24	05	0.808810838925	0.580102498917	0.0940591278231	-0.267578125	0.95556640625	0.43701171875	-15.4375	6.8125	-0.6875
19	03	23	12	24	05	0.810657483896	0.577183733734	0.0961362500667	-0.25244140625	0.95068359375	0.44970703125	-11.875	8.875	-2.8125
19	03	23	12	24	05	0.812130851673	0.574748147264	0.09833467133	-0.2353515625	0.931640625	0.44140625	-8.75	10.5	-3.5625
19	03	23	12	24	05	0.81314740419	0.572963119887	0.100468445226	-0.2138671875	0.9228515625	0.42626953125	-5.4375	12.125	-3.375
19	03	23	12	24	05	0.813805432577	0.571671917911	0.102664121923	-0.18701171875	0.89208984375	0.39306640625	-3.875	13.8125	-2.8125
19	03	23	12	24	05	0.814259301661	0.570591900444	0.105231112149	-0.1884765625	0.853515625	0.36328125	-3.25	15.375	-3.5625
19	03	23	12	24	05	0.814438494982	0.569856688088	0.107977343748	-0.1826171875	0.83935546875	0.32958984375	-2.75	16.75	-4.0625
19	03	23	12	24	05	0.814831309489	0.56879497926	0.110780436459	-0.18212890625	0.85302734375	0.31787109375	-6.6875	17.25	-3.625
19	03	23	12	24	05	0.815650667674	0.567103970168	0.113591700407	-0.18310546875	0.87353515625	0.29833984375	-12.6875	17.3125	-3.6875
19	03	23	12	24	05	0.816933392251	0.564785167252	0.116094389724	-0.18212890625	0.8896484375	0.2841796875	-18.875	16.0	-2.6875
19	03	23	12	24	05	0.818520185112	0.562099357546	0.118108617315	-0.1884765625	0.89111328125	0.29150390625	-21.5	13.3125	-1.125
19	03	23	12	24	05	0.819675159298	0.560203932686	0.119267649212	-0.17431640625	0.9013671875	0.31201171875	-15.875	11.375	2.75
19	03	23	12	24	05	0.820165963378	0.559412149614	0.119756316153	-0.15576171875	0.90234375	0.3232421875	-7.875	9.8125	5.6875
19	03	23	12	24	05	0.820148407827	0.559461212037	0.119753752784	-0.1318359375	0.87841796875	0.326171875	-1.8125	8.8125	6.875
19	03	23	12	24	05	0.819736280975	0.560142952383	0.119450774525	-0.11865234375	0.869140625	0.33984375	4.0	8.25	8.125
19	03	23	12	24	05	0.81902971232	0.561320407997	0.118783113741	-0.10791015625	0.90087890625	0.32763671875	5.5	7.25	9.375
19	03	23	12	24	05	0.81888859477	0.561673587438	0.11804789373	-0.1044921875	0.90380859375	0.3291015625	-0.1875	6.375	8.5
19	03	23	12	24	05	0.819126367861	0.561425061966	0.117497634734	-0.11279296875	0.90185546875	0.3349609375	-3.125	6.25	7.875
19	03	23	12	24	05	0.819322142804	0.56118958362	0.117133218509	-0.12646484375	0.888671875	0.33642578125	-3.3125	6.875	8.3125
19	03	23	12	24	05	0.819236195138	0.561294594732	0.117068620345	-0.15234375	0.896484375	0.3486328125	0.5625	7.4375	9.0
19	03	23	12	24	05	0.818694764932	0.562032460709	0.117130787587	-0.18017578125	0.9189453125	0.34619140625	4.3125	7.125	9.875
19	03	23	12	24	05	0.818453370255	0.562339540619	0.117131181857	-0.201171875	0.9384765625	0.35888671875	1.5625	6.125	10.8125
19	03	23	12	24	05	0.818626423174	0.562027445913	0.117190779339	-0.20068359375	0.92138671875	0.38720703125	-0.25	6.125	9.5625
19	03	23	12	24	05	0.81853056433	0.56204544641	0.117560765615	-0.20166015625	0.921875	0.4072265625	3.8125	6.75	7.875
19	03	23	12	24	05	0.818464141844	0.561980711012	0.118109338091	-0.18896484375	0.94091796875	0.4208984375	3.8125	7.875	5.9375
19	03	23	12	24	06	0.818909665117	0.561138681531	0.118783408491	-0.17919921875	0.91552734375	0.42529296875	-0.6875	8.375	4.5625
19	03	23	12	24	06	0.819384135478	0.560213617061	0.119574904753	-0.162109375	0.90625	0.41943359375	-1.625	10.375	4.4375
19	03	23	12	24	06	0.819630347148	0.559543594899	0.120612866098	-0.15283203125	0.91015625	0.388671875	-2.25	12.4375	5.125
19	03	23	12	24	06	0.819821759773	0.558938861904	0.121590718894	-0.134765625	0.91943359375	0.35546875	-4.1875	13.5	5.8125
19	03	23	12	24	06	0.819852229183	0.558551797889	0.122562781134	-0.1337890625	0.92724609375	0.33544921875	-4.6875	13.8125	6.6875
19	03	23	12	24	06	0.819732135188	0.558370035197	0.123478638085	-0.1337890625	0.93212890625	0.314453125	-4.625	14.1875	7.9375
19	03	23	12	24	06	0.819458154492	0.558391299612	0.124337896514	-0.123046875	0.90478515625	0.306640625	-3.125	14.625	9.75
19	03	23	12	24	06	0.818698219193	0.559105024067	0.125310329084	-0.13671875	0.884765625	0.30615234375	2.4375	14.1875	9.375
19	03	23	12	24	06	0.81765641921	0.560261889514	0.126103177224	-0.130859375	0.89111328125	0.31005859375	6.0	13.25	9.6875
19	03	23	12	24	06	0.81681932886	0.561189426808	0.126594177855	-0.13037109375	0.90869140625	0.32470703125	4.6875	11.0	8.875
19	03	23	12	24	06	0.816686967129	0.561182359924	0.126714659474	-0.12060546875	0.90185546875	0.3369140625	-0.6875	8.6875	7.8125
19	03	23	12	24	06	0.817008785396	0.560583390742	0.12653412119	-0.10986328125	0.8740234375	0.3544921875	-2.875	6.75	7.625
19	03	23	12	24	06	0.81718944423	0.560215470507	0.126228545762	-0.11083984375	0.8408203125	0.36865234375	-0.125	6.4375	8.125
19	03	23	12	24	06	0.816669446486	0.5608651378	0.125857428898	-0.11279296875	0.86865234375	0.35888671875	5.75	6.375	10.0625
19	03	23	12	24	06	0.816080837215	0.56161254923	0.125372478657	-0.1171875	0.90869140625	0.34716796875	4.5625	6.0625	11.4375
19	03	23	12	24	06	0.815949061893	0.561666911097	0.124943726039	-0.12744140625	0.91455078125	0.34423828125	-0.1875	6.1875	11.9375
19	03	23	12	24	06	0.815921389671	0.561506760199	0.124521555692	-0.11767578125	0.91552734375	0.34033203125	-2.375	7.5625	13.4375
19	03	23	12	24	06	0.815879287073	0.561355712068	0.12402683559	-0.1005859375	0.9150390625	0.3359375	-2.75	8.125	13.6875
19	03	23	12	24	06	0.815535709151	0.561676490952	0.123236778443	-0.0712890625	0.92041015625	0.3447265625	0.75	7.875	13.5625
19	03	23	12	24	06	0.815037311972	0.562218878198	0.122746950826	-0.0888671875	0.9306640625	0.3505859375	3.125	6.625	11.25
19	03	23	12	24	06	0.814811948885	0.562414959699	0.122322506972	-0.10595703125	0.91259765625	0.373046875	2.875	4.625	9.1875
19	03	23	12	24	06	0.814315157127	0.563019489494	0.12183292509	-0.10693359375	0.88525390625	0.3935546875	8.1875	4.4375	10.0625
19	03	23	12	24	06	0.813336211749	0.564238644759	0.121649461164	-0.115234375	0.88134765625	0.40771484375	13.3125	5.8125	10.8125
19	03	23	12	24	06	0.812233140882	0.565578438672	0.121648805123	-0.1259765625	0.88330078125	0.4267578125	16.25	6.5625	11.3125
19	03	23	12	24	06	0.811026985184	0.566992523924	0.12189515236	-0.1279296875	0.88134765625	0.42724609375	17.125	8.125	11.4375
19	03	23	12	24	06	0.810251536316	0.567755916446	0.12225490224	-0.1162109375	0.8876953125	0.42626953125	12.625	8.75	9.625
19	03	23	12	24	06	0.809808501569	0.567970762576	0.122994205974	-0.11669921875	0.87744140625	0.40869140625	8.375	10.25	7.375
19	03	23	12	24	06	0.809568156932	0.56785135821	0.124032458334	-0.12548828125	0.86962890625	0.3935546875	5.75	10.4375	5.8125
19	03	23	12	24	06	0.809119189701	0.568019250103	0.125127816754	-0.1435546875	0.8857421875	0.3603515625	5.0625	9.8125	7.125
19	03	23	12	24	06	0.808709336033	0.568153558744	0.125924021453	-0.1552734375	0.90771484375	0.33447265625	2.8125	8.875	9.625
19	03	23	12	24	06	0.8083137031	0.568316007669	0.126346701308	-0.14990234375	0.90673828125	0.31591796875	0.9375	7.625	11.4375
19	03	23	12	24	06	0.807895715568	0.56856668106	0.126348151347	-0.1181640625	0.90185546875	0.32275390625	1.8125	6.875	11.9375
19	03	23	12	24	06	0.806958368107	0.569649984838	0.126100596665	-0.10693359375	0.91015625	0.33544921875	8.4375	5.0	11.3125
19	03	23	12	24	06	0.805632466798	0.571309939331	0.125675979175	-0.07763671875	0.8935546875	0.3466796875	13.6875	5.0625	11.0625
19	03	23	12	24	06	0.804265684496	0.573045404224	0.125193451647	-0.07470703125	0.89599609375	0.3583984375	15.0625	4.3125	11.0625
19	03	23	12	24	06	0.803088512064	0.574558954477	0.124641387979	-0.0810546875	0.89208984375	0.36181640625	13.875	3.0	10.3125
19	03	23	12	24	06	0.802278499604	0.575523734995	0.124211560156	-0.09619140625	0.88623046875	0.37548828125	12.0625	3.25	10.375
19	03	23	12	24	06	0.801858329857	0.576017131678	0.12390746819	-0.12158203125	0.87060546875	0.3798828125	9.0625	1.3125	8.875
19	03	23	12	24	06	0.801667696291	0.576255879449	0.123540080501	-0.138671875	0.845703125	0.3759765625	8.25	-0.4375	8.5625
19	03	23	12	24	06	0.801265155344	0.576823015007	0.123055576535	-0.14892578125	0.841796875	0.38037109375	10.4375	-1.5625	9.8125
19	03	23	12	24	06	0.800745636458	0.577594020718	0.122623521888	-0.1630859375	0.85986328125	0.3642578125	11.0625	-2.875	9.25
19	03	23	12	24	06	0.80039389706	0.578214854484	0.122442626211	-0.17919921875	0.88232421875	0.35693359375	9.125	-4.375	5.6875
19	03	23	12	24	06	0.800148592078	0.578702326759	0.12268660234	-0.20751953125	0.91015625	0.34765625	7.9375	-5.1875	2.9375
19	03	23	12	24	06	0.800264123923	0.578636556692	0.123173899937	-0.20947265625	0.92578125	0.34814453125	4.1875	-4.25	1.625
19	03	23	12	24	06	0.800397830343	0.578461849932	0.123847113381	-0.19775390625	0.93310546875	0.349609375	3.3125	-2.0	0.8125
19	03	23	12	24	06	0.800252161099	0.578505833491	0.124820049535	-0.1806640625	0.96435546875	0.33984375	3.9375	1.875	1.25
19	03	23	12	24	06	0.800391457797	0.578029978292	0.125982457782	-0.16259765625	0.96484375	0.32958984375	-0.625	4.75	1.4375
19	03	23	12	24	06	0.801055211923	0.576742662105	0.127140963611	-0.14111328125	0.92578125	0.341796875	-4.625	6.9375	1.5
19	03	23	12	24	06	0.801304468033	0.575952845853	0.12848460582	-0.12548828125	0.90625	0.337890625	-1.25	8.75	0.9375
19	03	23	12	24	06	0.801317060545	0.575473586747	0.130073633152	-0.1240234375	0.92236328125	0.314453125	-0.4375	8.8125	-0.3125
19	03	23	12	24	07	0.801817433797	0.574322490454	0.131601582465	-0.12548828125	0.89404296875	0.3115234375	-5.0625	8.6875	-1.375
19	03	23	12	24	07	0.802087063016	0.573503541899	0.13287752349	-0.1142578125	0.8671875	0.30712890625	-2.9375	8.8125	0.5625
19	03	23	12	24	07	0.801803218409	0.573396729121	0.134345986885	-0.130859375	0.88916015625	0.287109375	0.4375	8.875	1.875
19	03	23	12	24	07	0.801605432765	0.573264160857	0.135625315739	-0.150390625	0.92724609375	0.265625	-1.6875	6.875	2.0625
19	03	23	12	24	07	0.801812984032	0.572671240575	0.136484000632	-0.1533203125	0.93359375	0.25830078125	-6.4375	4.375	2.8125
19	03	23	12	24	07	0.802218898073	0.571862501411	0.136846592824	-0.1572265625	0.9287109375	0.26611328125	-8.0	3.25	5.25
19	03	23	12	24	07	0.802375372264	0.571416266175	0.137147228167	-0.15185546875	0.91357421875	0.2568359375	-5.875	2.6875	6.125
19	03	23	12	24	07	0.802327234007	0.57136441518	0.137271506221	-0.15185546875	0.90625	0.27001953125	-2.25	0.9375	5.6875
19	03	23	12	24	07	0.801960522418	0.571852358211	0.137149348799	-0.14892578125	0.92041015625	0.26416015625	0.75	-0.8125	5.625
19	03	23	12	24	07	0.801879051608	0.572003394429	0.1368510949	-0.140625	0.9052734375	0.263671875	-1.375	-2.3125	5.0625
19	03	23	12	24	07	0.80186702945	0.57217793515	0.136238654924	-0.1416015625	0.892578125	0.29052734375	0.375	-4.0625	4.9375
19	03	23	12	24	07	0.801778345912	0.572463391162	0.135562553766	-0.1328125	0.884765625	0.30712890625	2.625	-4.0625	5.375
19	03	23	12	24	07	0.80191468637	0.572412538345	0.135015625381	-0.130859375	0.8603515625	0.3251953125	2.1875	-3.5625	4.25
19	03	23	12	24	07	0.802039043389	0.572353128604	0.134527705603	-0.1162109375	0.85498046875	0.361328125	4.375	-2.375	3.3125
19	03	23	12	24	07	0.801844444553	0.572650116373	0.134281630358	-0.11474609375	0.91357421875	0.36083984375	5.9375	-0.8125	3.625
19	03	23	12	24	07	0.802533134281	0.571746871677	0.133918291498	-0.13330078125	0.943359375	0.359375	-3.5	-1.5625	3.0
19	03	23	12	24	07	0.803797941842	0.570025740669	0.133671310854	-0.154296875	0.931640625	0.36767578125	-8.5	-2.0625	2.625
19	03	23	12	24	07	0.804851246325	0.568510883382	0.133734952275	-0.18212890625	0.93505859375	0.3623046875	-7.4375	-1.375	4.125
19	03	23	12	24	07	0.805699539093	0.567285720934	0.133733915921	-0.177734375	0.9296875	0.36669921875	-5.0	-0.625	4.75
19	03	23	12	24	07	0.806026894882	0.566813006125	0.133859672887	-0.16357421875	0.9052734375	0.37451171875	1.25	-1.1875	3.25
19	03	23	12	24	07	0.805768547249	0.567230293886	0.134223546353	-0.17822265625	0.9287109375	0.3662109375	6.9375	-2.25	1.125
19	03	23	12	24	07	0.806138114744	0.566805370903	0.134651372842	-0.18505859375	0.93212890625	0.3779296875	2.0	-3.25	-1.4375
19	03	23	12	24	07	0.807251389294	0.56541169142	0.134959003533	-0.18017578125	0.912109375	0.388671875	-4.0	-4.75	-4.0
19	03	23	12	24	07	0.808509185127	0.56386893041	0.135260180752	-0.1796875	0.8984375	0.396484375	-4.375	-5.625	-6.25
19	03	23	12	24	07	0.809739885285	0.56234988415	0.135567034918	-0.17919921875	0.8486328125	0.39794921875	-2.625	-5.6875	-6.0625
19	03	23	12	24	07	0.810304425535	0.561688988608	0.136118935514	-0.185546875	0.81884765625	0.40283203125	3.9375	-4.125	-4.6875
19	03	23	12	24	07	0.810149782736	0.562032637643	0.136784876299	-0.19287109375	0.84326171875	0.39453125	10.3125	-3.875	-3.5
19	03	23	12	24	07	0.810034135898	0.562342287245	0.137457378799	-0.212890625	0.8583984375	0.37109375	7.75	-4.5625	-3.5625
19	03	23	12	24	07	0.81039812008	0.561974504148	0.138006337991	-0.21044921875	0.85546875	0.38232421875	4.3125	-4.9375	-3.8125
19	03	23	12	24	07	0.81059573529	0.561801441838	0.138314001217	-0.19384765625	0.87646484375	0.38037109375	4.0	-3.625	-1.5
19	03	23	12	24	07	0.810752602748	0.56160014288	0.138492633865	-0.1591796875	0.880859375	0.38427734375	3.9375	-0.875	-0.125
19	03	23	12	24	07	0.810361043667	0.562113200598	0.138620814264	-0.12109375	0.92333984375	0.375	6.875	1.375	0.625
19	03	23	12	24	07	0.809814412294	0.562786529083	0.138804399906	-0.109375	0.9775390625	0.34033203125	4.4375	2.625	1.25
19	03	23	12	24	07	0.810275371408	0.56209611264	0.138433487183	-0.06640625	0.94921875	0.3291015625	-5.875	2.125	-0.25
19	03	23	12	24	07	0.81093680547	0.561112603694	0.138065561792	-0.02880859375	0.8720703125	0.330078125	-6.1875	2.6875	-2.0625
19	03	23	12	24	07	0.810471468408	0.561677846987	0.138130511599	-0.015625	0.86279296875	0.32666015625	5.25	4.375	-3.125
19	03	23	12	24	07	0.809285556377	0.56324663355	0.138492263928	-0.03515625	0.88623046875	0.29296875	9.875	4.5	-3.0
19	03	23	12	24	07	0.808515659953	0.564239676929	0.138862534078	-0.064453125	0.88623046875	0.27294921875	5.0625	3.0625	-2.6875
19	03	23	12	24	07	0.808012830054	0.564839910056	0.139104187921	-0.0654296875	0.8759765625	0.26025390625	1.3125	2.9375	-1.375
19	03	23	12	24	07	0.807303886708	0.565649865275	0.139474473093	-0.0927734375	0.86376953125	0.24462890625	2.5	3.875	1.6875
19	03	23	12	24	07	0.806186577353	0.566979642416	0.139959556471	-0.12646484375	0.8994140625	0.23291015625	4.625	4.25	4.875
19	03	23	12	24	07	0.804853577759	0.56863460719	0.140083343012	-0.1259765625	0.943359375	0.2412109375	6.0625	3.9375	7.6875
19	03	23	12	24	07	0.803673536674	0.570146161318	0.139957729141	-0.11669921875	0.94921875	0.263671875	6.5	2.5625	7.6875
19	03	23	12	24	07	0.802245707014	0.572003691732	0.139842114796	-0.107421875	0.96142578125	0.29345703125	11.125	3.1875	6.9375
19	03	23	12	24	07	0.800533126088	0.574198636455	0.139841509102	-0.08984375	0.9921875	0.3115234375	14.5625	4.1875	6.125
19	03	23	12	24	07	0.799465869417	0.575520207874	0.139775297066	-0.0732421875	0.97119140625	0.32275390625	9.875	4.3125	4.25
19	03	23	12	24	07	0.798606581621	0.576432326263	0.139957573499	-0.046875	0.93115234375	0.33837890625	9.125	6.875	2.6875
19	03	23	12	24	07	0.797429296406	0.577684542345	0.140697682809	-0.05126953125	0.90185546875	0.3203125	11.875	8.4375	1.1875
19	03	23	12	24	07	0.795807714159	0.579490599649	0.141912328227	-0.09375	0.89013671875	0.2978515625	15.625	8.5625	1.3125
19	03	23	12	24	07	0.793784173978	0.581864246869	0.142948291846	-0.11962890625	0.86865234375	0.2734375	18.6875	7.1875	4.6875
19	03	23	12	24	08	0.791414299762	0.584862858269	0.143133312737	-0.140625	0.8828125	0.25634765625	20.875	3.4375	10.6875
19	03	23	12	24	08	0.788775980465	0.588514896204	0.142093204559	-0.1611328125	0.8994140625	0.24853515625	23.875	-3.1875	16.5625
19	03	23	12	24	08	0.786245694014	0.592385254282	0.139596607578	-0.16455078125	0.89990234375	0.2578125	25.1875	-11.0	20.8125
19	03	23	12	24	08	0.783186650121	0.597324024479	0.13593302703	-0.18896484375	0.916015625	0.27001953125	32.9375	-20.0625	24.1875
19	03	23	12	24	08	0.779591929475	0.603616081317	0.130684804338	-0.28662109375	0.9365234375	0.28076171875	42.6875	-36.5625	27.8125
19	03	23	12	24	08	0.77640856363	0.61001786045	0.122015779772	-0.208984375	0.91552734375	0.310546875	43.1875	-52.6875	33.0625
19	03	23	12	24	08	0.773660098568	0.616059280067	0.111333808267	-0.1064453125	0.94189453125	0.33203125	41.0	-61.125	32.25
19	03	23	12	24	08	0.771225515434	0.62174144046	0.0999205515445	-0.04052734375	1.03857421875	0.341796875	38.8125	-67.875	25.25
19	03	23	12	24	08	0.769875377201	0.626252388019	0.0875288425359	0.00732421875	1.056640625	0.2939453125	27.5	-80.0625	14.9375
19	03	23	12	24	08	0.769879369905	0.629246525358	0.0734904274451	0.0224609375	0.9912109375	0.234375	13.0	-95.75	8.375
19	03	23	12	24	08	0.769452456888	0.632603939647	0.0585970457411	0.0595703125	0.92626953125	0.20068359375	15.0	-107.6875	4.3125
19	03	23	12	24	08	0.768052038958	0.636696401364	0.0438869439729	0.091796875	0.87060546875	0.1220703125	21.3125	-112.5	-3.1875
19	03	23	12	24	08	0.766075348383	0.640888467693	0.0297250175016	0.0791015625	0.916015625	0.05615234375	22.8125	-114.0	-9.6875
19	03	23	12	24	08	0.764191566031	0.6443746296	0.0155035669147	0.05712890625	0.96826171875	0.00146484375	18.9375	-118.6875	-15.0
19	03	23	12	24	08	0.763841731829	0.645365081559	0.00146493539747	0.0322265625	1.00341796875	-0.02685546875	1.8125	-122.875	-21.25
19	03	23	12	24	08	0.764972366252	0.643875647618	-0.0117800739397	0.048828125	0.98291015625	-0.001953125	-13.875	-120.8125	-26.5
19	03	23	12	24	08	0.766012507792	0.641802511508	-0.0233771147796	0.0537109375	0.931640625	0.01611328125	-16.1875	-115.5	-34.9375
19	03	23	12	24	08	0.76621171944	0.640167968891	-0.0329605933639	0.04150390625	0.935546875	0.04833984375	-10.75	-105.75	-40.9375
19	03	23	12	24	08	0.765045068677	0.639856985395	-0.0402848049567	0.04736328125	0.982421875	0.0498046875	-6.6875	-89.0625	-46.6875
19	03	23	12	24	08	0.764193338338	0.638943759243	-0.0451679768666	0.02783203125	0.99462890625	0.05908203125	-11.5625	-76.75	-52.25
19	03	23	12	24	08	0.764677730693	0.63607172985	-0.048402733113	0.033203125	1.0048828125	0.04443359375	-26.6875	-72.0625	-61.25
19	03	23	12	24	08	0.767182680289	0.630519300452	-0.0491353375473	0.0556640625	0.91650390625	0.0908203125	-44.25	-61.5625	-71.3125
19	03	23	12	24	08	0.767323484923	0.627543771259	-0.0475495183164	0.0263671875	0.91748046875	0.1240234375	-23.75	-51.4375	-82.5625
19	03	23	12	24	08	0.765494649759	0.626630099228	-0.0435821050895	-0.119140625	0.93896484375	0.12841796875	-9.9375	-43.5	-86.4375
19	03	23	12	24	08	0.763159009424	0.626555805146	-0.0383319089753	-0.18994140625	0.9052734375	0.1279296875	-4.4375	-29.3125	-77.5625
19	03	23	12	24	08	0.758449685291	0.629966135674	-0.0325328892854	-0.13427734375	0.90966796875	0.07177734375	16.25	-11.1875	-72.0625
19	03	23	12	24	08	0.752043759445	0.635156834737	-0.0244150234379	-0.2431640625	0.9326171875	0.0224609375	25.0	-1.875	-77.875
19	03	23	12	24	08	0.744966289106	0.641385150833	-0.0159308645192	-0.33056640625	1.27197265625	-0.05810546875	22.9375	6.3125	-71.5625
19	03	23	12	24	08	0.743456394184	0.643291210041	-0.0118415878877	-0.5556640625	1.71337890625	-0.10205078125	-18.8125	11.875	-3.9375
19	03	23	12	24	08	0.758509801374	0.627279731932	-0.00817899037451	-0.34765625	0.87548828125	0.06591796875	-129.5	21.4375	31.625
19	03	23	12	24	08	0.764964519218	0.622079181351	-0.0064087827749	-0.0458984375	0.5341796875	0.19384765625	-42.6875	39.3125	38.125
19	03	23	12	24	08	0.761938066314	0.627776416891	-0.00256359839664	-0.19580078125	0.8291015625	0.154296875	30.5625	48.375	18.0625
19	03	23	12	24	08	0.762645556499	0.62800001047	0.00311283900612	-0.37548828125	0.9970703125	0.1669921875	-10.375	37.3125	10.375
19	03	23	12	24	08	0.769452789432	0.62009129683	0.00830125173432	-0.24951171875	0.8037109375	0.23388671875	-60.9375	22.0	1.1875
19	03	23	12	24	08	0.775586677465	0.612559053674	0.0117799818014	-0.1875	0.62548828125	0.33447265625	-46.8125	13.125	-0.1875
19	03	23	12	24	08	0.777130909711	0.610803409793	0.0135503504521	-0.17724609375	0.7099609375	0.3251953125	-5.9375	11.1875	1.0625
19	03	23	12	24	08	0.775845925825	0.612754090894	0.0146489672094	-0.22509765625	0.81982421875	0.26904296875	15.75	11.4375	4.1875
19	03	23	12	24	08	0.775071922827	0.613929232933	0.0162363467847	-0.318359375	0.8798828125	0.21875	5.6875	9.375	6.625
19	03	23	12	24	08	0.776219644278	0.612760006991	0.0177620442309	-0.3056640625	0.88623046875	0.205078125	-12.5625	7.75	8.6875
19	03	23	12	24	08	0.778413163627	0.61025443503	0.0195320483306	-0.34130859375	0.8564453125	0.23779296875	-19.875	8.1875	11.8125
19	03	23	12	24	08	0.781441036787	0.606817682397	0.0222780581447	-0.3837890625	0.845703125	0.21923828125	-29.5625	13.0	15.5625
19	03	23	12	24	08	0.785383051744	0.602145317902	0.0260634618089	-0.3857421875	0.814453125	0.26025390625	-36.625	17.9375	13.875
19	03	23	12	24	08	0.789525726766	0.596951032685	0.0310683103923	-0.3515625	0.7578125	0.29150390625	-37.9375	22.25	6.3125
19	03	23	12	24	08	0.792589343787	0.592870257697	0.0364401877736	-0.2822265625	0.74853515625	0.291015625	-30.0625	23.4375	-4.3125
19	03	23	12	24	08	0.794711850802	0.589808034892	0.0435809724633	-0.259765625	0.779296875	0.26806640625	-25.8125	32.4375	-13.5625
19	03	23	12	24	08	0.796723333964	0.586509960627	0.0528585311586	-0.2685546875	0.828125	0.22216796875	-32.9375	39.6875	-23.9375
19	03	23	12	24	08	0.800315635226	0.580155591277	0.063539397214	-0.3408203125	0.78369140625	0.20947265625	-52.9375	34.0	-34.8125
19	03	23	12	24	08	0.804967251411	0.571558488187	0.0745272227762	-0.37060546875	0.6845703125	0.24560546875	-63.0625	27.0	-41.1875
19	03	23	12	24	08	0.806768308003	0.56726468865	0.0827642476662	-0.224609375	0.74462890625	0.26220703125	-32.8125	25.875	-40.0625
19	03	23	12	24	08	0.805209070416	0.567528345719	0.091129255771	-0.13427734375	0.83154296875	0.16796875	-8.625	31.6875	-50.3125
19	03	23	12	24	09	0.804096309332	0.566969076771	0.0994286388266	-0.03955078125	0.88037109375	0.1943359375	-13.3125	32.5625	-59.5
19	03	23	12	24	09	0.803867232771	0.565270648648	0.105412202809	0.06884765625	0.935546875	0.265625	-16.125	22.75	-63.625
19	03	23	12	24	09	0.804631459515	0.562546163775	0.108041092652	0.10888671875	1.0771484375	0.33837890625	-20.0625	6.625	-62.0
19	03	23	12	24	09	0.807014685592	0.557683647123	0.108948813627	0.025390625	1.11767578125	0.35107421875	-34.625	-6.625	-53.875
19	03	23	12	24	09	0.810515687224	0.551289832593	0.109012803478	-0.1435546875	1.08154296875	0.39111328125	-42.3125	-15.4375	-39.875
19	03	23	12	24	09	0.81296142363	0.546287614798	0.108952334348	-0.4326171875	1.05322265625	0.44287109375	-29.875	-21.5	-22.9375
19	03	23	12	24	09	0.814186220005	0.544092957878	0.106938620395	-0.72607421875	1.00634765625	0.48876953125	-8.875	-27.25	12.75
19	03	23	12	24	09	0.816008982138	0.542622473724	0.102786979275	-0.548828125	0.8251953125	0.51123046875	-1.0625	-19.6875	32.75
19	03	23	12	24	09	0.814782314916	0.546158675097	0.0953397240167	-0.22509765625	0.87158203125	0.44921875	30.3125	-22.5	22.0
19	03	23	12	24	09	0.812055103456	0.547514602977	0.0986991207372	-0.7705078125	0.5263671875	0.36328125	22.5625	-14.25	-10.5
19	03	23	12	24	09	0.805212226314	0.55135552155	0.114140908369	-1.6025390625	0.36083984375	0.26513671875	36.25	14.3125	-13.5
19	03	23	12	24	09	0.802128785089	0.55267662068	0.123657960629	-1.25341796875	0.50830078125	0.31298828125	13.5	14.1875	11.75
19	03	23	12	24	09	0.80411269296	0.549157575418	0.126226282757	-0.6953125	0.61865234375	0.37890625	-18.5625	-0.6875	13.8125
19	03	23	12	24	09	0.805051944498	0.546995870098	0.125671110972	-0.37353515625	0.85302734375	0.58642578125	1.625	-6.6875	-13.5625
19	03	23	12	24	09	0.806854008112	0.547139672344	0.114872474716	0.35986328125	1.314453125	0.60009765625	7.0625	-20.8125	-16.6875
19	03	23	12	24	09	0.806923072281	0.549647675181	0.102788082732	0.40380859375	1.4677734375	0.4384765625	11.8125	-28.6875	-20.8125
19	03	23	12	24	09	0.805371100793	0.5543296959	0.0933241692393	-0.07373046875	1.181640625	0.47509765625	33.6875	-20.8125	15.3125
19	03	23	12	24	09	0.801861571259	0.561126088497	0.0869797319817	-0.0537109375	1.0537109375	0.31396484375	41.125	-6.625	7.0
19	03	23	12	24	09	0.797697991387	0.56697655842	0.0827667362706	-0.0546875	1.154296875	0.45068359375	45.625	-8.25	-22.3125
19	03	23	12	24	09	0.79562726924	0.567651216259	0.0841100404306	-0.34521484375	0.6904296875	0.345703125	15.6875	-11.5	-30.0
19	03	23	12	24	09	0.788643218661	0.572149333003	0.0943613045468	-1.19091796875	0.45458984375	0.23583984375	40.625	0.0625	-26.0625
19	03	23	12	24	09	0.784952154044	0.572050667784	0.107427355452	-1.52880859375	0.18603515625	0.2109375	9.0625	6.625	3.0625
19	03	23	12	24	09	0.783125823026	0.569429524786	0.119635745373	-1.216796875	-0.072265625	0.2001953125	-2.875	8.1875	-2.5625
19	03	23	12	24	09	0.777311172952	0.572530726525	0.127568146955	-1.0009765625	0.33740234375	0.29248046875	38.125	4.625	-19.9375
19	03	23	12	24	09	0.777258892289	0.570400844075	0.132086401988	-0.74951171875	0.75244140625	0.31201171875	-11.625	1.5	-10.5625
19	03	23	12	24	09	0.783934441511	0.563414732917	0.130004699503	0.201171875	1.11328125	0.19384765625	-68.125	0.6875	-18.1875
19	03	23	12	24	09	0.788359667632	0.558309529253	0.126042328403	0.41455078125	1.39599609375	0.3203125	-47.75	-6.25	-51.8125
19	03	23	12	24	09	0.789515693567	0.554156395972	0.13055849003	-0.23291015625	0.345703125	0.2021484375	-22.5	3.3125	-30.375
19	03	23	12	24	09	0.783295695659	0.562461609561	0.131108794068	-0.99462890625	0.79052734375	0.244140625	52.625	-0.0625	24.1875
19	03	23	12	24	09	0.774276829098	0.57663328376	0.124885328525	-0.21875	1.32275390625	0.140625	80.0625	1.3125	-6.0625
19	03	23	12	24	09	0.773036065839	0.580036457455	0.121219867884	0.00390625	1.04541015625	0.35205078125	20.9375	8.3125	-9.5
19	03	23	12	24	09	0.769974021339	0.581493658446	0.129336103941	-0.42138671875	0.36328125	0.2265625	13.8125	31.5625	-26.9375
19	03	23	12	24	09	0.761457688255	0.588290917788	0.135689013306	-0.84814453125	0.73974609375	0.22705078125	54.375	10.3125	-35.375
19	03	23	12	24	09	0.75649662506	0.590658208868	0.139836515089	-0.921875	0.82861328125	0.2568359375	26.9375	-8.6875	-27.0625
19	03	23	12	24	09	0.761222050347	0.582010444235	0.14582306778	-0.8447265625	0.55322265625	0.40576171875	-47.5	-0.3125	-3.3125
19	03	23	12	24	09	0.762108727215	0.578265103447	0.152043315673	-0.79541015625	0.2353515625	0.42431640625	-7.0	12.6875	3.625
19	03	23	12	24	09	0.759364041266	0.580341878013	0.155522833948	-0.80126953125	0.46240234375	0.3935546875	28.0	14.8125	8.3125
19	03	23	12	24	09	0.757900325449	0.581197301999	0.157781456172	-0.63037109375	0.671875	0.33740234375	12.125	9.1875	-3.0
19	03	23	12	24	09	0.760416960824	0.577118507352	0.160897343774	-0.6015625	0.75146484375	0.279296875	-30.0	4.8125	-4.125
19	03	23	12	24	09	0.765037418743	0.57081777087	0.163823235352	-0.60400390625	0.7099609375	0.2607421875	-48.6875	1.5625	4.5625
19	03	23	12	24	09	0.768775616158	0.566678270775	0.165474449814	-0.55078125	0.6591796875	0.2275390625	-37.1875	5.125	15.9375
19	03	23	12	24	09	0.770290552909	0.566120830288	0.165655194976	-0.5498046875	0.671875	0.203125	-14.0625	6.125	22.375
19	03	23	12	24	09	0.768724473195	0.570836213539	0.165293463031	-0.43212890625	0.78076171875	-0.046875	2.125	14.875	25.0
19	03	23	12	24	09	0.767967868658	0.56984168032	0.173528266618	-0.37890625	0.69580078125	0.080078125	-23.625	34.375	-29.1875
19	03	23	12	24	09	0.768232377757	0.565889271746	0.182871778465	-0.5654296875	0.80517578125	0.21337890625	-34.4375	26.9375	-41.25
19	03	23	12	24	09	0.775246927564	0.555875424716	0.186777072541	-0.64111328125	0.98046875	0.39892578125	-74.25	4.8125	-6.8125
