19	02	10	17	58	53	0.0468722959352	-0.180348482407	-0.457981391533	0.27685546875	0.5078125	0.51318359375	-6.875	8.125	-18.125
19	02	10	17	58	53	0.0443709835276	-0.178460461946	-0.454512674457	0.26806640625	0.63037109375	0.53125	-19.6875	2.875	-13.625
19	02	10	17	58	53	0.0401602114595	-0.178096500059	-0.445668486439	0.29150390625	0.6923828125	0.501953125	-60.3125	-3.25	-12.6875
19	02	10	17	58	53	0.0321030675048	-0.177299260649	-0.431255275644	0.2685546875	0.52685546875	0.4892578125	-95.0625	-6.75	-31.25
19	02	10	17	58	53	0.0227037403515	-0.174977482763	-0.417272776299	0.23681640625	0.412109375	0.62548828125	-83.3125	-5.9375	-43.0625
19	02	10	17	58	53	0.0148308105775	-0.171256191277	-0.404154846272	0.15576171875	0.40185546875	0.638671875	-75.9375	1.0625	-35.8125
19	02	10	17	58	53	0.00549294290494	-0.167351660504	-0.386825245905	0.06396484375	0.51611328125	0.56494140625	-116.9375	5.75	-38.75
19	02	10	17	58	53	-0.00665258413345	-0.162286433127	-0.3683944755	0.1376953125	0.47509765625	0.7109375	-123.1875	6.375	-56.0
19	02	10	17	58	53	-0.0202625660277	-0.156119409334	-0.352763950723	0.2822265625	0.3642578125	0.8486328125	-104.6875	8.875	-71.1875
19	02	10	17	58	53	-0.0336890923928	-0.148610398508	-0.339393193472	0.25146484375	0.41162109375	0.86083984375	-77.625	13.1875	-77.5625
19	02	10	17	58	53	-0.0504751298243	-0.139157552599	-0.328118860865	0.1787109375	0.51318359375	0.7548828125	-79.25	16.8125	-96.9375
19	02	10	17	58	53	-0.072935371044	-0.128293012497	-0.317375673162	0.25244140625	0.427734375	0.82958984375	-82.5	16.375	-132.1875
19	02	10	17	58	53	-0.0963683798316	-0.115715293325	-0.310038866083	0.38330078125	0.380859375	0.8896484375	-61.25	25.8125	-145.6875
19	02	10	17	58	53	-0.121518209136	-0.0996070905625	-0.308708740236	0.21630859375	0.5966796875	1.00048828125	-29.4375	41.875	-164.5625
19	02	10	17	58	53	-0.153376591055	-0.0879489326346	-0.309194512649	-0.091796875	0.630859375	1.19580078125	-13.25	1.5625	-193.0
19	02	10	17	58	53	-0.185540554499	-0.0838594479872	-0.307423609542	0.1123046875	0.96337890625	1.01611328125	-23.25	-38.1875	-183.3125
19	02	10	17	58	53	-0.213796126037	-0.0834921782524	-0.302048823224	0.3115234375	1.09326171875	0.8818359375	-41.375	-51.5	-156.1875
19	02	10	17	58	53	-0.241572332976	-0.0811141057415	-0.302545238646	0.2294921875	1.107421875	0.7626953125	-9.1875	-34.6875	-162.4375
19	02	10	17	58	53	-0.261096580393	-0.0820885695719	-0.313584439004	0.14013671875	1.34912109375	0.8232421875	56.5625	-25.6875	-120.875
19	02	10	17	58	53	-0.268600506737	-0.0895335022457	-0.331157998081	0.11083984375	1.720703125	0.84130859375	102.25	-28.75	-49.5
19	02	10	17	58	53	-0.267750646748	-0.103145336905	-0.346177722442	-0.0810546875	1.6279296875	0.93994140625	70.875	-53.1875	15.5
19	02	10	17	58	53	-0.265362597975	-0.116752219394	-0.346594800805	-0.21826171875	1.1240234375	1.10009765625	21.25	-78.3125	49.25
19	02	10	17	58	54	-0.264510826237	-0.140006422563	-0.342509173244	-0.11376953125	1.1005859375	1.095703125	17.0	-127.375	53.8125
19	02	10	17	58	54	-0.264015852082	-0.174484817638	-0.337373932111	0.21826171875	1.1220703125	0.96435546875	32.125	-185.375	68.1875
19	02	10	17	58	54	-0.261453836424	-0.218488500093	-0.330112932123	0.66552734375	1.11279296875	0.8369140625	41.25	-231.25	91.875
19	02	10	17	58	54	-0.255537787134	-0.266706503409	-0.325296490428	0.791015625	1.107421875	0.7216796875	70.5	-246.75	108.25
19	02	10	17	58	54	-0.245900556269	-0.313097506493	-0.320177294164	0.67138671875	0.955078125	0.5	73.3125	-234.3125	124.8125
19	02	10	17	58	54	-0.2330811007	-0.357952515214	-0.31132408868	0.7685546875	0.8701171875	0.32568359375	57.875	-225.0	143.75
19	02	10	17	58	54	-0.21824550717	-0.400605008127	-0.301918491043	1.08984375	0.74462890625	0.2685546875	59.75	-211.0	145.9375
19	02	10	17	58	54	-0.200126253383	-0.437055230397	-0.29637483575	1.2568359375	0.6201171875	0.24462890625	79.0625	-170.875	140.125
19	02	10	17	58	54	-0.17949135418	-0.464199673543	-0.297768893928	1.1396484375	0.41650390625	0.29443359375	108.0	-113.6875	119.875
19	02	10	17	58	54	-0.157894433571	-0.484547316629	-0.305901391982	1.0537109375	0.25341796875	0.32763671875	136.6875	-75.125	94.625
19	02	10	17	58	54	-0.138971999566	-0.497479476709	-0.317127145256	0.96435546875	0.12548828125	0.36328125	134.8125	-39.8125	61.6875
19	02	10	17	58	54	-0.124992339179	-0.503692273069	-0.329996864229	0.865234375	0.14208984375	0.3076171875	118.625	-11.875	24.9375
19	02	10	17	58	54	-0.11608327993	-0.505835028424	-0.340681844675	0.86669921875	0.177734375	0.203125	89.9375	7.6875	-20.5625
19	02	10	17	58	54	-0.113521435307	-0.501691504423	-0.352221614602	0.87646484375	0.32861328125	0.1376953125	61.3125	33.9375	-56.0
19	02	10	17	58	54	-0.107114008588	-0.49125963255	-0.370474092381	0.9111328125	0.29345703125	0.0244140625	91.25	83.75	-74.6875
19	02	10	17	58	54	-0.0914852796206	-0.473111332634	-0.397860265408	0.67724609375	0.26806640625	0.16748046875	156.875	131.5	-51.25
19	02	10	17	58	54	-0.0627414773257	-0.452495440557	-0.431561270593	0.25	0.29345703125	0.1845703125	225.6875	166.6875	-11.0625
19	02	10	17	58	54	-0.0360699349631	-0.428139752566	-0.463050078791	-0.2275390625	0.76708984375	0.11083984375	206.625	176.875	-12.875
19	02	10	17	58	54	-0.023802889621	-0.402818132048	-0.487043741476	-0.36181640625	1.03564453125	-0.18994140625	127.5625	148.625	-55.75
19	02	10	17	58	54	-0.0265494692556	-0.379993093299	-0.497054891074	-0.26611328125	0.94287109375	-0.36962890625	12.5625	109.5	-85.5625
19	02	10	17	58	54	-0.0346650645709	-0.357025753063	-0.493366869702	-0.2822265625	0.65380859375	-0.2685546875	-80.625	108.0625	-81.75
19	02	10	17	58	54	-0.0418073445039	-0.33690006082	-0.481425304302	-0.54736328125	0.31884765625	-0.3388671875	-123.4375	101.375	-51.375
19	02	10	17	58	54	-0.0413188452143	-0.323471018664	-0.479469494835	-0.63427734375	-0.2421875	-0.4384765625	-47.6875	76.3125	-2.5
19	02	10	17	58	54	-0.0310650321465	-0.317607912161	-0.481477482522	-0.72998046875	0.38330078125	0.18408203125	24.625	35.625	81.5
19	02	10	17	58	54	-0.0311258865474	-0.316995793583	-0.474151005072	-0.2666015625	0.88720703125	0.3994140625	-46.375	-10.1875	57.6875
19	02	10	17	58	54	-0.0415018624026	-0.313461125441	-0.457863193742	0.5947265625	1.03076171875	-0.02685546875	-130.8125	8.0	-26.5625
19	02	10	17	58	54	-0.0530985740745	-0.301197083974	-0.420943523439	0.22705078125	0.39990234375	-0.07958984375	-264.375	63.125	-15.3125
19	02	10	17	58	54	-0.0488872854558	-0.291187564182	-0.389938660146	-0.55615234375	0.12451171875	0.373046875	-188.3125	73.5625	63.25
19	02	10	17	58	54	-0.052610725226	-0.270926924917	-0.372120175989	-0.5625	-0.13525390625	0.76611328125	-90.3125	65.8125	-7.4375
19	02	10	17	58	54	-0.0616414153291	-0.247664221193	-0.365637345779	-0.2861328125	0.38916015625	0.900390625	-46.5	73.25	-58.1875
19	02	10	17	58	54	-0.0734206725169	-0.225998961205	-0.353554410549	0.13671875	0.27880859375	1.22412109375	-61.3125	70.75	-85.0
19	02	10	17	58	54	-0.0891085533544	-0.207635135967	-0.34099279972	0.474609375	0.3447265625	1.4150390625	-97.375	65.625	-102.8125
19	02	10	17	58	54	-0.108697722916	-0.186635393979	-0.32255332151	0.91162109375	0.40771484375	1.2822265625	-139.1875	77.9375	-125.0625
19	02	10	17	58	54	-0.134208336888	-0.164418944783	-0.305340750092	0.99365234375	0.3056640625	1.26416015625	-134.875	74.3125	-163.375
19	02	10	17	58	54	-0.1618581189	-0.143304247051	-0.292406579054	0.8974609375	0.72607421875	1.3818359375	-112.75	65.0	-176.6875
19	02	10	17	58	54	-0.187981766596	-0.127009758535	-0.274587651921	0.5341796875	0.86328125	1.36376953125	-135.3125	33.5	-152.8125
19	02	10	17	58	54	-0.21592548093	-0.11565256822	-0.252482677956	0.36328125	1.1259765625	1.32177734375	-158.125	-2.75	-150.875
19	02	10	17	58	54	-0.238268911058	-0.108087664315	-0.231860551514	0.353515625	1.1708984375	1.1240234375	-144.125	-13.3125	-117.5625
19	02	10	17	58	54	-0.257801691081	-0.101985470122	-0.21318686244	0.29248046875	1.259765625	0.984375	-132.375	-15.25	-102.1875
19	02	10	17	58	54	-0.271839831971	-0.100276794775	-0.206351700021	0.109375	1.07177734375	0.9716796875	-82.4375	-17.25	-74.625
19	02	10	17	58	54	-0.283674235332	-0.0997864403546	-0.205370869598	-0.0634765625	1.0361328125	0.94140625	-45.5	-23.0625	-61.4375
19	02	10	17	58	54	-0.293509720535	-0.098813108244	-0.203485424883	-0.14208984375	0.82080078125	0.87353515625	-39.875	-23.625	-48.75
19	02	10	17	58	54	-0.307356188489	-0.0925242219519	-0.200550523307	-0.2666015625	0.42041015625	0.82177734375	-32.4375	-9.0	-75.375
19	02	10	17	58	54	-0.322548213563	-0.0881285942071	-0.201768097264	-0.2744140625	0.56884765625	0.91015625	-12.75	-13.8125	-85.375
19	02	10	17	58	54	-0.334818139661	-0.0870917763938	-0.204943367295	0.00537109375	0.33837890625	0.9306640625	21.0625	-6.75	-76.6875
19	02	10	17	58	54	-0.3449492726	-0.0895330118372	-0.205858792725	0.19921875	0.67138671875	0.87158203125	-6.25	-13.625	-63.75
19	02	10	17	58	54	-0.357041114594	-0.0932579184786	-0.207205911803	0.3759765625	0.6083984375	0.865234375	3.4375	-10.9375	-81.0625
19	02	10	17	58	54	-0.367602413253	-0.0971036758235	-0.206108807829	0.49072265625	0.4765625	0.9130859375	0.5	-7.4375	-73.125
19	02	10	17	58	54	-0.379926857613	-0.0996049207429	-0.204702759909	0.294921875	0.3798828125	1.00732421875	4.875	-16.5625	-79.375
19	02	10	17	58	54	-0.38854035239	-0.101071759905	-0.20507313604	0.0546875	0.28271484375	0.88671875	14.625	-17.0	-52.5
19	02	10	17	58	55	-0.395364228167	-0.0990546684649	-0.205860379995	-0.177734375	0.30224609375	0.80029296875	4.9375	-9.8125	-38.625
19	02	10	17	58	55	-0.399525635625	-0.0942968388391	-0.208368548736	-0.251953125	0.33544921875	0.77783203125	5.0	8.0625	-24.8125
19	02	10	17	58	55	-0.399335864043	-0.0912436369775	-0.212454247705	-0.205078125	0.458984375	0.7626953125	9.9375	12.375	0.0
19	02	10	17	58	55	-0.396025954585	-0.0899587389518	-0.215986415977	-0.15771484375	0.75634765625	0.775390625	-6.9375	9.625	19.6875
19	02	10	17	58	55	-0.393667315704	-0.0865457757626	-0.214960664482	-0.10302734375	0.63134765625	0.794921875	-28.125	13.125	14.5
19	02	10	17	58	55	-0.391395789183	-0.0817213412937	-0.210192904716	-0.13623046875	0.509765625	0.896484375	-42.125	10.5625	17.625
19	02	10	17	58	55	-0.389072546378	-0.0775093543372	-0.207566389056	-0.16357421875	0.29541015625	0.86865234375	-16.25	10.375	17.0
19	02	10	17	58	55	-0.384574243197	-0.0739730174187	-0.210200554447	-0.244140625	0.39453125	0.72802734375	2.625	16.25	27.625
19	02	10	17	58	55	-0.379425721434	-0.0663399966541	-0.215742307426	-0.45654296875	0.50830078125	0.68701171875	1.375	31.25	30.75
19	02	10	17	58	55	-0.373585454485	-0.057188297803	-0.221185049347	-0.5576171875	0.57470703125	0.60791015625	-9.0	34.5	35.1875
19	02	10	17	58	55	-0.366005944085	-0.0498017092502	-0.222581903965	-0.38330078125	0.5986328125	0.796875	-23.125	31.5	44.8125
19	02	10	17	58	55	-0.360204469265	-0.0457121564688	-0.220809855947	-0.19384765625	0.53271484375	1.02490234375	-22.625	18.75	34.6875
19	02	10	17	58	55	-0.356118795606	-0.0427220491729	-0.216173568815	-0.033203125	0.43359375	1.0791015625	-28.3125	15.5	23.0625
19	02	10	17	58	55	-0.350330639895	-0.0417467173673	-0.214409675601	0.04833984375	0.43505859375	0.95166015625	-12.75	17.3125	31.125
19	02	10	17	58	55	-0.345147450498	-0.0409538354171	-0.214351520097	0.01953125	0.41015625	0.919921875	-2.3125	17.125	27.4375
19	02	10	17	58	55	-0.340184709918	-0.0399140294737	-0.213851313877	-0.05224609375	0.34228515625	0.85693359375	-2.5625	11.9375	28.6875
19	02	10	17	58	55	-0.335257535104	-0.0378408286482	-0.216058924862	-0.1416015625	0.26220703125	0.79052734375	13.625	16.625	28.0625
19	02	10	17	58	55	-0.329319018045	-0.0330783743106	-0.217633732088	-0.28662109375	0.27001953125	0.7880859375	4.25	22.4375	35.625
19	02	10	17	58	55	-0.321761889844	-0.0294785646423	-0.218495365258	-0.3466796875	0.369140625	0.755859375	-5.0	13.0625	48.0625
19	02	10	17	58	55	-0.315715023766	-0.0266096559756	-0.214830250078	-0.3154296875	0.466796875	0.81396484375	-33.5625	1.3125	40.75
19	02	10	17	58	55	-0.307347606938	-0.0244120418537	-0.204694970943	-0.15966796875	0.47998046875	0.9169921875	-68.0	-0.875	54.4375
19	02	10	17	58	55	-0.297295645946	-0.0247797233123	-0.193660251403	0.05078125	0.41455078125	0.98046875	-64.25	-0.625	61.875
19	02	10	17	58	55	-0.286857320768	-0.0249626902541	-0.184992455159	0.0849609375	0.400390625	1.0244140625	-50.5625	6.4375	61.6875
19	02	10	17	58	55	-0.278734274055	-0.0253283826872	-0.177420743306	0.083984375	0.34619140625	1.12353515625	-38.5625	4.5	48.3125
19	02	10	17	58	55	-0.272622479124	-0.0288063152332	-0.172166557781	0.150390625	0.25048828125	1.07568359375	-15.5	-7.8125	37.125
19	02	10	17	58	55	-0.270429281411	-0.03454366357	-0.170460163164	0.287109375	0.24853515625	1.11083984375	9.75	-10.4375	11.5625
19	02	10	17	58	55	-0.273111428242	-0.0363741701078	-0.168566204426	0.2666015625	0.18505859375	0.94921875	2.6875	3.6875	-19.875
19	02	10	17	58	55	-0.274700921605	-0.0389378333669	-0.172168695812	0.12841796875	0.19677734375	0.92431640625	33.875	-0.125	-12.25
19	02	10	17	58	55	-0.273118909507	-0.0387554206786	-0.178213902963	-0.10546875	0.408203125	0.84326171875	27.75	6.375	8.0625
19	02	10	17	58	55	-0.270988335775	-0.03808484719	-0.182428859376	-0.224609375	0.46728515625	0.8349609375	13.1875	-0.9375	14.1875
19	02	10	17	58	55	-0.271038521836	-0.0379612611083	-0.183520116001	-0.0830078125	0.42529296875	0.90185546875	1.5	-1.125	0.3125
19	02	10	17	58	55	-0.272078227657	-0.037778470821	-0.182606114211	0.01708984375	0.35107421875	0.94921875	-3.8125	1.375	-6.75
19	02	10	17	58	55	-0.270319080886	-0.0368034332296	-0.183956132262	-0.08251953125	0.392578125	0.88818359375	2.75	5.5	9.6875
19	02	10	17	58	55	-0.266042111461	-0.036680731587	-0.186211168173	-0.13427734375	0.5244140625	0.83642578125	-0.3125	1.9375	26.3125
19	02	10	17	58	55	-0.263167642538	-0.0355813394247	-0.185657692161	-0.05322265625	0.41064453125	0.875	-8.8125	6.75	16.4375
19	02	10	17	58	55	-0.261837899427	-0.0329586167111	-0.185605839664	-0.07470703125	0.31689453125	0.92041015625	-1.5625	12.875	6.0625
19	02	10	17	58	55	-0.258895147388	-0.0314921961463	-0.188037706059	-0.06640625	0.3359375	0.9306640625	13.5625	13.25	15.25
19	02	10	17	58	55	-0.254320560379	-0.0302108657037	-0.19133548279	-0.14794921875	0.46484375	0.904296875	9.8125	9.6875	26.5625
19	02	10	17	58	55	-0.24894687538	-0.0294171105499	-0.194323817409	-0.13232421875	0.48974609375	0.8720703125	7.0	8.6875	31.1875
19	02	10	17	58	55	-0.24424862507	-0.0279524913249	-0.198352831454	-0.09765625	0.4296875	0.8974609375	16.75	15.1875	25.0
19	02	10	17	58	55	-0.23748340979	-0.0267329050341	-0.202999182976	-0.07080078125	0.44482421875	0.92724609375	21.0	19.5	36.375
19	02	10	17	58	55	-0.229359288398	-0.0249011680858	-0.207509734048	-0.08984375	0.45263671875	0.927734375	19.5	22.8125	43.625
19	02	10	17	58	55	-0.223010967384	-0.0225208119772	-0.209950117078	-0.1728515625	0.3701171875	0.88623046875	11.75	16.0625	36.4375
19	02	10	17	58	55	-0.214831677657	-0.0238634051034	-0.209766044349	0.03466796875	0.39453125	0.859375	-1.1875	7.4375	46.5
19	02	10	17	58	55	-0.207630751788	-0.0243517548393	-0.211109573907	0.06884765625	0.34521484375	0.8681640625	10.4375	15.0	38.3125
19	02	10	17	58	55	-0.199271637719	-0.0230093131455	-0.21562839083	-0.06103515625	0.4267578125	0.8779296875	22.1875	21.375	44.8125
19	02	10	17	58	55	-0.190049710189	-0.0216659110845	-0.221968784829	-0.197265625	0.54052734375	0.87109375	25.9375	16.1875	52.9375
19	02	10	17	58	55	-0.179863353737	-0.0234365550849	-0.226675431212	-0.099609375	0.60302734375	0.873046875	16.875	4.375	59.9375
19	02	10	17	58	55	-0.17003845187	-0.0262442693124	-0.228752375309	0.1162109375	0.47119140625	0.90380859375	12.9375	8.5	53.8125
19	02	10	17	58	55	-0.160582681922	-0.0270994719778	-0.231016895126	0.0830078125	0.37841796875	0.94775390625	19.5625	17.125	50.3125
19	02	10	17	58	56	-0.148917814247	-0.028746020701	-0.238451598469	-0.0087890625	0.4873046875	0.9111328125	43.625	13.375	65.0
19	02	10	17	58	56	-0.135739952201	-0.0311274170964	-0.247188312236	-0.060546875	0.6435546875	0.8671875	42.3125	8.875	75.6875
19	02	10	17	58	56	-0.121393074364	-0.0346052655427	-0.253283689598	0.05322265625	0.5654296875	0.8876953125	34.5625	8.9375	81.1875
19	02	10	17	58	56	-0.108762620569	-0.0376579892767	-0.257746659182	0.091796875	0.52734375	0.92578125	29.625	9.5	70.5
19	02	10	17	58	56	-0.0969791504196	-0.0402808302561	-0.263717375055	0.0458984375	0.48486328125	0.92236328125	41.5625	7.5625	66.3125
19	02	10	17	58	56	-0.0844098251254	-0.0430288696409	-0.271356531097	0.02587890625	0.5205078125	0.83935546875	48.125	7.375	71.0
19	02	10	17	58	56	-0.0716534571358	-0.0456531396402	-0.277763955217	0.04833984375	0.4951171875	0.8154296875	42.375	8.5	72.0
19	02	10	17	58	56	-0.0606666706555	-0.0486431956865	-0.281361520847	0.12744140625	0.43994140625	0.85546875	31.3125	6.375	60.5
19	02	10	17	58	56	-0.0507195494781	-0.0524895457896	-0.283382512909	0.2001953125	0.40283203125	0.87353515625	25.5	3.0	54.5625
19	02	10	17	58	56	-0.0405870620635	-0.0560894887765	-0.285818363374	0.17333984375	0.40673828125	0.8271484375	26.1875	2.8125	56.0625
19	02	10	17	58	56	-0.0300891904064	-0.0594459867258	-0.288685335948	0.162109375	0.45263671875	0.822265625	26.75	3.125	58.75
19	02	10	17	58	56	-0.0192864710906	-0.0638406606352	-0.289663265177	0.1865234375	0.46533203125	0.8154296875	15.25	-1.6875	62.3125
19	02	10	17	58	56	-0.00927679326276	-0.0682942872436	-0.288618127234	0.24169921875	0.43017578125	0.88818359375	7.4375	-1.3125	56.9375
19	02	10	17	58	56	0.00109860381873	-0.0736064558549	-0.288566603053	0.25634765625	0.42626953125	0.9111328125	15.375	-6.375	59.625
19	02	10	17	58	56	0.0130610573191	-0.0805635311274	-0.290272843971	0.2890625	0.54345703125	0.8662109375	18.1875	-11.75	71.25
19	02	10	17	58	56	0.0242914720858	-0.088560115569	-0.290582157287	0.2890625	0.63671875	0.82177734375	3.375	-19.5	71.6875
19	02	10	17	58	56	0.0334455220358	-0.0974070313306	-0.287521631954	0.3369140625	0.60986328125	0.775390625	-18.5625	-24.875	62.125
19	02	10	17	58	56	0.0421743778024	-0.106320935068	-0.28472282554	0.38037109375	0.55078125	0.7607421875	-14.625	-24.125	58.0625
19	02	10	17	58	56	0.0516952415428	-0.113522018028	-0.284476411843	0.36328125	0.53857421875	0.7978515625	3.5625	-17.4375	60.0
19	02	10	17	58	56	0.0607905312239	-0.119200710322	-0.288205711284	0.28125	0.5478515625	0.7724609375	26.0625	-17.0625	56.5625
19	02	10	17	58	56	0.0675039052236	-0.123228195883	-0.291438650491	0.21630859375	0.576171875	0.7509765625	19.875	-15.625	44.375
19	02	10	17	58	56	0.0718966959796	-0.126521095726	-0.293201806015	0.21142578125	0.48779296875	0.6826171875	11.875	-13.6875	30.3125
19	02	10	17	58	56	0.0756817463838	-0.127438295524	-0.295341911896	0.18310546875	0.43212890625	0.70361328125	18.1875	-4.0	22.625
19	02	10	17	58	56	0.0797702802539	-0.12786437424	-0.298573994646	0.24560546875	0.38037109375	0.7646484375	30.8125	0.1875	19.4375
19	02	10	17	58	56	0.0836743667421	-0.12725095161	-0.30357133492	0.2255859375	0.3740234375	0.8076171875	43.875	2.0625	16.0
19	02	10	17	58	56	0.0862376997608	-0.128410559304	-0.310223798927	0.31982421875	0.46240234375	0.8388671875	49.5	-6.625	9.25
19	02	10	17	58	56	0.0895953082032	-0.132012705479	-0.316513125573	0.4248046875	0.51513671875	0.84228515625	45.625	-13.6875	15.25
19	02	10	17	58	56	0.0930726425627	-0.134756980183	-0.319071328077	0.32177734375	0.5087890625	0.853515625	24.625	-12.3125	20.5625
19	02	10	17	58	56	0.0950893441463	-0.137812412761	-0.318164795273	0.27294921875	0.47509765625	0.79296875	2.25	-15.75	16.9375
19	02	10	17	58	56	0.0966747248787	-0.141472229968	-0.317732713206	0.34033203125	0.4765625	0.76220703125	2.625	-15.9375	13.125
19	02	10	17	58	56	0.0986294159147	-0.143854909227	-0.320301469505	0.3701171875	0.517578125	0.73681640625	18.4375	-9.4375	11.0
19	02	10	17	58	56	0.101500361122	-0.145628299241	-0.324886603881	0.41064453125	0.6455078125	0.72705078125	25.3125	-4.25	14.4375
19	02	10	17	58	56	0.105649167591	-0.147945454789	-0.330008693912	0.44287109375	0.7509765625	0.72216796875	24.8125	-4.1875	23.875
19	02	10	17	58	56	0.109794912238	-0.150624704505	-0.33335175689	0.4169921875	0.677734375	0.6884765625	16.6875	-5.875	25.1875
19	02	10	17	58	56	0.112607297051	-0.152523379582	-0.334648135354	0.36474609375	0.591796875	0.68994140625	8.125	-5.0625	17.8125
19	02	10	17	58	56	0.114434269147	-0.151968709427	-0.338054088963	0.28564453125	0.56640625	0.64501953125	20.3125	1.4375	9.0625
19	02	10	17	58	56	0.116753598628	-0.15141959132	-0.340983980938	0.25341796875	0.55078125	0.64990234375	19.6875	0.9375	12.6875
19	02	10	17	58	56	0.119747076661	-0.150873992613	-0.344715335873	0.2822265625	0.5703125	0.67529296875	25.4375	1.75	15.3125
19	02	10	17	58	56	0.122978460729	-0.150503664594	-0.350259744974	0.30419921875	0.5830078125	0.6416015625	35.125	1.3125	14.875
19	02	10	17	58	56	0.124995051711	-0.149591245969	-0.354172990762	0.2509765625	0.611328125	0.64453125	23.75	0.375	11.25
19	02	10	17	58	56	0.126035832743	-0.148618524324	-0.355097566536	0.27783203125	0.58203125	0.6318359375	5.375	4.3125	5.6875
19	02	10	17	58	56	0.126642610192	-0.147088525572	-0.355270666952	0.28173828125	0.4716796875	0.61669921875	5.375	7.375	-0.5
19	02	10	17	58	56	0.127741962787	-0.145197386274	-0.358141346219	0.31640625	0.40966796875	0.650390625	27.375	8.625	-3.3125
19	02	10	17	58	56	0.130241282516	-0.142020367579	-0.365639889199	0.33837890625	0.474609375	0.70068359375	57.0625	13.0	-0.75
19	02	10	17	58	56	0.133907976651	-0.135922089335	-0.374930127878	0.20166015625	0.5615234375	0.74658203125	69.9375	21.0625	5.75
19	02	10	17	58	56	0.136954550714	-0.129447683629	-0.382178875477	0.046875	0.6025390625	0.74658203125	56.5625	17.0	10.3125
19	02	10	17	58	56	0.137324671657	-0.126155598362	-0.385668711199	0.09423828125	0.6865234375	0.68017578125	22.6875	2.9375	4.625
19	02	10	17	58	56	0.136344337127	-0.125480732826	-0.384864543385	0.23291015625	0.6796875	0.6669921875	-6.875	-2.3125	-1.75
19	02	10	17	58	56	0.136224797052	-0.124872730631	-0.382186236175	0.28759765625	0.60791015625	0.70361328125	-12.75	3.125	0.0625
19	02	10	17	58	56	0.138365903619	-0.122924097878	-0.382260985605	0.2333984375	0.61474609375	0.74560546875	8.9375	8.5625	10.125
19	02	10	17	58	57	0.14074562425	-0.120970436801	-0.384761671844	0.216796875	0.7421875	0.73486328125	17.5	5.75	14.3125
19	02	10	17	58	57	0.141960558334	-0.120416243161	-0.386149807643	0.27294921875	0.80859375	0.6962890625	4.1875	0.8125	10.375
19	02	10	17	58	57	0.14159610391	-0.119868425896	-0.384567694284	0.27783203125	0.7333984375	0.662109375	-13.625	2.125	1.25
19	02	10	17	58	57	0.140498495532	-0.118770665641	-0.380969421856	0.2109375	0.65087890625	0.662109375	-23.125	2.4375	-2.0625
19	02	10	17	58	57	0.140922007139	-0.117791023723	-0.380593173025	0.203125	0.615234375	0.685546875	0.6875	0.625	4.5625
19	02	10	17	58	57	0.142264971679	-0.116936802118	-0.384255796521	0.2431640625	0.64892578125	0.71533203125	26.4375	-1.25	7.375
19	02	10	17	58	57	0.144159180937	-0.116084149934	-0.390609127011	0.32568359375	0.68212890625	0.771484375	45.625	-0.5	5.875
19	02	10	17	58	57	0.145809061135	-0.113583366585	-0.396290596044	0.26708984375	0.712890625	0.78515625	42.5	4.9375	4.375
19	02	10	17	58	57	0.147393418362	-0.111811487552	-0.400373012197	0.236328125	0.69775390625	0.77978515625	33.125	1.4375	6.9375
19	02	10	17	58	57	0.147634672673	-0.109673214879	-0.405796998181	0.2431640625	0.73291015625	0.68310546875	34.9375	1.25	-0.625
19	02	10	17	58	57	0.148679363944	-0.107603332772	-0.411614790821	0.166015625	0.708984375	0.63427734375	37.625	0.0	6.3125
19	02	10	17	58	57	0.149647574298	-0.106010536931	-0.417817003932	0.1533203125	0.70068359375	0.58984375	39.0	-3.125	7.625
19	02	10	17	58	57	0.151058915564	-0.105283486605	-0.424734946833	0.27783203125	0.70458984375	0.66943359375	48.1875	-3.6875	5.625
19	02	10	17	58	57	0.152459880163	-0.103450559198	-0.433149627508	0.30908203125	0.65185546875	0.69482421875	63.1875	0.6875	-0.5
19	02	10	17	58	57	0.153558953233	-0.100948532848	-0.44169560594	0.224609375	0.67919921875	0.65576171875	62.8125	0.1875	1.25
19	02	10	17	58	57	0.154533805648	-0.0989944047239	-0.449258824397	0.1875	0.763671875	0.6328125	52.25	-2.6875	5.5
19	02	10	17	58	57	0.154903701335	-0.0988136692128	-0.453969160966	0.26611328125	0.74658203125	0.599609375	32.8125	-6.625	3.0625
19	02	10	17	58	57	0.154775026037	-0.0988704819325	-0.456757214063	0.25341796875	0.6796875	0.5576171875	20.5625	-6.125	0.4375
19	02	10	17	58	57	0.15465719614	-0.0985680235858	-0.459943421513	0.21875	0.64794921875	0.5673828125	25.3125	-6.375	0.6875
19	02	10	17	58	57	0.154901381707	-0.0985680580995	-0.464215882294	0.248046875	0.66845703125	0.548828125	31.6875	-7.0	1.9375
19	02	10	17	58	57	0.154840890743	-0.0974087747834	-0.468550854644	0.1298828125	0.72265625	0.4677734375	26.25	-4.9375	5.0
19	02	10	17	58	57	0.153864814463	-0.0977752609161	-0.470139097901	0.115234375	0.69287109375	0.47998046875	9.125	-12.3125	4.875
19	02	10	17	58	57	0.151784353533	-0.099968946959	-0.46951227653	0.1875	0.6015625	0.4365234375	-6.375	-18.4375	-1.5
19	02	10	17	58	57	0.149405230705	-0.101434433592	-0.468600229312	0.13037109375	0.623046875	0.41455078125	-9.9375	-16.6875	-1.3125
19	02	10	17	58	57	0.14818468391	-0.102899249206	-0.46945493766	0.12548828125	0.64892578125	0.33935546875	-2.625	-14.25	5.1875
19	02	10	17	58	57	0.148492008378	-0.104182432512	-0.469950047066	0.1943359375	0.7255859375	0.44140625	-0.1875	-9.0625	10.6875
19	02	10	17	58	57	0.149654292552	-0.10290258452	-0.470507724832	0.15771484375	0.67333984375	0.54443359375	9.8125	2.875	8.625
19	02	10	17	58	57	0.150206546175	-0.100280111891	-0.469296275309	0.1474609375	0.8095703125	0.59423828125	-3.6875	8.4375	5.3125
19	02	10	17	58	57	0.150631461073	-0.0982034120204	-0.467030769907	0.287109375	0.9072265625	0.63427734375	-13.0	11.25	0.625
19	02	10	17	58	57	0.151118433488	-0.0963105363667	-0.465012659428	0.33935546875	0.89794921875	0.5869140625	-14.1875	13.3125	-1.5
19	02	10	17	58	57	0.151789932869	-0.0946627204986	-0.464219633857	0.3369140625	0.86083984375	0.59423828125	-4.4375	11.3125	-1.25
19	02	10	17	58	57	0.152396653043	-0.0937449976266	-0.466405775952	0.3515625	0.728515625	0.572265625	18.5625	4.875	-3.25
19	02	10	17	58	57	0.152274426739	-0.0931345792401	-0.471409888631	0.39697265625	0.693359375	0.54150390625	36.0	0.5625	-9.625
19	02	10	17	58	57	0.152703559917	-0.0910606360498	-0.477091817695	0.25390625	0.67529296875	0.55712890625	44.1875	2.25	-4.0625
19	02	10	17	58	57	0.152949060805	-0.089596656529	-0.481978744284	0.158203125	0.66455078125	0.56591796875	40.1875	-3.9375	2.1875
19	02	10	17	58	57	0.152826232815	-0.090877899625	-0.484600754212	0.28173828125	0.78173828125	0.58984375	21.125	-12.0625	3.75
19	02	10	17	58	57	0.152640160334	-0.0933173951022	-0.484225122787	0.328125	0.779296875	0.591796875	0.9375	-13.3125	4.375
19	02	10	17	58	57	0.152398334483	-0.0949666834023	-0.482767651486	0.306640625	0.7275390625	0.548828125	-6.0625	-8.0	2.0625
19	02	10	17	58	57	0.152151374385	-0.0944156342452	-0.482331452773	0.17919921875	0.748046875	0.4931640625	-2.4375	-1.625	3.4375
19	02	10	17	58	57	0.152581975274	-0.0949059886207	-0.483257632089	0.2578125	0.765625	0.57421875	10.5625	-5.5	5.5625
19	02	10	17	58	57	0.152761401981	-0.0953919581688	-0.484222518305	0.2568359375	0.8212890625	0.46533203125	2.8125	-3.875	5.8125
19	02	10	17	58	57	0.151785800042	-0.0952704599377	-0.482272373112	0.16455078125	0.83984375	0.416015625	-20.6875	-2.875	3.75
19	02	10	17	58	57	0.151055505063	-0.0955159052215	-0.480692184999	0.21630859375	0.6220703125	0.41357421875	-10.9375	-2.625	-1.5
19	02	10	17	58	57	0.150691730339	-0.0953953724261	-0.481676442218	0.24365234375	0.65576171875	0.45654296875	7.75	-2.3125	-1.8125
19	02	10	17	58	57	0.151000025346	-0.0946649310071	-0.484616087812	0.29296875	0.79052734375	0.40380859375	14.1875	2.75	-0.0625
19	02	10	17	58	57	0.150632702289	-0.0913683773606	-0.485589051624	0.140625	0.82666015625	0.41552734375	1.4375	10.25	-1.625
19	02	10	17	58	57	0.151359126256	-0.0906323800361	-0.487278735494	0.28515625	0.70068359375	0.48193359375	14.4375	3.75	0.3125
19	02	10	17	58	57	0.151424502179	-0.0906349801434	-0.487964085014	0.3251953125	0.8173828125	0.52197265625	5.0	-0.1875	-0.8125
19	02	10	17	58	57	0.151848365965	-0.0903278061205	-0.488563572969	0.35546875	0.75732421875	0.515625	6.75	3.8125	-2.9375
19	02	10	17	58	57	0.151847405257	-0.0889845325022	-0.488072226625	0.26806640625	0.7431640625	0.5107421875	-0.125	5.9375	-3.625
19	02	10	17	58	58	0.152337671607	-0.0889246744916	-0.488444866134	0.3388671875	0.74853515625	0.5107421875	5.3125	2.1875	-1.125
19	02	10	17	58	58	0.152157448207	-0.0891094562302	-0.487904789797	0.33349609375	0.771484375	0.470703125	-4.6875	1.25	-2.875
19	02	10	17	58	58	0.151606291806	-0.0891694010983	-0.487227466782	0.31103515625	0.7177734375	0.44873046875	-5.1875	0.8125	-5.0625
19	02	10	17	58	58	0.151054322048	-0.0890457599466	-0.487340913759	0.29150390625	0.71240234375	0.45166015625	0.125	-0.1875	-4.75
19	02	10	17	58	58	0.150877112162	-0.0895985439537	-0.488519581611	0.3076171875	0.75048828125	0.44970703125	6.0625	-3.1875	-0.9375
19	02	10	17	58	58	0.150017158312	-0.090510759063	-0.489417246747	0.28076171875	0.7255859375	0.4296875	2.9375	-7.0625	-2.3125
19	02	10	17	58	58	0.14910219843	-0.0922199843748	-0.489052769553	0.34228515625	0.701171875	0.50390625	-0.625	-9.0625	-4.4375
19	02	10	17	58	58	0.149040618893	-0.0933182253427	-0.489295103056	0.3369140625	0.658203125	0.51806640625	7.3125	-5.3125	-2.0625
19	02	10	17	58	58	0.149466787262	-0.0937447877641	-0.489413706432	0.28759765625	0.7041015625	0.53759765625	6.5	-2.5	2.1875
19	02	10	17	58	58	0.149534713987	-0.0949087674488	-0.488032478791	0.27099609375	0.75830078125	0.5146484375	-7.375	-5.3125	4.875
19	02	10	17	58	58	0.149654053674	-0.0966159734774	-0.484788804378	0.2744140625	0.7314453125	0.52001953125	-18.875	-5.875	5.875
19	02	10	17	58	58	0.149284792713	-0.0991163137225	-0.481177966372	0.30078125	0.6875	0.46533203125	-24.0	-8.625	3.9375
19	02	10	17	58	58	0.148127824202	-0.102230781021	-0.476914222626	0.3193359375	0.7314453125	0.47998046875	-31.0	-12.4375	1.9375
19	02	10	17	58	58	0.147820027037	-0.106073991325	-0.472206254824	0.3916015625	0.71240234375	0.44873046875	-34.5	-10.0625	4.625
19	02	10	17	58	58	0.148616047714	-0.109737845499	-0.467270825997	0.419921875	0.7431640625	0.50390625	-33.3125	-6.375	9.1875
19	02	10	17	58	58	0.149773000205	-0.111933040903	-0.464821177491	0.3837890625	0.712890625	0.49951171875	-15.75	-2.125	8.25
19	02	10	17	58	58	0.15014265165	-0.113034223925	-0.462573640997	0.31494140625	0.77197265625	0.48388671875	-18.0625	-1.4375	6.5625
19	02	10	17	58	58	0.150693774501	-0.114744550855	-0.459771649783	0.3447265625	0.76171875	0.50048828125	-20.875	-2.125	7.5625
19	02	10	17	58	58	0.151300461396	-0.117244125189	-0.457014060079	0.41015625	0.6962890625	0.52099609375	-17.5625	-4.5625	5.25
19	02	10	17	58	58	0.151785043566	-0.119438411845	-0.454927911035	0.40478515625	0.7177734375	0.5166015625	-14.4375	-3.9375	4.9375
19	02	10	17	58	58	0.152760414475	-0.120841238778	-0.454009078419	0.36962890625	0.6826171875	0.53369140625	-4.125	-2.375	6.0625
19	02	10	17	58	58	0.153317350822	-0.122495192317	-0.453177280992	0.3642578125	0.6767578125	0.5224609375	-4.75	-4.6875	5.0625
19	02	10	17	58	58	0.153494692933	-0.124321546523	-0.451390357428	0.36865234375	0.72509765625	0.48583984375	-15.0	-4.1875	5.1875
19	02	10	17	58	58	0.153557278127	-0.126092741101	-0.447427824303	0.34814453125	0.6884765625	0.5068359375	-27.0	-2.5625	5.125
19	02	10	17	58	58	0.154232184826	-0.128475959263	-0.444325407808	0.3779296875	0.6279296875	0.51953125	-18.5625	-4.8125	7.25
19	02	10	17	58	58	0.155147152412	-0.130428585643	-0.441394258947	0.3935546875	0.6962890625	0.50439453125	-20.8125	-1.1875	8.375
19	02	10	17	58	58	0.155995834918	-0.130973028847	-0.438448387344	0.36572265625	0.65869140625	0.49267578125	-19.3125	5.375	5.0
19	02	10	17	58	58	0.157101614544	-0.130734910005	-0.436332339695	0.37255859375	0.65283203125	0.53662109375	-11.4375	7.9375	3.5625
19	02	10	17	58	58	0.158443182055	-0.130367733771	-0.434864280486	0.36962890625	0.701171875	0.57080078125	-7.5625	7.5625	5.5
19	02	10	17	58	58	0.160577949086	-0.131282086083	-0.434067036829	0.4580078125	0.720703125	0.578125	-3.4375	5.125	9.25
19	02	10	17	58	58	0.161369160946	-0.131707507307	-0.431192557519	0.41552734375	0.74169921875	0.53955078125	-21.0	6.5625	4.4375
19	02	10	17	58	58	0.162044538019	-0.132870417803	-0.427663306177	0.45654296875	0.6162109375	0.568359375	-19.6875	4.75	1.0625
19	02	10	17	58	58	0.162524307005	-0.133595834786	-0.424955595073	0.45458984375	0.6240234375	0.583984375	-14.25	4.8125	-1.1875
19	02	10	17	58	58	0.164420619207	-0.135308282399	-0.423380042851	0.515625	0.69921875	0.60693359375	-8.0625	3.375	7.9375
19	02	10	17	58	58	0.165828587538	-0.137264811694	-0.421132592569	0.5185546875	0.697265625	0.5478515625	-16.75	3.5	6.4375
19	02	10	17	58	58	0.166866490039	-0.138851962267	-0.416983123608	0.4990234375	0.60546875	0.54052734375	-25.3125	6.3125	2.875
19	02	10	17	58	58	0.16777514936	-0.139639702341	-0.41318216121	0.4482421875	0.5419921875	0.5595703125	-19.3125	7.5625	1.25
19	02	10	17	58	58	0.169179499049	-0.140006410829	-0.412085128996	0.423828125	0.583984375	0.57275390625	-3.375	5.5625	4.0625
19	02	10	17	58	58	0.169918081192	-0.140316691329	-0.410818464261	0.41650390625	0.6962890625	0.51953125	-12.8125	5.75	4.1875
19	02	10	17	58	58	0.170949495312	-0.140982982567	-0.408118270314	0.42333984375	0.69091796875	0.5107421875	-21.9375	6.9375	6.875
19	02	10	17	58	58	0.171503930602	-0.14147548439	-0.405261957009	0.4423828125	0.599609375	0.51953125	-19.5625	8.0	0.875
19	02	10	17	58	58	0.172112627107	-0.140497612624	-0.403488148158	0.40478515625	0.58984375	0.52978515625	-10.875	12.25	-1.5
19	02	10	17	58	58	0.173573956338	-0.139884496458	-0.403113917585	0.42578125	0.6005859375	0.5927734375	0.8125	9.9375	2.5
19	02	10	17	58	58	0.175350960846	-0.139646014067	-0.403557449743	0.443359375	0.69580078125	0.625	3.3125	7.125	7.0
19	02	10	17	58	58	0.176504716197	-0.140495801067	-0.402689528862	0.48291015625	0.69140625	0.63671875	-5.625	3.1875	4.9375
19	02	10	17	58	58	0.177666574775	-0.142267532051	-0.400314346942	0.53955078125	0.62548828125	0.646484375	-12.375	3.0	3.5
19	02	10	17	58	58	0.178767497788	-0.142696623363	-0.397878223996	0.46630859375	0.5830078125	0.6435546875	-10.4375	6.625	2.3125
19	02	10	17	58	58	0.180347296068	-0.143057212177	-0.396703020115	0.4677734375	0.619140625	0.673828125	-2.6875	5.25	5.625
19	02	10	17	58	58	0.1817592526	-0.144589546477	-0.396232729307	0.51953125	0.7431640625	0.6787109375	-4.625	0.125	8.375
19	02	10	17	58	59	0.182308263182	-0.146115159711	-0.3944621041	0.4951171875	0.71630859375	0.57568359375	-17.5	1.8125	4.75
19	02	10	17	58	59	0.182126010214	-0.146237909006	-0.390618788663	0.43408203125	0.62646484375	0.57958984375	-26.3125	7.6875	-0.9375
19	02	10	17	58	59	0.183223670004	-0.146969552755	-0.389701243497	0.50634765625	0.556640625	0.6484375	-1.1875	4.6875	1.0625
19	02	10	17	58	59	0.184435551987	-0.146718420575	-0.391269465186	0.4794921875	0.68115234375	0.55419921875	5.0625	7.625	3.0
19	02	10	17	58	59	0.185239573467	-0.146238556187	-0.391230861918	0.43896484375	0.67626953125	0.578125	-3.8125	7.9375	2.4375
19	02	10	17	58	59	0.18609137654	-0.146419551433	-0.390370759051	0.4375	0.57373046875	0.62255859375	-2.5625	4.625	2.0
19	02	10	17	58	59	0.186330671993	-0.145378205269	-0.389445141824	0.40283203125	0.59716796875	0.580078125	-5.9375	8.9375	-2.0625
19	02	10	17	58	59	0.187128765066	-0.145076671416	-0.388844540846	0.43408203125	0.56591796875	0.607421875	-1.4375	6.9375	0.0625
19	02	10	17	58	59	0.188774177563	-0.145440952193	-0.389754897483	0.498046875	0.6181640625	0.6044921875	6.0625	5.8125	4.875
19	02	10	17	58	59	0.189017188562	-0.144341508217	-0.390057750113	0.41357421875	0.63623046875	0.5244140625	-2.5625	9.875	-2.0
19	02	10	17	58	59	0.189627855705	-0.143670412723	-0.389448132365	0.42138671875	0.53759765625	0.60107421875	-0.125	8.125	-2.0625
19	02	10	17	58	59	0.190483533414	-0.143366171096	-0.390244060445	0.47119140625	0.6240234375	0.63671875	5.6875	5.75	0.0
19	02	10	17	58	59	0.191522774886	-0.143001230579	-0.391101957128	0.45703125	0.630859375	0.53173828125	1.8125	8.8125	1.75
19	02	10	17	58	59	0.192015841184	-0.141539966849	-0.389952069081	0.39892578125	0.607421875	0.6044921875	-5.9375	11.5625	-1.3125
19	02	10	17	58	59	0.193595328028	-0.142083834694	-0.390303317383	0.56103515625	0.55078125	0.6328125	6.6875	7.75	-0.0625
19	02	10	17	58	59	0.193475399018	-0.140193372727	-0.391162092211	0.40625	0.64453125	0.5693359375	2.4375	11.125	-5.5625
19	02	10	17	58	59	0.195428904506	-0.140620923167	-0.3918343432	0.51171875	0.59765625	0.65771484375	8.4375	5.625	5.125
19	02	10	17	58	59	0.196705135791	-0.140739076368	-0.391762415961	0.5009765625	0.7099609375	0.654296875	-2.1875	6.5625	4.75
19	02	10	17	58	59	0.197991911064	-0.141475107844	-0.390795994619	0.48974609375	0.55126953125	0.6416015625	-1.125	4.4375	2.5625
19	02	10	17	58	59	0.197378622377	-0.139947180306	-0.388348847924	0.39501953125	0.623046875	0.62109375	-15.75	11.0	-6.4375
19	02	10	17	58	59	0.199636698515	-0.139947095596	-0.38859274211	0.48388671875	0.55126953125	0.703125	10.125	6.8125	6.25
19	02	10	17	58	59	0.200427639212	-0.138602670113	-0.388832061334	0.32080078125	0.7080078125	0.54248046875	-5.0625	7.75	6.25
19	02	10	17	58	59	0.200795531243	-0.136894947288	-0.387553684922	0.28857421875	0.65576171875	0.5595703125	-11.5625	9.125	3.9375
19	02	10	17	58	59	0.200852322058	-0.136769995057	-0.384799115945	0.34130859375	0.56591796875	0.69384765625	-12.375	1.5	1.5625
19	02	10	17	58	59	0.201477578052	-0.137451531588	-0.384217314098	0.3876953125	0.61865234375	0.6689453125	-2.5625	-2.125	5.4375
19	02	10	17	58	59	0.202020229582	-0.138362495608	-0.383106036582	0.41064453125	0.71142578125	0.6865234375	-10.0	-2.0625	7.1875
19	02	10	17	58	59	0.204332354063	-0.140798907056	-0.382482336592	0.5107421875	0.638671875	0.71142578125	-1.6875	-3.625	14.125
19	02	10	17	58	59	0.205135894795	-0.141233103408	-0.38121951767	0.38916015625	0.701171875	0.63720703125	-12.125	1.5625	8.875
19	02	10	17	58	59	0.206295551989	-0.141294142857	-0.379998848132	0.38916015625	0.591796875	0.61279296875	-7.375	4.375	6.875
19	02	10	17	58	59	0.207385569086	-0.140189715183	-0.380044125574	0.3603515625	0.6015625	0.640625	1.9375	6.5625	4.75
19	02	10	17	58	59	0.208244380576	-0.138605799616	-0.382249283573	0.3408203125	0.6689453125	0.611328125	11.0625	5.375	4.0625
19	02	10	17	58	59	0.20928185319	-0.137385083561	-0.384812506376	0.42431640625	0.7080078125	0.599609375	11.1875	7.3125	3.75
19	02	10	17	58	59	0.210445204081	-0.136288903919	-0.387199644631	0.42431640625	0.66015625	0.58154296875	11.6875	7.4375	2.75
19	02	10	17	58	59	0.211779801029	-0.134696835986	-0.389198787079	0.3701171875	0.65380859375	0.5849609375	10.8125	8.375	5.0
19	02	10	17	58	59	0.213124739047	-0.133050381192	-0.392742753656	0.3466796875	0.57568359375	0.57470703125	24.0	5.5625	3.3125
19	02	10	17	58	59	0.214288428567	-0.131588109368	-0.395984997021	0.36181640625	0.60693359375	0.61376953125	22.1875	4.25	2.625
19	02	10	17	58	59	0.215815083518	-0.130856204486	-0.398916115914	0.3505859375	0.58642578125	0.619140625	21.9375	0.9375	6.4375
19	02	10	17	58	59	0.217395708199	-0.130059026999	-0.400125284377	0.29345703125	0.63525390625	0.6298828125	10.0	0.6875	11.0
19	02	10	17	58	59	0.219593361277	-0.130181389551	-0.399821042169	0.32275390625	0.67236328125	0.67578125	1.0	0.0	16.25
19	02	10	17	58	59	0.221361357939	-0.130912631039	-0.398352793843	0.33935546875	0.67236328125	0.68310546875	-7.0	-1.8125	15.625
19	02	10	17	58	59	0.221983851505	-0.131408092464	-0.395567044708	0.3466796875	0.64404296875	0.68505859375	-15.25	-0.4375	7.6875
19	02	10	17	58	59	0.222526289229	-0.131709196971	-0.393174535165	0.38134765625	0.61376953125	0.70849609375	-10.75	0.75	4.75
19	02	10	17	58	59	0.224294859903	-0.131891480884	-0.392256616216	0.42041015625	0.64208984375	0.69677734375	-2.4375	3.4375	9.625
19	02	10	17	58	59	0.225759104455	-0.131036711886	-0.391157096635	0.36962890625	0.7109375	0.66455078125	-7.375	7.25	10.0625
19	02	10	17	58	59	0.227100890786	-0.130364822015	-0.389507628324	0.33251953125	0.6630859375	0.6728515625	-8.75	5.125	10.125
19	02	10	17	58	59	0.227779393617	-0.130307879253	-0.38726158963	0.35888671875	0.666015625	0.66796875	-14.4375	3.0	7.375
19	02	10	17	58	59	0.229358539138	-0.130669673309	-0.385295491638	0.40673828125	0.63134765625	0.63134765625	-12.3125	5.5625	9.9375
19	02	10	17	58	59	0.231007914467	-0.129999169832	-0.384382521879	0.32470703125	0.61669921875	0.62158203125	-4.625	5.6875	11.0625
19	02	10	17	58	59	0.233628869875	-0.129570034155	-0.384376860625	0.34423828125	0.62744140625	0.5986328125	0.1875	6.4375	16.125
19	02	10	17	58	59	0.235652390653	-0.12878180375	-0.3840261181	0.291015625	0.63525390625	0.58837890625	-3.0	5.625	14.5
19	02	10	17	59	00	0.237660572771	-0.128107227079	-0.383345161164	0.28369140625	0.61865234375	0.64599609375	-2.125	3.625	14.8125
19	02	10	17	59	00	0.239190952583	-0.127743471232	-0.382192841306	0.29150390625	0.60205078125	0.67626953125	-3.9375	1.0625	12.3125
19	02	10	17	59	00	0.240588029211	-0.127739915053	-0.38193807377	0.3271484375	0.62109375	0.6650390625	-0.5	-0.3125	11.5
19	02	10	17	59	00	0.242548277876	-0.127499585426	-0.381705317019	0.32177734375	0.6171875	0.72119140625	3.0	0.1875	14.125
19	02	10	17	59	00	0.244015207217	-0.126951383444	-0.380793116014	0.34326171875	0.638671875	0.712890625	-2.625	2.8125	10.25
19	02	10	17	59	00	0.244866357816	-0.125790020803	-0.378956933121	0.388671875	0.63037109375	0.72265625	-7.8125	8.75	3.75
19	02	10	17	59	00	0.246157012116	-0.12359730958	-0.378482428002	0.359375	0.580078125	0.73291015625	4.625	11.0625	2.9375
19	02	10	17	59	00	0.247552202038	-0.12078545558	-0.379689903569	0.32080078125	0.61669921875	0.7197265625	13.25	10.25	4.3125
19	02	10	17	59	00	0.248409054483	-0.118772486492	-0.381585604086	0.3662109375	0.69384765625	0.68310546875	11.125	7.25	3.375
19	02	10	17	59	00	0.249143171719	-0.117064332032	-0.382747876004	0.380859375	0.65673828125	0.64501953125	6.5	8.4375	1.625
19	02	10	17	59	00	0.250048043842	-0.116204900043	-0.382365388008	0.36669921875	0.646484375	0.64111328125	-3.25	6.5	4.9375
19	02	10	17	59	00	0.251515350421	-0.115656779677	-0.382674410856	0.3583984375	0.6201171875	0.6318359375	1.6875	4.75	8.5
19	02	10	17	59	00	0.254010543491	-0.11504321828	-0.384494575684	0.35986328125	0.62109375	0.62353515625	12.5	4.6875	13.6875
19	02	10	17	59	00	0.256889229313	-0.11480366841	-0.385364360628	0.3125	0.6484375	0.65966796875	6.875	1.8125	19.6875
19	02	10	17	59	00	0.259206940307	-0.114558847882	-0.38639960892	0.29541015625	0.62744140625	0.64111328125	7.875	-0.0625	17.125
19	02	10	17	59	00	0.260422722283	-0.11400741627	-0.385782054734	0.2734375	0.58056640625	0.59619140625	-3.125	2.625	9.5
19	02	10	17	59	00	0.2615799458	-0.113579159854	-0.38291007465	0.25439453125	0.55322265625	0.6376953125	-14.4375	3.8125	10.0
19	02	10	17	59	00	0.263417307715	-0.112971602544	-0.379806743724	0.25048828125	0.51513671875	0.6552734375	-12.0625	6.125	12.25
19	02	10	17	59	00	0.265610262174	-0.111932265815	-0.377481496219	0.2978515625	0.49755859375	0.60205078125	-8.4375	11.25	10.875
19	02	10	17	59	00	0.265981928229	-0.108638786656	-0.373705219491	0.2587890625	0.55810546875	0.51611328125	-23.5	23.0	-1.1875
19	02	10	17	59	00	0.269210069642	-0.103753597459	-0.37094962668	0.2626953125	0.53173828125	0.54541015625	-9.375	34.75	9.375
19	02	10	17	59	00	0.272999804904	-0.0974083810923	-0.367661709085	0.16845703125	0.486328125	0.6376953125	-4.3125	37.5625	12.0
19	02	10	17	59	00	0.2758084874	-0.0919158181068	-0.362231328329	0.09228515625	0.5087890625	0.61474609375	-21.5	32.25	11.375
19	02	10	17	59	00	0.277455744931	-0.0886198287815	-0.353624853967	0.18310546875	0.498046875	0.630859375	-44.375	29.0625	6.0
19	02	10	17	59	00	0.279537090779	-0.0844104359273	-0.346125511311	0.1669921875	0.4140625	0.591796875	-34.125	33.4375	4.6875
19	02	10	17	59	00	0.281853650102	-0.0801982884873	-0.338737063245	0.140625	0.39501953125	0.57861328125	-33.0625	33.25	6.875
19	02	10	17	59	00	0.284231630497	-0.0760473720419	-0.332508894771	0.302734375	0.42724609375	0.65380859375	-25.4375	38.125	2.0
19	02	10	17	59	00	0.285938513022	-0.0713473045299	-0.327623892828	0.3193359375	0.51416015625	0.68798828125	-21.75	38.3125	-1.9375
19	02	10	17	59	00	0.285214861585	-0.066649824278	-0.32378875256	0.34716796875	0.322265625	0.86767578125	-0.3125	30.5	-20.5625
19	02	10	17	59	00	0.282519544132	-0.0621311073507	-0.324082691584	0.35302734375	0.3427734375	0.86572265625	20.4375	19.5625	-30.6875
19	02	10	17	59	00	0.281427193615	-0.0589587224098	-0.332573580136	0.623046875	0.654296875	1.0673828125	59.9375	11.75	-21.75
19	02	10	17	59	00	0.281673989556	-0.0555413500533	-0.33831395972	0.6298828125	0.71923828125	0.875	35.8125	24.25	-14.875
19	02	10	17	59	00	0.28063790462	-0.052856116877	-0.33422643882	0.35009765625	0.73046875	0.9599609375	-22.25	18.9375	-12.0625
19	02	10	17	59	00	0.278487377954	-0.0494966608637	-0.335185772458	0.12255859375	0.71484375	0.962890625	9.1875	-0.3125	-9.875
19	02	10	17	59	00	0.277029329586	-0.0525495159227	-0.334888726908	0.27880859375	0.74462890625	0.82373046875	-14.8125	-19.0625	1.4375
19	02	10	17	59	00	0.277878808213	-0.0571870070933	-0.330488413458	0.42041015625	0.845703125	0.7158203125	-49.9375	-6.5625	13.0625
19	02	10	17	59	00	0.282210211872	-0.0607264621135	-0.324993377642	0.4638671875	0.47119140625	0.666015625	-33.4375	10.4375	21.6875
19	02	10	17	59	00	0.28501929021	-0.0617033195723	-0.318037584858	0.2666015625	0.35595703125	0.90087890625	-24.9375	8.375	13.5
19	02	10	17	59	00	0.288865637352	-0.0587130241141	-0.319442794401	0.30810546875	0.666015625	0.74365234375	7.3125	21.4375	18.3125
19	02	10	17	59	00	0.293571992983	-0.0556627146778	-0.320793013538	0.4208984375	0.8544921875	0.65478515625	-5.4375	31.5	22.6875
19	02	10	17	59	00	0.296927122569	-0.0494980259822	-0.317861552793	0.19775390625	0.62158203125	0.748046875	-10.375	39.1875	10.9375
19	02	10	17	59	00	0.296564665449	-0.0471183209975	-0.305841847822	0.0263671875	0.38818359375	0.86083984375	-56.5625	18.875	-3.8125
19	02	10	17	59	00	0.297118666339	-0.0479125211742	-0.296508315751	0.17138671875	0.2333984375	0.74072265625	-41.625	9.875	-0.0625
19	02	10	17	59	00	0.298261010828	-0.0483369593975	-0.293195395133	0.28369140625	0.24951171875	0.818359375	-4.1875	6.5	0.8125
19	02	10	17	59	00	0.29998027499	-0.0427845722824	-0.295219652111	0.1826171875	0.3984375	0.80615234375	27.6875	24.25	1.1875
19	02	10	17	59	00	0.300040131701	-0.0352772978282	-0.298392230246	0.06640625	0.4814453125	0.74658203125	30.25	24.6875	-6.375
19	02	10	17	59	00	0.298934954705	-0.0297836377901	-0.300155595598	-0.0390625	0.43359375	0.751953125	21.125	9.0	-6.625
19	02	10	17	59	00	0.298265047642	-0.0283190059558	-0.301499761684	0.1142578125	0.5068359375	0.75732421875	8.6875	-1.875	-2.0625
19	02	10	17	59	00	0.297587300373	-0.0308206699525	-0.302347720683	0.34375	0.5380859375	0.71142578125	-4.25	-7.8125	-3.125
19	02	10	17	59	00	0.298510160511	-0.0312486612516	-0.303697926539	0.33544921875	0.43310546875	0.68017578125	8.4375	5.0	1.1875
19	02	10	17	59	01	0.299733445173	-0.0283193481083	-0.305836752955	0.26513671875	0.5439453125	0.796875	17.0	15.375	1.6875
19	02	10	17	59	01	0.299498300051	-0.0260619062812	-0.304381092797	0.25146484375	0.61669921875	0.88330078125	-6.8125	14.125	-5.5
19	02	10	17	59	01	0.298703988857	-0.0245359631223	-0.29815467625	0.083984375	0.48193359375	0.82763671875	-31.375	9.3125	-5.5625
19	02	10	17	59	01	0.298273433985	-0.0247798269281	-0.294489322483	0.11669921875	0.46240234375	0.955078125	-13.8125	-3.5625	-0.4375
19	02	10	17	59	01	0.298699935771	-0.0253290709736	-0.293451019858	0.2529296875	0.56787109375	0.90966796875	-6.4375	0.3125	2.3125
19	02	10	17	59	01	0.300102063325	-0.0253899650891	-0.294670075601	0.2724609375	0.6201171875	0.7587890625	-0.375	3.6875	8.5
19	02	10	17	59	01	0.301026587734	-0.0223389560241	-0.296326862013	0.21875	0.59765625	0.751953125	8.3125	15.5625	1.8125
19	02	10	17	59	01	0.300461481618	-0.0203237199632	-0.295884067212	0.2158203125	0.5732421875	0.76708984375	-4.5	11.3125	-6.25
19	02	10	17	59	01	0.30071847956	-0.017822162783	-0.295103277588	0.224609375	0.60888671875	0.81640625	-5.4375	15.5625	-2.5625
19	02	10	17	59	01	0.301014586451	-0.018431955618	-0.292775136092	0.28271484375	0.50244140625	0.80419921875	-14.0625	6.125	-1.375
19	02	10	17	59	01	0.301995211519	-0.0191646112403	-0.29015465553	0.20703125	0.548828125	0.89013671875	-15.4375	1.125	6.3125
19	02	10	17	59	01	0.302478179342	-0.0200187334189	-0.285205918496	0.10205078125	0.37060546875	0.875	-20.25	-1.8125	3.8125
19	02	10	17	59	01	0.304675621268	-0.0190422263292	-0.283314149424	0.06396484375	0.427734375	0.8046875	-4.4375	4.1875	14.1875
19	02	10	17	59	01	0.305844562264	-0.0181272869672	-0.283200712214	0.1201171875	0.40478515625	0.83154296875	7.125	1.9375	6.6875
19	02	10	17	59	01	0.306808752453	-0.0171500416629	-0.282334849582	0.12353515625	0.5029296875	0.84814453125	-2.4375	3.125	6.5
19	02	10	17	59	01	0.306271857771	-0.0146483152382	-0.280576271458	0.064453125	0.4697265625	0.78466796875	-6.25	8.125	-3.8125
19	02	10	17	59	01	0.306504240629	-0.0125726550318	-0.280931704424	0.126953125	0.5166015625	0.875	6.1875	6.1875	0.875
19	02	10	17	59	01	0.307122576467	-0.011169203397	-0.280633864586	0.16748046875	0.55712890625	0.837890625	-2.4375	7.4375	2.5
19	02	10	17	59	01	0.307549293052	-0.0102536775616	-0.280206152888	0.16552734375	0.50927734375	0.7841796875	-3.125	5.1875	1.75
19	02	10	17	59	01	0.307610659728	-0.00854474054799	-0.278802677309	0.14990234375	0.5068359375	0.80126953125	-6.625	10.0	-1.5625
19	02	10	17	59	01	0.307480326875	-0.00622528649092	-0.278490022138	0.10888671875	0.3916015625	0.77392578125	6.0	9.0625	-3.4375
19	02	10	17	59	01	0.307413213697	-0.00451629497986	-0.278057296328	0.08984375	0.47216796875	0.75390625	-0.9375	5.25	-0.8125
19	02	10	17	59	01	0.30651315207	-0.00189205649426	-0.278132304656	0.08837890625	0.439453125	0.75830078125	5.4375	8.1875	-7.1875
19	02	10	17	59	01	0.305958219626	0.000366197749402	-0.278005124755	0.091796875	0.44091796875	0.80517578125	5.3125	6.9375	-4.875
19	02	10	17	59	01	0.305050206298	0.00268551602183	-0.27831711499	0.083984375	0.4765625	0.8046875	5.625	5.6875	-6.25
19	02	10	17	59	01	0.304809003698	0.00518797863722	-0.281493617351	0.1533203125	0.50537109375	0.830078125	22.75	6.8125	-3.5625
19	02	10	17	59	01	0.305169250719	0.00549304651295	-0.28429567397	0.2275390625	0.6171875	0.853515625	11.375	0.9375	1.75
19	02	10	17	59	01	0.305659005715	0.0056761756253	-0.28686048859	0.2587890625	0.61279296875	0.81201171875	9.125	2.9375	1.875
19	02	10	17	59	01	0.306626133917	0.00561496901281	-0.287462000547	0.2060546875	0.60791015625	0.87841796875	0.3125	2.1875	5.3125
19	02	10	17	59	01	0.308032506027	0.00427229550661	-0.288074782732	0.2236328125	0.47705078125	0.82666015625	4.4375	-2.5625	8.125
19	02	10	17	59	01	0.309068009057	0.00592014156368	-0.288683191714	0.06298828125	0.54150390625	0.806640625	5.0625	3.4375	7.875
19	02	10	17	59	01	0.30931451787	0.00976525707562	-0.290394332286	-0.05224609375	0.4765625	0.8310546875	20.0	4.9375	3.25
19	02	10	17	59	01	0.309435487415	0.0108638100118	-0.291186727901	-0.01123046875	0.4990234375	0.85888671875	9.6875	-6.0625	5.4375
19	02	10	17	59	01	0.308825534881	0.0108638231638	-0.290881916846	0.0556640625	0.48046875	0.7607421875	-1.6875	-5.5625	-0.25
19	02	10	17	59	01	0.308836995531	0.0125732057469	-0.292967900899	0.0673828125	0.52294921875	0.77783203125	14.0625	0.25	1.4375
19	02	10	17	59	01	0.308273938082	0.0125116130087	-0.293687228282	0.109375	0.5048828125	0.82421875	5.4375	-5.3125	-1.1875
19	02	10	17	59	01	0.308952787219	0.0125729502503	-0.295342263404	0.16650390625	0.537109375	0.78564453125	8.8125	-0.5625	4.6875
19	02	10	17	59	01	0.308826714019	0.0128779519087	-0.296986322217	0.1396484375	0.5703125	0.81640625	7.875	-2.6875	0.8125
19	02	10	17	59	01	0.308705409957	0.0116573217283	-0.298451849484	0.19580078125	0.53173828125	0.802734375	6.1875	-6.6875	0.8125
19	02	10	17	59	01	0.309857617776	0.0115349792711	-0.300824935595	0.2138671875	0.59130859375	0.740234375	8.5	0.75	7.0625
19	02	10	17	59	01	0.310543521846	0.0129393134102	-0.302853175196	0.13232421875	0.59228515625	0.75439453125	10.0625	3.625	4.625
19	02	10	17	59	01	0.312120307979	0.0133050893898	-0.305284665724	0.14599609375	0.546875	0.84326171875	17.0625	-1.0	10.5625
19	02	10	17	59	01	0.313409323094	0.0122678235525	-0.306817656707	0.13330078125	0.55419921875	0.88916015625	10.9375	-9.0	11.6875
19	02	10	17	59	01	0.314568998573	0.0115964512474	-0.307977331549	0.0947265625	0.56689453125	0.86181640625	7.875	-8.375	12.0
19	02	10	17	59	01	0.316526838119	0.010192823364	-0.310240246463	0.1259765625	0.61474609375	0.89697265625	11.875	-12.0	17.75
19	02	10	17	59	01	0.318604898362	0.00750735680047	-0.313783100091	0.1962890625	0.5703125	0.9013671875	20.4375	-17.125	18.875
19	02	10	17	59	01	0.320181621802	0.00500474513683	-0.31664168012	0.13916015625	0.5546875	0.8681640625	16.3125	-18.875	17.5625
19	02	10	17	59	01	0.320970649299	0.00280750140098	-0.321031681938	0.15625	0.5908203125	0.79296875	20.5625	-20.5625	13.4375
19	02	10	17	59	01	0.321344971701	-0.000305170913296	-0.325983569583	0.25927734375	0.66552734375	0.806640625	19.125	-21.875	10.625
19	02	10	17	59	01	0.321954863177	-0.0036010117398	-0.329339988948	0.255859375	0.685546875	0.79736328125	8.5625	-20.0	11.6875
19	02	10	17	59	02	0.323349403392	-0.00634736465699	-0.332748385672	0.2802734375	0.6494140625	0.7646484375	11.75	-14.3125	14.4375
19	02	10	17	59	02	0.325011977592	-0.00787352959799	-0.336486578866	0.26611328125	0.60986328125	0.74560546875	17.5625	-9.5	13.9375
19	02	10	17	59	02	0.327321368118	-0.00927705537086	-0.339711119699	0.22705078125	0.52001953125	0.74951171875	21.0625	-8.9375	17.3125
19	02	10	17	59	02	0.329525279942	-0.00952138241728	-0.342891836027	0.08642578125	0.54541015625	0.76513671875	22.25	-11.375	21.0
19	02	10	17	59	02	0.330487642215	-0.00976510115501	-0.346416963474	0.05419921875	0.61328125	0.7294921875	18.9375	-15.875	16.4375
19	02	10	17	59	02	0.330737409092	-0.0113521236559	-0.348559022573	0.185546875	0.60009765625	0.67626953125	6.375	-13.8125	8.75
19	02	10	17	59	02	0.330012582921	-0.0108030751206	-0.348444948381	0.1337890625	0.5654296875	0.63134765625	-3.625	-2.3125	-1.125
19	02	10	17	59	02	0.330070604798	-0.00842265966386	-0.348014531908	0.09619140625	0.4765625	0.6728515625	5.375	6.3125	-0.6875
19	02	10	17	59	02	0.330199224775	-0.00579832280103	-0.347594193178	0.08642578125	0.50048828125	0.681640625	4.8125	7.5	0.0
19	02	10	17	59	02	0.329331046229	-0.00207510295993	-0.346237032109	0.0439453125	0.52392578125	0.6201171875	-3.0	12.0	-6.9375
19	02	10	17	59	02	0.32854186808	0.00134273102318	-0.344166374532	0.10595703125	0.5498046875	0.69287109375	-6.1875	14.25	-8.5625
19	02	10	17	59	02	0.327384591655	0.00256341402861	-0.3403847628	0.154296875	0.49951171875	0.80126953125	-13.6875	7.1875	-10.9375
19	02	10	17	59	02	0.325064346604	0.00366200916189	-0.335928307118	0.134765625	0.40576171875	0.69189453125	-18.375	6.125	-18.375
19	02	10	17	59	02	0.322193832043	0.00579814624817	-0.332874627763	0.1025390625	0.44482421875	0.63134765625	-13.875	7.6875	-20.625
19	02	10	17	59	02	0.321280896397	0.00891090632103	-0.332205911681	0.18212890625	0.3955078125	0.62841796875	5.8125	16.375	-13.75
19	02	10	17	59	02	0.320426091714	0.0144649492831	-0.331534196227	0.11865234375	0.52294921875	0.685546875	6.0	25.5	-14.3125
19	02	10	17	59	02	0.318964043886	0.0195309020366	-0.330865687314	0.09130859375	0.50390625	0.78759765625	10.4375	19.125	-15.625
19	02	10	17	59	02	0.316509177799	0.0236191769781	-0.325969054883	0.056640625	0.5263671875	0.81396484375	-17.25	18.6875	-22.125
19	02	10	17	59	02	0.314017515487	0.0253289152433	-0.320609136803	0.1240234375	0.5107421875	0.83056640625	-23.0625	11.0625	-21.3125
19	02	10	17	59	02	0.312726595675	0.0276473746761	-0.318341515035	0.1845703125	0.56982421875	0.86083984375	-6.125	14.5625	-14.9375
19	02	10	17	59	02	0.311886122193	0.0276486131807	-0.31560922463	0.24951171875	0.60546875	0.88330078125	-14.0	8.0625	-11.125
19	02	10	17	59	02	0.311946493702	0.0298457905342	-0.315181313535	0.20751953125	0.6640625	0.8408203125	-1.3125	15.4375	-5.5
19	02	10	17	59	02	0.311036555385	0.0294190776483	-0.311891051416	0.14990234375	0.68017578125	0.88720703125	-22.4375	1.375	-6.6875
19	02	10	17	59	02	0.311460967658	0.0288084610493	-0.310667514281	0.228515625	0.68017578125	0.845703125	-12.4375	4.375	0.1875
19	02	10	17	59	02	0.313164476271	0.0264886732998	-0.309380380085	0.27783203125	0.7099609375	0.82861328125	-18.0	0.5625	9.0
19	02	10	17	59	02	0.31498796993	0.0244129408975	-0.308823702353	0.228515625	0.6650390625	0.7802734375	-12.875	-1.5625	11.4375
19	02	10	17	59	02	0.316825894666	0.0241693419934	-0.30956288533	0.1259765625	0.60693359375	0.77587890625	1.25	-0.5	12.9375
19	02	10	17	59	02	0.31810972275	0.0245357077025	-0.310846664998	0.1015625	0.55615234375	0.72998046875	6.75	-0.125	9.4375
19	02	10	17	59	02	0.319020059381	0.0272817996065	-0.313405013377	0.0302734375	0.63134765625	0.716796875	13.625	5.125	8.0625
19	02	10	17	59	02	0.31993521457	0.027709001796	-0.315907033692	0.08642578125	0.58251953125	0.759765625	14.1875	-3.6875	9.25
19	02	10	17	59	02	0.320187666	0.0266721330618	-0.316708692123	0.15576171875	0.5478515625	0.71533203125	1.125	-5.5625	3.5
19	02	10	17	59	02	0.319621565839	0.0267927949978	-0.317058246044	0.08447265625	0.494140625	0.701171875	2.75	-3.75	-1.375
19	02	10	17	59	02	0.319749891107	0.0274036459452	-0.318712336583	0.08349609375	0.50439453125	0.744140625	13.125	-3.0	3.0
19	02	10	17	59	02	0.319945956525	0.0275878619514	-0.319762851246	0.09716796875	0.509765625	0.75146484375	9.25	-3.375	3.0625
19	02	10	17	59	02	0.320184116372	0.0298456029176	-0.321404795428	0.05859375	0.5849609375	0.74072265625	12.0	4.3125	2.8125
19	02	10	17	59	02	0.320003133403	0.0299678692544	-0.321895198468	0.07373046875	0.59814453125	0.80712890625	3.3125	-5.3125	2.375
19	02	10	17	59	02	0.319574107792	0.0294183957134	-0.321710298352	0.12890625	0.5966796875	0.83251953125	-0.9375	-5.0625	-0.625
19	02	10	17	59	02	0.318667901475	0.0291140756566	-0.321719691376	0.1298828125	0.61572265625	0.8203125	-1.125	-4.9375	-3.4375
19	02	10	17	59	02	0.318044926441	0.0286856870902	-0.322134162686	0.1669921875	0.62939453125	0.80078125	-0.5	-3.375	-2.5625
19	02	10	17	59	02	0.317861514312	0.0290518588349	-0.322622113028	0.20263671875	0.6376953125	0.76513671875	0.0625	3.625	-3.0625
19	02	10	17	59	02	0.318410719869	0.0298452831159	-0.322683050785	0.18115234375	0.587890625	0.76171875	0.875	6.9375	0.3125
19	02	10	17	59	02	0.318957513193	0.0310046721588	-0.322558449526	0.13916015625	0.56591796875	0.77783203125	3.0625	6.875	1.3125
19	02	10	17	59	02	0.319087949686	0.0316158297508	-0.322811049329	0.12939453125	0.50146484375	0.74560546875	5.6875	2.125	-0.375
19	02	10	17	59	02	0.319697295291	0.0334467578884	-0.324885204818	0.1240234375	0.5966796875	0.73876953125	14.0	5.8125	3.0
19	02	10	17	59	02	0.320435584375	0.0344239370643	-0.326844296063	0.10595703125	0.529296875	0.70458984375	14.125	1.4375	5.125
19	02	10	17	59	02	0.320735299557	0.0372919634689	-0.330073549002	0.0478515625	0.642578125	0.7236328125	19.9375	4.9375	3.75
19	02	10	17	59	02	0.320730441615	0.0366810647784	-0.332143684732	0.140625	0.61669921875	0.78466796875	11.1875	-7.25	3.1875
19	02	10	17	59	02	0.320489940378	0.0377190598273	-0.333856403326	0.1318359375	0.5849609375	0.7734375	13.125	1.0	-1.375
19	02	10	17	59	02	0.319700313148	0.0391233105628	-0.335874536704	0.05712890625	0.58544921875	0.7939453125	16.625	-3.0625	-1.625
19	02	10	17	59	02	0.318723300916	0.0399167060128	-0.339108896953	0.11181640625	0.66455078125	0.76025390625	17.625	-5.375	-2.25
19	02	10	17	59	03	0.318163841214	0.0399764657578	-0.34160042572	0.15234375	0.70068359375	0.74755859375	9.8125	-4.6875	-0.6875
19	02	10	17	59	03	0.31841802709	0.0404049710435	-0.34454087846	0.138671875	0.66845703125	0.7529296875	15.5625	-2.875	4.25
19	02	10	17	59	03	0.318280054726	0.0411963637469	-0.347331120123	0.0947265625	0.64892578125	0.73095703125	16.125	-3.625	2.6875
19	02	10	17	59	03	0.31999108699	0.0410135438598	-0.349164411342	0.095703125	0.7041015625	0.7841796875	9.25	-3.875	15.0
19	02	10	17	59	03	0.322984171156	0.0371077808131	-0.349594356081	0.18701171875	0.6455078125	0.7783203125	-2.875	-13.125	24.0
19	02	10	17	59	03	0.32512171288	0.0311877595798	-0.351243750258	0.23876953125	0.58740234375	0.78125	3.375	-25.0625	21.6875
19	02	10	17	59	03	0.326283665979	0.0258170577458	-0.357532681501	0.291015625	0.615234375	0.79296875	30.5625	-31.1875	17.75
19	02	10	17	59	03	0.32756932533	0.0202632785559	-0.367424508755	0.3935546875	0.6865234375	0.8427734375	51.625	-35.0625	19.625
19	02	10	17	59	03	0.330132190122	0.0144650266332	-0.377799640757	0.40478515625	0.69189453125	0.8701171875	57.625	-35.6875	28.375
19	02	10	17	59	03	0.332692061924	0.00707985308809	-0.384509262543	0.33203125	0.77099609375	0.88134765625	30.5	-42.125	34.0625
19	02	10	17	59	03	0.333250253579	-0.00189208019431	-0.390134729098	0.39404296875	0.7216796875	0.85009765625	21.4375	-49.875	22.75
19	02	10	17	59	03	0.333123811359	-0.0111081959816	-0.396233012705	0.4521484375	0.6962890625	0.86474609375	25.875	-52.75	17.75
19	02	10	17	59	03	0.333245715583	-0.0192867483744	-0.403251729461	0.4482421875	0.70849609375	0.84423828125	33.125	-49.8125	19.25
19	02	10	17	59	03	0.333359320757	-0.026793251888	-0.410809518129	0.4384765625	0.73486328125	0.77783203125	34.5625	-48.5	19.875
19	02	10	17	59	03	0.333122765253	-0.0342399910786	-0.418631192172	0.44384765625	0.73291015625	0.69921875	33.4375	-48.5625	18.75
19	02	10	17	59	03	0.332210165052	-0.0404657981682	-0.426569326391	0.43359375	0.69091796875	0.67578125	37.8125	-45.5625	12.375
19	02	10	17	59	03	0.330060623127	-0.0454077484479	-0.435157589292	0.39990234375	0.62841796875	0.6220703125	43.8125	-44.75	3.5625
19	02	10	17	59	03	0.327379678836	-0.0476055461394	-0.445233921906	0.33935546875	0.634765625	0.61181640625	58.3125	-38.9375	-2.0625
19	02	10	17	59	03	0.325240122734	-0.0482153681666	-0.455726777342	0.29541015625	0.6640625	0.63720703125	65.875	-34.25	0.0625
19	02	10	17	59	03	0.324462079578	-0.0482176529094	-0.466246393133	0.26220703125	0.68310546875	0.615234375	69.0	-29.625	8.625
19	02	10	17	59	03	0.323780540551	-0.0471785782932	-0.477034628641	0.228515625	0.6826171875	0.5478515625	71.0625	-24.8125	8.3125
19	02	10	17	59	03	0.322076341077	-0.046324794936	-0.485769489981	0.2021484375	0.70361328125	0.50390625	55.0625	-24.4375	4.0
19	02	10	17	59	03	0.318722426459	-0.0455317752084	-0.492976070185	0.22998046875	0.62451171875	0.47802734375	45.6875	-24.625	-9.9375
19	02	10	17	59	03	0.31554131088	-0.0437607582014	-0.498579684445	0.21435546875	0.5458984375	0.4443359375	39.125	-16.0625	-14.3125
19	02	10	17	59	03	0.313353585171	-0.0413206811766	-0.504332036281	0.2060546875	0.56884765625	0.41943359375	41.6875	-10.375	-9.875
19	02	10	17	59	03	0.311574493071	-0.0372912860463	-0.512984057641	0.2060546875	0.63037109375	0.3701171875	59.5625	-6.3125	-8.3125
19	02	10	17	59	03	0.309738407696	-0.0324691296344	-0.521947362092	0.205078125	0.6630859375	0.37451171875	63.9375	-3.8125	-10.125
19	02	10	17	59	03	0.307301002514	-0.0270986385534	-0.529461012276	0.181640625	0.6484375	0.369140625	55.9375	-0.75	-15.5
19	02	10	17	59	03	0.303756255979	-0.0215442954311	-0.534396177889	0.11767578125	0.6650390625	0.24560546875	31.3125	2.5625	-20.625
19	02	10	17	59	03	0.301075457358	-0.017028188243	-0.536235347323	0.08203125	0.7529296875	0.06396484375	-2.4375	9.875	-12.4375
19	02	10	17	59	03	0.30333946859	-0.0125119901531	-0.535330076258	-0.001953125	0.90673828125	0.16455078125	-12.875	24.9375	18.5
19	02	10	17	59	03	0.308646989038	-0.0098874455654	-0.536485472345	0.07958984375	0.7744140625	0.361328125	17.0625	19.25	35.0
19	02	10	17	59	03	0.311145701185	-0.00909390142734	-0.536051921049	0.14404296875	0.66162109375	0.38916015625	4.5	6.9375	17.875
19	02	10	17	59	03	0.309245147952	-0.0103142747195	-0.534206193018	0.19482421875	0.8310546875	0.369140625	-20.0625	-10.9375	0.25
19	02	10	17	59	03	0.308213010298	-0.0133050368802	-0.531469087857	0.4013671875	0.8857421875	0.357421875	-30.875	-8.3125	-0.8125
19	02	10	17	59	03	0.310352530191	-0.0153803023811	-0.528606344933	0.46337890625	0.7529296875	0.41162109375	-19.0	6.5	5.875
19	02	10	17	59	03	0.313223266339	-0.0152583430602	-0.528549003604	0.373046875	0.7783203125	0.49755859375	8.25	8.25	12.3125
19	02	10	17	59	03	0.314562119661	-0.0137323393333	-0.531349983269	0.3583984375	0.97265625	0.42431640625	17.5	6.0625	8.875
19	02	10	17	59	03	0.314935106683	-0.0137326354658	-0.532276950655	0.39404296875	0.97412109375	0.3671875	-1.6875	2.25	4.8125
19	02	10	17	59	03	0.314569838182	-0.0138547445222	-0.529593031802	0.32958984375	0.84765625	0.34326171875	-24.5	4.875	-2.75
19	02	10	17	59	03	0.314316674937	-0.0138543466429	-0.526404140065	0.265625	0.76123046875	0.37548828125	-23.25	4.3125	-1.5625
19	02	10	17	59	03	0.314683359093	-0.0145867577237	-0.525062245593	0.31591796875	0.70654296875	0.4267578125	-7.5625	-0.375	1.9375
19	02	10	17	59	03	0.314687612446	-0.0147700547347	-0.525130375774	0.359375	0.73779296875	0.38720703125	-0.5625	0.8125	-1.6875
19	02	10	17	59	03	0.315113522545	-0.0146479266726	-0.525067138186	0.32763671875	0.7578125	0.40234375	-0.625	2.0	1.6875
19	02	10	17	59	03	0.315303077996	-0.0148313294528	-0.525383061438	0.3427734375	0.7216796875	0.37890625	1.1875	0.5625	0.1875
19	02	10	17	59	03	0.317125958642	-0.0154412755074	-0.52640711957	0.375	0.7822265625	0.388671875	6.0625	2.5625	10.3125
19	02	10	17	59	03	0.31957820544	-0.0145873168641	-0.527828938244	0.330078125	0.8017578125	0.34423828125	8.75	10.0625	13.3125
19	02	10	17	59	03	0.321888697626	-0.0122676579869	-0.530866115274	0.30322265625	0.84375	0.2802734375	17.5625	13.625	12.5625
19	02	10	17	59	03	0.324703609871	-0.0107420743115	-0.533380610276	0.30908203125	0.896484375	0.3955078125	18.5	9.9375	17.9375
19	02	10	17	59	03	0.326224029624	-0.00982639266034	-0.537644055559	0.412109375	0.884765625	0.30224609375	23.125	5.0	8.875
19	02	10	17	59	03	0.327573802495	-0.00854487280591	-0.54095148342	0.40673828125	0.84228515625	0.30517578125	19.3125	7.375	5.0625
19	02	10	17	59	04	0.328535184301	-0.00665248654817	-0.542452297616	0.35791015625	0.72509765625	0.31982421875	12.625	10.5625	-1.1875
19	02	10	17	59	04	0.330495301336	-0.00415026417191	-0.54386770641	0.3701171875	0.7392578125	0.4619140625	22.375	13.5	1.5
19	02	10	17	59	04	0.332939591143	-0.00140377829446	-0.546435959578	0.3828125	0.75341796875	0.4375	29.9375	14.4375	4.3125
19	02	10	17	59	04	0.334776478888	0.00238036147249	-0.547605208492	0.31640625	0.8037109375	0.439453125	20.9375	17.5625	0.9375
19	02	10	17	59	04	0.336286805286	0.00433327825323	-0.549105696398	0.37255859375	0.7724609375	0.3896484375	17.1875	10.9375	1.5625
19	02	10	17	59	04	0.337083079574	0.00628635835527	-0.550880296259	0.43212890625	0.7373046875	0.369140625	18.375	10.3125	-6.4375
19	02	10	17	59	04	0.337998501297	0.00964314973003	-0.553138392425	0.3798828125	0.74609375	0.388671875	25.75	13.5	-6.375
19	02	10	17	59	04	0.338801354378	0.0133665099277	-0.556388605027	0.34912109375	0.771484375	0.3759765625	31.875	12.6875	-4.375
19	02	10	17	59	04	0.3389850817	0.0177610116627	-0.560784107068	0.32470703125	0.7861328125	0.28076171875	34.9375	13.0	-6.375
19	02	10	17	59	04	0.339101520381	0.022704421451	-0.564070599598	0.35791015625	0.79052734375	0.32421875	31.9375	16.5625	-12.4375
19	02	10	17	59	04	0.338988661125	0.0268554214791	-0.566283182917	0.3544921875	0.74267578125	0.3583984375	26.375	13.75	-14.0625
19	02	10	17	59	04	0.338674421634	0.0318594427993	-0.56938073156	0.3232421875	0.7734375	0.38623046875	35.625	13.75	-13.8125
19	02	10	17	59	04	0.339038820539	0.0371691524227	-0.572124195091	0.27490234375	0.9140625	0.34130859375	29.25	17.6875	-6.0625
19	02	10	17	59	04	0.339031008939	0.0406471020618	-0.573819900278	0.29443359375	0.93505859375	0.2958984375	14.75	12.0	-5.0
19	02	10	17	59	04	0.338491148014	0.0451647042067	-0.575117578026	0.26513671875	0.8466796875	0.2822265625	15.5625	15.125	-12.0625
19	02	10	17	59	04	0.33843302368	0.0496205677641	-0.577136640562	0.22607421875	0.828125	0.31005859375	23.4375	13.5625	-6.8125
19	02	10	17	59	04	0.339283683406	0.0522444383873	-0.5802428455	0.3603515625	0.83544921875	0.306640625	28.25	10.125	-2.5625
19	02	10	17	59	04	0.340319610944	0.0565775249902	-0.583718930967	0.42138671875	0.89501953125	0.28955078125	33.375	19.0	-8.625
19	02	10	17	59	04	0.340867396319	0.0627415726798	-0.584998029315	0.2529296875	0.85986328125	0.33642578125	25.6875	23.9375	-12.1875
19	02	10	17	59	04	0.340311201356	0.0674397197808	-0.585047198026	0.21728515625	0.751953125	0.38671875	18.6875	14.3125	-15.5625
19	02	10	17	59	04	0.337450262578	0.0720797178702	-0.58536543107	0.27880859375	0.79931640625	0.43115234375	19.75	6.1875	-30.125
19	02	10	17	59	04	0.335808459902	0.0747665146093	-0.586108440648	0.35009765625	0.88623046875	0.45751953125	19.625	2.75	-20.5
19	02	10	17	59	04	0.334701455237	0.0762904484037	-0.585727546664	0.3447265625	0.9521484375	0.28466796875	-2.25	4.75	-14.625
19	02	10	17	59	04	0.333605502266	0.0787323633229	-0.583412915507	0.27197265625	0.95166015625	0.2470703125	-16.4375	11.25	-16.9375
19	02	10	17	59	04	0.333794328494	0.0795271548779	-0.581713977852	0.291015625	0.81298828125	0.267578125	-10.0625	7.8125	-8.0
19	02	10	17	59	04	0.334766668775	0.082211614009	-0.58311043819	0.32421875	0.89599609375	0.2734375	14.75	14.625	-4.6875
19	02	10	17	59	04	0.336001175632	0.0844733200862	-0.583500679208	0.2568359375	1.04443359375	0.26171875	3.625	13.875	3.4375
19	02	10	17	59	04	0.33720607429	0.085262784757	-0.581886463761	0.251953125	0.984375	0.25	-13.3125	10.875	2.4375
19	02	10	17	59	04	0.336972158339	0.0853874387822	-0.577631680225	0.26806640625	0.81982421875	0.26171875	-30.8125	7.6875	-12.0625
19	02	10	17	59	04	0.336593642665	0.0873373531557	-0.573277259393	0.205078125	0.72900390625	0.29931640625	-22.8125	12.9375	-16.8125
19	02	10	17	59	04	0.336606354363	0.0897210046988	-0.570247174763	0.15234375	0.82763671875	0.330078125	-13.625	12.6875	-8.25
19	02	10	17	59	04	0.338431444652	0.0900245952862	-0.569931980191	0.28662109375	0.9619140625	0.30517578125	-2.6875	9.75	6.4375
19	02	10	17	59	04	0.341064617663	0.0896606877858	-0.567993438077	0.3359375	0.9755859375	0.240234375	-19.3125	14.1875	6.8125
19	02	10	17	59	04	0.342709602568	0.0910637091775	-0.562922647281	0.1630859375	0.9365234375	0.28369140625	-34.1875	18.8125	0.25
19	02	10	17	59	04	0.343739707893	0.0916110265531	-0.557905658709	0.13818359375	0.90478515625	0.2841796875	-36.25	12.25	0.4375
19	02	10	17	59	04	0.34538723273	0.0903902618259	-0.551374493812	0.1962890625	0.95263671875	0.31396484375	-50.4375	10.5625	3.3125
19	02	10	17	59	04	0.348187939896	0.0891068172215	-0.546053899781	0.24609375	0.9306640625	0.37451171875	-37.625	12.8125	8.625
19	02	10	17	59	04	0.351316866086	0.0872188675533	-0.540464011326	0.31640625	0.82080078125	0.32763671875	-41.1875	14.25	5.75
19	02	10	17	59	04	0.353557168226	0.0862379214058	-0.531831031232	0.17724609375	0.7734375	0.42578125	-53.3125	15.5	0.4375
19	02	10	17	59	04	0.355762486478	0.0847751061448	-0.525251665574	0.17578125	0.78515625	0.50634765625	-37.0	8.375	6.125
19	02	10	17	59	04	0.358268305304	0.0821514717103	-0.521167471719	0.33935546875	0.81982421875	0.4169921875	-30.8125	6.6875	6.5625
19	02	10	17	59	04	0.360453255162	0.0823928029916	-0.515473788198	0.20361328125	0.83447265625	0.38232421875	-37.5625	17.9375	2.4375
19	02	10	17	59	04	0.362609129784	0.0815428038027	-0.510619084292	0.20703125	0.8330078125	0.470703125	-30.3125	10.4375	6.8125
19	02	10	17	59	04	0.364483407997	0.0806843712946	-0.507054278908	0.271484375	0.8408203125	0.43359375	-25.1875	9.875	4.3125
19	02	10	17	59	04	0.366758475012	0.0813594686621	-0.502988283004	0.16455078125	0.88818359375	0.36376953125	-30.5	16.625	8.4375
19	02	10	17	59	04	0.369179703432	0.0800123311621	-0.498261381851	0.2138671875	0.8701171875	0.43115234375	-35.8125	10.0	10.625
19	02	10	17	59	04	0.370539516758	0.0783070663813	-0.494195102486	0.2724609375	0.85009765625	0.515625	-28.0	4.6875	3.125
19	02	10	17	59	04	0.371516319566	0.0765981569009	-0.489739929062	0.30712890625	0.8671875	0.5009765625	-33.25	6.0	-1.25
19	02	10	17	59	04	0.374376992085	0.0747655388497	-0.48332106298	0.2265625	0.8544921875	0.490234375	-44.875	11.875	10.9375
19	02	10	17	59	05	0.377618774375	0.0715321163031	-0.47582284872	0.24560546875	0.7880859375	0.53662109375	-50.8125	8.9375	13.0
19	02	10	17	59	05	0.380968268816	0.0689063081534	-0.470076514967	0.31591796875	0.75146484375	0.5595703125	-36.4375	11.125	10.75
19	02	10	17	59	05	0.384557849697	0.066646115199	-0.465851462741	0.3251953125	0.7724609375	0.58642578125	-25.6875	10.8125	14.0625
19	02	10	17	59	05	0.388047726245	0.063596371618	-0.462080738503	0.35302734375	0.78564453125	0.6162109375	-24.625	6.25	15.75
19	02	10	17	59	05	0.391889827855	0.0603611648885	-0.458110114917	0.36572265625	0.80224609375	0.59423828125	-28.3125	7.5625	17.9375
19	02	10	17	59	05	0.395556013148	0.057676351246	-0.452927198515	0.3037109375	0.7255859375	0.5234375	-36.125	11.25	16.1875
19	02	10	17	59	05	0.398849688968	0.0570657167842	-0.448164233526	0.1591796875	0.67138671875	0.5	-28.1875	13.25	16.4375
19	02	10	17	59	05	0.400811535754	0.0565176613534	-0.445793734909	0.17919921875	0.6904296875	0.537109375	-13.9375	5.4375	12.1875
19	02	10	17	59	05	0.402703836464	0.0566397636008	-0.446038138357	0.25390625	0.75341796875	0.5	-1.625	6.375	11.5
19	02	10	17	59	05	0.403866039142	0.0571894330778	-0.445125438032	0.23486328125	0.7607421875	0.45654296875	-10.8125	8.9375	5.75
19	02	10	17	59	05	0.404837831881	0.0576159977832	-0.44365538971	0.271484375	0.69970703125	0.490234375	-10.25	9.6875	0.6875
19	02	10	17	59	05	0.405395532731	0.0581665074816	-0.441833523252	0.23974609375	0.67724609375	0.49853515625	-11.375	8.9375	-1.0
19	02	10	17	59	05	0.406547286035	0.0590808846843	-0.440238038459	0.20166015625	0.66455078125	0.50341796875	-7.875	10.0	3.3125
19	02	10	17	59	05	0.408250760144	0.0590800920645	-0.439011469235	0.2744140625	0.69970703125	0.5732421875	-5.375	8.4375	6.5
19	02	10	17	59	05	0.409165263688	0.0586527175423	-0.435653587739	0.248046875	0.677734375	0.5390625	-21.3125	8.25	0.375
19	02	10	17	59	05	0.409474258002	0.060667374043	-0.430897043001	0.1005859375	0.70751953125	0.52001953125	-26.4375	15.5	-3.125
19	02	10	17	59	05	0.410520119576	0.0606075644869	-0.428281248746	0.27001953125	0.6435546875	0.60498046875	-11.8125	9.0625	-0.6875
19	02	10	17	59	05	0.410815343148	0.0617046964675	-0.426500908917	0.28759765625	0.7060546875	0.53564453125	-11.0	13.1875	-5.9375
19	02	10	17	59	05	0.411313011281	0.0636592180986	-0.42431340769	0.1689453125	0.7373046875	0.54443359375	-12.125	12.8125	-1.0
19	02	10	17	59	05	0.412396715521	0.0629245247451	-0.423077405948	0.310546875	0.728515625	0.6025390625	-9.6875	5.4375	2.5625
19	02	10	17	59	05	0.412163308863	0.0626209913955	-0.420280844785	0.2265625	0.65283203125	0.5517578125	-18.5625	4.6875	-5.5625
19	02	10	17	59	05	0.412035115691	0.0632914257104	-0.416917771483	0.13623046875	0.6953125	0.607421875	-18.6875	6.25	-2.625
19	02	10	17	59	05	0.413439737059	0.0593854242926	-0.415148670132	0.375	0.69580078125	0.693359375	-15.625	-5.6875	7.125
19	02	10	17	59	05	0.414735169078	0.0564576940982	-0.412659967349	0.3779296875	0.67529296875	0.63330078125	-20.0	1.0625	2.8125
19	02	10	17	59	05	0.416369188492	0.0571271709804	-0.408923125608	0.1787109375	0.71337890625	0.71923828125	-15.875	11.3125	6.125
19	02	10	17	59	05	0.418146095855	0.0552360555757	-0.406732678847	0.302734375	0.69921875	0.73583984375	-12.3125	1.625	8.375
19	02	10	17	59	05	0.419607844005	0.0545642781877	-0.404227309214	0.279296875	0.8173828125	0.607421875	-23.1875	8.5	6.875
19	02	10	17	59	05	0.420526068375	0.0535270481807	-0.400689933074	0.240234375	0.75634765625	0.61328125	-28.1875	6.0625	3.8125
19	02	10	17	59	05	0.422228527857	0.0523055577296	-0.399951364996	0.36328125	0.7314453125	0.6357421875	-9.625	5.875	6.6875
19	02	10	17	59	05	0.422835262022	0.0525492437356	-0.398422140658	0.28466796875	0.69677734375	0.6259765625	-10.625	8.875	-0.625
19	02	10	17	59	05	0.423887124698	0.0547482722612	-0.397947307852	0.18701171875	0.708984375	0.6650390625	2.4375	10.8125	3.9375
19	02	10	17	59	05	0.425285082126	0.0541982136808	-0.399040451627	0.34716796875	0.7275390625	0.673828125	4.25	3.125	7.1875
19	02	10	17	59	05	0.426988272913	0.0539533495219	-0.401110195767	0.353515625	0.658203125	0.6025390625	11.375	4.25	8.25
19	02	10	17	59	05	0.429680029678	0.0534048332341	-0.401726414111	0.3427734375	0.69921875	0.6767578125	4.3125	6.4375	14.0
19	02	10	17	59	05	0.43273795687	0.0509642022548	-0.400328386335	0.3115234375	0.5625	0.62939453125	-7.75	2.375	16.25
19	02	10	17	59	05	0.435955406635	0.050473907502	-0.397321811171	0.1513671875	0.6328125	0.59521484375	-17.1875	8.875	20.25
19	02	10	17	59	05	0.440179062354	0.0472405150114	-0.396478534256	0.27978515625	0.61083984375	0.68115234375	-6.0	-2.375	29.1875
19	02	10	17	59	05	0.44482337446	0.0443724743733	-0.396056377178	0.3798828125	0.77978515625	0.67724609375	-10.875	3.6875	30.875
19	02	10	17	59	05	0.447928823655	0.0440665772829	-0.394218867964	0.20654296875	0.74755859375	0.626953125	-14.6875	8.25	21.4375
19	02	10	17	59	05	0.450182069799	0.0437609197459	-0.392444510413	0.205078125	0.76220703125	0.66748046875	-14.125	4.9375	17.125
19	02	10	17	59	05	0.452208107285	0.0435789699826	-0.392332799788	0.3037109375	0.72607421875	0.6416015625	-4.5625	6.0	12.6875
19	02	10	17	59	05	0.453234986366	0.0450427444032	-0.392140423836	0.21240234375	0.7177734375	0.625	-1.5	7.4375	7.125
19	02	10	17	59	05	0.454283275177	0.0455320869653	-0.392821061271	0.244140625	0.65673828125	0.63232421875	4.5	2.0625	7.8125
19	02	10	17	59	05	0.454574155325	0.0454085890926	-0.393541105469	0.30419921875	0.66455078125	0.6416015625	2.125	0.4375	2.1875
19	02	10	17	59	05	0.454880397395	0.0455307629755	-0.393664103475	0.2724609375	0.5732421875	0.67041015625	5.0625	0.5625	0.5625
19	02	10	17	59	05	0.454824131825	0.0463246800933	-0.39275272253	0.21044921875	0.6025390625	0.72802734375	2.3125	1.5	-1.3125
19	02	10	17	59	05	0.454686949227	0.046445203807	-0.391335935362	0.18505859375	0.5966796875	0.74072265625	-2.25	-2.125	-0.3125
19	02	10	17	59	05	0.45476621423	0.0452263809884	-0.389947838239	0.267578125	0.64892578125	0.64990234375	-12.5625	-1.8125	1.1875
19	02	10	17	59	05	0.454516829311	0.0454699929954	-0.386708557878	0.24853515625	0.57470703125	0.572265625	-19.25	9.4375	-7.125
19	02	10	17	59	05	0.454089941241	0.0479724050827	-0.384877845358	0.13134765625	0.55322265625	0.59765625	-3.625	10.1875	-6.25
19	02	10	17	59	05	0.453677665314	0.0502933399998	-0.385012607669	0.1982421875	0.66064453125	0.6083984375	2.6875	7.6875	-3.875
19	02	10	17	59	06	0.452742383833	0.0520611018346	-0.383531024535	0.24267578125	0.5654296875	0.537109375	-7.4375	11.375	-12.4375
19	02	10	17	59	06	0.450481331496	0.0574926723031	-0.38029388654	0.05859375	0.52099609375	0.544921875	-5.4375	21.0	-23.3125
19	02	10	17	59	06	0.448897054149	0.0639624898366	-0.379441602399	0.0546875	0.54296875	0.62548828125	13.8125	20.75	-17.1875
19	02	10	17	59	06	0.446397677998	0.0700662475174	-0.378833796464	0.11328125	0.6201171875	0.58544921875	8.4375	20.0	-23.6875
19	02	10	17	59	06	0.442558382015	0.076780919125	-0.380059446257	0.138671875	0.69287109375	0.6259765625	18.1875	17.0625	-30.8125
19	02	10	17	59	06	0.437670565043	0.0831275009885	-0.381153629716	0.248046875	0.72412109375	0.6796875	17.75	17.9375	-41.625
19	02	10	17	59	06	0.431695104421	0.0899644541095	-0.381586002098	0.146484375	0.6953125	0.70751953125	17.6875	14.5625	-46.375
19	02	10	17	59	06	0.426871426106	0.0943584822363	-0.382316644714	0.26806640625	0.71337890625	0.76611328125	16.1875	10.8125	-40.75
19	02	10	17	59	06	0.423516795355	0.0978989681149	-0.382806937666	0.3525390625	0.68505859375	0.74853515625	14.6875	15.625	-35.1875
19	02	10	17	59	06	0.420287830729	0.102355894878	-0.381530530045	0.22412109375	0.6923828125	0.76904296875	7.625	18.25	-33.6875
19	02	10	17	59	06	0.418496585203	0.105402304601	-0.378032353617	0.25048828125	0.78759765625	0.7333984375	-14.5	22.4375	-26.8125
19	02	10	17	59	06	0.419420783302	0.103695563276	-0.375049579946	0.2470703125	0.79833984375	0.7578125	-23.0	4.9375	-0.625
19	02	10	17	59	06	0.420157234902	0.103513461707	-0.372917011222	0.25537109375	0.837890625	0.6279296875	-22.8125	11.6875	-2.875
19	02	10	17	59	06	0.421014152704	0.104490610239	-0.369501258404	0.103515625	0.75830078125	0.6708984375	-21.0	12.6875	-0.125
19	02	10	17	59	06	0.420594178318	0.107666250262	-0.367127264923	0.05126953125	0.83349609375	0.65576171875	-14.625	15.6875	-7.0625
19	02	10	17	59	06	0.420836170888	0.108886400125	-0.365538481138	0.09326171875	0.8359375	0.62158203125	-17.0	8.875	-0.625
19	02	10	17	59	06	0.420397250986	0.111446774144	-0.363392164978	0.07470703125	0.73193359375	0.56787109375	-14.1875	14.75	-8.1875
19	02	10	17	59	06	0.419907949237	0.114498155926	-0.362597838142	0.03173828125	0.685546875	0.6669921875	1.6875	11.1875	-5.3125
19	02	10	17	59	06	0.420895071895	0.115660696236	-0.362423859761	0.11865234375	0.75439453125	0.69921875	-1.0625	8.875	3.6875
19	02	10	17	59	06	0.421633192665	0.116333651595	-0.361879444023	0.1474609375	0.7265625	0.65283203125	-5.625	8.25	0.6875
19	02	10	17	59	06	0.423020612977	0.117427739052	-0.360949921389	0.17724609375	0.76416015625	0.63134765625	-9.1875	14.5	2.375
19	02	10	17	59	06	0.425885600532	0.117792950563	-0.359421080759	0.10009765625	0.69921875	0.70361328125	-7.375	11.125	14.1875
19	02	10	17	59	06	0.425896443303	0.119871111299	-0.358392650484	0.00439453125	0.712890625	0.63818359375	-5.0	7.8125	-0.0625
19	02	10	17	59	06	0.426813709586	0.121702636481	-0.35723446907	0.044921875	0.7724609375	0.63427734375	-9.0625	10.9375	3.6875
19	02	10	17	59	06	0.427535652651	0.123347545183	-0.35429614042	0.03369140625	0.654296875	0.6435546875	-13.6875	13.0625	-0.4375
19	02	10	17	59	06	0.427732483606	0.126098075218	-0.353453026906	0.00439453125	0.73681640625	0.6689453125	-2.0625	11.5	-0.3125
19	02	10	17	59	06	0.428814278829	0.126825515429	-0.352096438167	0.10595703125	0.68994140625	0.638671875	-9.125	9.875	2.375
19	02	10	17	59	06	0.428348380782	0.128663206995	-0.350466857003	0.03857421875	0.6826171875	0.689453125	-5.4375	9.0	-6.5
19	02	10	17	59	06	0.429549699236	0.128291200312	-0.348497979914	0.10498046875	0.66357421875	0.73046875	-10.1875	6.1875	3.25
19	02	10	17	59	06	0.431194432726	0.127008579547	-0.345932065773	0.0537109375	0.6708984375	0.79541015625	-13.8125	0.6875	9.0625
19	02	10	17	59	06	0.432605956525	0.1242033185	-0.343252807491	0.13720703125	0.6865234375	0.7861328125	-20.5	-2.0	6.25
19	02	10	17	59	06	0.434201799827	0.122741048559	-0.340391261967	0.20166015625	0.71923828125	0.83740234375	-17.6875	7.6875	2.0625
19	02	10	17	59	06	0.436450473244	0.122494210572	-0.337637256046	0.0654296875	0.697265625	0.81103515625	-13.375	8.25	10.6875
19	02	10	17	59	06	0.436011897311	0.125237459866	-0.336651963265	-0.009765625	0.70947265625	0.6552734375	-4.5625	9.8125	-3.9375
19	02	10	17	59	06	0.436154251562	0.129332613918	-0.33721693813	0.01611328125	0.8017578125	0.638671875	2.8125	16.375	-0.625
19	02	10	17	59	06	0.437068935774	0.131712716576	-0.336605946207	0.04931640625	0.69677734375	0.62939453125	-2.875	13.75	2.125
19	02	10	17	59	06	0.436942861564	0.135556655334	-0.337945610348	0.0322265625	0.75341796875	0.669921875	11.0	13.625	-1.6875
19	02	10	17	59	06	0.440232545546	0.136653357754	-0.340077047523	0.20458984375	0.80810546875	0.67578125	6.125	15.625	16.3125
19	02	10	17	59	06	0.443479627191	0.137267503654	-0.339964426569	0.0966796875	0.64892578125	0.6904296875	1.5	12.0	17.4375
19	02	10	17	59	06	0.44578787373	0.140193694682	-0.340200110648	-0.017578125	0.68701171875	0.66455078125	6.8125	14.75	14.5
19	02	10	17	59	06	0.448528326306	0.142816204049	-0.341233075572	0.01123046875	0.71533203125	0.67822265625	10.0	13.75	17.8125
19	02	10	17	59	06	0.451832366453	0.14428363019	-0.342032768013	0.03466796875	0.775390625	0.71044921875	4.125	11.125	21.4375
19	02	10	17	59	06	0.455066710987	0.14397832232	-0.341055898739	0.1015625	0.7353515625	0.72412109375	-7.875	10.0625	17.5625
19	02	10	17	59	06	0.45819914286	0.144533844451	-0.340887466747	0.091796875	0.7919921875	0.75146484375	-2.9375	10.9375	18.0
19	02	10	17	59	06	0.460196618664	0.146664784436	-0.341546455974	0.01123046875	0.79736328125	0.7158203125	4.375	10.0625	14.0
19	02	10	17	59	06	0.462016394281	0.148675288833	-0.341721240631	0.0771484375	0.75048828125	0.7041015625	3.5	13.8125	8.875
19	02	10	17	59	06	0.464523785721	0.148737940586	-0.340138097205	0.12841796875	0.7138671875	0.66064453125	-12.375	13.125	9.625
19	02	10	17	59	06	0.46636733213	0.148986082676	-0.338316204947	0.00927734375	0.5791015625	0.68701171875	-5.1875	6.625	9.875
19	02	10	17	59	06	0.468138019591	0.15148873072	-0.338377728893	0.0498046875	0.65966796875	0.6328125	4.875	15.3125	8.5625
19	02	10	17	59	07	0.471494991563	0.150695292449	-0.337828450266	0.11767578125	0.59375	0.68798828125	-1.5625	7.8125	18.1875
19	02	10	17	59	07	0.475339181445	0.150084623417	-0.337339452472	0.06298828125	0.69580078125	0.69091796875	-5.9375	7.0625	24.5625
19	02	10	17	59	07	0.479492683184	0.149292146521	-0.335693706405	0.056640625	0.662109375	0.6845703125	-11.6875	9.1875	24.8125
19	02	10	17	59	07	0.483559909527	0.149895637738	-0.334884920305	0.12646484375	0.7197265625	0.67822265625	-5.8125	17.0625	21.125
19	02	10	17	59	07	0.488386851537	0.151606215848	-0.334461377958	0.060546875	0.7568359375	0.7607421875	2.125	19.5	28.6875
19	02	10	17	59	07	0.49246914772	0.15270266546	-0.33506699975	0.0390625	0.8076171875	0.736328125	1.6875	10.75	28.5625
19	02	10	17	59	07	0.494794757318	0.154291494573	-0.335193389317	0.04541015625	0.7880859375	0.67333984375	-1.75	11.0625	15.5625
19	02	10	17	59	07	0.497742063576	0.156128043976	-0.334778077095	0.03564453125	0.7587890625	0.6865234375	-1.3125	14.6875	18.0625
19	02	10	17	59	07	0.500412986224	0.159419285281	-0.335012426074	-0.01904296875	0.68359375	0.697265625	11.6875	16.0625	17.875
19	02	10	17	59	07	0.502070812144	0.163877963847	-0.335751463361	0.0302734375	0.7294921875	0.66162109375	13.75	20.875	9.0
19	02	10	17	59	07	0.505721413742	0.165705242374	-0.335926944393	0.04345703125	0.689453125	0.7353515625	8.9375	15.25	22.6875
19	02	10	17	59	07	0.510612212745	0.16753891035	-0.336603675985	0.06982421875	0.66796875	0.658203125	9.1875	18.75	30.75
19	02	10	17	59	07	0.51408321923	0.171076251158	-0.337819140263	0.0390625	0.61474609375	0.58740234375	17.5	20.75	22.0
19	02	10	17	59	07	0.518979914213	0.17565849619	-0.340941056191	0.0771484375	0.7607421875	0.67041015625	28.75	25.9375	33.1875
19	02	10	17	59	07	0.526838836725	0.176752232525	-0.345081879384	0.19873046875	0.83544921875	0.6904296875	21.25	20.625	54.6875
19	02	10	17	59	07	0.533983627237	0.175654918183	-0.34703747908	0.15771484375	0.75830078125	0.58935546875	1.3125	12.75	50.1875
19	02	10	17	59	07	0.540571280129	0.176813254887	-0.348621785265	0.20703125	0.916015625	0.63232421875	1.75	23.6875	41.9375
19	02	10	17	59	07	0.548813729931	0.173152196599	-0.349783305854	0.13671875	0.5966796875	0.75439453125	5.0625	3.0625	59.9375
19	02	10	17	59	07	0.553329039175	0.175959366859	-0.354848338161	0.06884765625	0.7880859375	0.6650390625	34.1875	8.5	43.0625
19	02	10	17	59	07	0.558836098175	0.174865161782	-0.359862127003	0.17724609375	0.78466796875	0.72900390625	24.25	-2.125	49.5625
19	02	10	17	59	07	0.563961409807	0.173338788296	-0.360227298775	0.04541015625	0.677734375	0.73828125	3.9375	0.9375	42.1875
19	02	10	17	59	07	0.565243217141	0.174620542516	-0.359555965033	-0.05712890625	0.716796875	0.77001953125	6.75	-0.1875	15.75
19	02	10	17	59	07	0.567928428562	0.173460783877	-0.358945415193	0.03271484375	0.72509765625	0.810546875	0.25	-3.0	24.4375
19	02	10	17	59	07	0.572695694732	0.171509634679	-0.359132630055	0.20263671875	0.85888671875	0.791015625	-5.375	5.125	34.625
19	02	10	17	59	07	0.578039673237	0.166680007139	-0.356796529378	0.18310546875	0.658203125	0.7060546875	-23.5625	0.875	35.1875
19	02	10	17	59	07	0.579944780423	0.165279990043	-0.353081514917	0.0498046875	0.5673828125	0.67626953125	-17.5	3.9375	9.3125
19	02	10	17	59	07	0.582700762297	0.164245077128	-0.35418587238	0.21142578125	0.6630859375	0.81494140625	10.8125	0.4375	20.8125
19	02	10	17	59	07	0.587635222597	0.159054568975	-0.356743651442	0.236328125	0.59326171875	0.81103515625	7.5625	-15.375	43.6875
19	02	10	17	59	07	0.591965471249	0.155147564482	-0.357962417659	0.20263671875	0.6953125	0.64501953125	-7.8125	-7.4375	38.0
19	02	10	17	59	07	0.596691608761	0.152102648223	-0.356879688669	0.3046875	0.69287109375	0.63427734375	-17.1875	9.0	29.4375
19	02	10	17	59	07	0.603555872739	0.150934742975	-0.3566771686	0.34033203125	0.69091796875	0.6962890625	-0.4375	20.75	43.125
19	02	10	17	59	07	0.611137097933	0.15167039732	-0.359187238723	0.2470703125	0.7841796875	0.68017578125	17.0	17.9375	59.8125
19	02	10	17	59	07	0.6164417946	0.151974264213	-0.363944794178	0.23486328125	0.8330078125	0.63134765625	19.875	2.3125	53.0
19	02	10	17	59	07	0.623027076393	0.14751728484	-0.368640629057	0.41796875	0.81298828125	0.55517578125	0.0	-3.8125	60.6875
19	02	10	17	59	07	0.628618587515	0.143497650184	-0.369334020104	0.40283203125	0.6953125	0.55908203125	-13.5	6.5	41.625
19	02	10	17	59	07	0.634762737738	0.142760581112	-0.371031027183	0.3720703125	0.736328125	0.8037109375	15.5	11.6875	47.3125
19	02	10	17	59	07	0.641345063875	0.140805392307	-0.376457589834	0.36767578125	0.69775390625	0.83984375	33.875	-6.1875	63.6875
19	02	10	17	59	07	0.643732944045	0.142149808162	-0.382260304215	0.25634765625	0.75	0.61328125	31.5625	-7.5	37.0
19	02	10	17	59	07	0.646652953339	0.144283868022	-0.386710062516	0.36669921875	0.83740234375	0.6826171875	29.25	4.8125	32.875
19	02	10	17	59	07	0.65026262706	0.144102690303	-0.388973504998	0.37646484375	0.62255859375	0.8447265625	27.5	1.1875	30.0625
19	02	10	17	59	07	0.651789097858	0.14623903722	-0.389706282407	0.18701171875	0.60595703125	0.78271484375	24.875	1.25	15.25
19	02	10	17	59	07	0.652650343238	0.149414387005	-0.391602413	0.220703125	0.71337890625	0.748046875	28.125	1.9375	13.625
19	02	10	17	59	07	0.654344945777	0.150997984876	-0.395133772872	0.35107421875	0.6484375	0.68115234375	30.875	0.1875	19.5625
19	02	10	17	59	07	0.654484552007	0.153931739267	-0.395388503954	0.205078125	0.66552734375	0.5732421875	12.1875	7.0	3.125
19	02	10	17	59	07	0.654714683443	0.157285330403	-0.397272105391	0.25830078125	0.6474609375	0.66748046875	28.0	3.75	5.0625
19	02	10	17	59	07	0.654920907718	0.158450575623	-0.402230082187	0.43212890625	0.6484375	0.681640625	35.625	-7.5	10.1875
19	02	10	17	59	07	0.655137435301	0.16070214898	-0.408194444503	0.3759765625	0.64599609375	0.60400390625	42.5625	-7.5	15.4375
19	02	10	17	59	07	0.655448486511	0.163450139387	-0.412531550454	0.22216796875	0.58251953125	0.50439453125	35.4375	-5.0	16.1875
19	02	10	17	59	07	0.655943028191	0.16503861061	-0.414976891102	0.14501953125	0.58642578125	0.578125	24.5	-7.875	16.8125
19	02	10	17	59	07	0.657409888383	0.16510015301	-0.421569965561	0.3427734375	0.587890625	0.64453125	45.0625	-17.125	31.375
19	02	10	17	59	08	0.658309041603	0.165523282109	-0.428639384311	0.37548828125	0.64208984375	0.583984375	43.6875	-16.9375	29.125
19	02	10	17	59	08	0.658495576741	0.167660334536	-0.433829507783	0.228515625	0.7080078125	0.55810546875	37.375	-13.0625	24.0625
19	02	10	17	59	08	0.659123293114	0.168763395265	-0.439761397064	0.36669921875	0.7109375	0.65087890625	43.0625	-15.125	25.9375
19	02	10	17	59	08	0.658892042449	0.170719874269	-0.445141238127	0.333984375	0.63671875	0.59814453125	43.5	-13.625	15.875
19	02	10	17	59	08	0.658089165767	0.173647159767	-0.448064604517	0.28564453125	0.77587890625	0.623046875	30.875	-7.4375	7.0625
19	02	10	17	59	08	0.657380747917	0.176261776992	-0.453288164031	0.40625	0.7373046875	0.61865234375	43.6875	-10.6875	10.1875
19	02	10	17	59	08	0.65629114151	0.180048253274	-0.456834296866	0.35546875	0.78759765625	0.5595703125	35.1875	-3.5625	3.125
19	02	10	17	59	08	0.654613928221	0.184756770231	-0.460518609644	0.2802734375	0.8408203125	0.4521484375	32.625	-2.625	3.625
19	02	10	17	59	08	0.652598517132	0.188296523134	-0.463447487896	0.32177734375	0.80126953125	0.4736328125	25.875	-5.3125	-3.875
19	02	10	17	59	08	0.650336007582	0.192506782535	-0.466984588833	0.36572265625	0.68603515625	0.50048828125	38.0	-4.75	-9.4375
19	02	10	17	59	08	0.647517598163	0.198546021946	-0.470150632354	0.3505859375	0.6845703125	0.52880859375	46.0625	-0.5	-17.5625
19	02	10	17	59	08	0.643794249747	0.205992187419	-0.474605999814	0.33740234375	0.75244140625	0.5341796875	57.3125	-3.1875	-18.0625
19	02	10	17	59	08	0.641825376481	0.212578716839	-0.479415969214	0.46337890625	0.8662109375	0.56494140625	58.625	2.8125	-6.125
19	02	10	17	59	08	0.640875345629	0.218263831997	-0.481511009683	0.41015625	0.88720703125	0.525390625	39.3125	10.3125	-5.8125
19	02	10	17	59	08	0.641235393366	0.221984877753	-0.480957062605	0.3359375	0.81103515625	0.53857421875	21.1875	13.0	-2.9375
19	02	10	17	59	08	0.641539546282	0.224853171773	-0.480345945128	0.32470703125	0.75048828125	0.544921875	19.25	9.1875	-3.625
19	02	10	17	59	08	0.640919944942	0.229183353324	-0.481803832527	0.3095703125	0.76513671875	0.51708984375	34.625	5.9375	-1.625
19	02	10	17	59	08	0.639452969994	0.234187367173	-0.484548738072	0.3203125	0.7861328125	0.47021484375	41.125	2.625	-3.5
19	02	10	17	59	08	0.638105092894	0.239312297392	-0.486925148839	0.32177734375	0.8134765625	0.4970703125	41.375	4.0625	-3.5
19	02	10	17	59	08	0.637005873198	0.24401163946	-0.489304980878	0.31494140625	0.810546875	0.52685546875	42.5625	2.5	-1.0
19	02	10	17	59	08	0.635559476244	0.248840486377	-0.491638488538	0.30859375	0.830078125	0.5166015625	42.3125	1.6875	-3.0
19	02	10	17	59	08	0.634025666252	0.253048749738	-0.493951647765	0.27880859375	0.85009765625	0.50732421875	38.375	-1.6875	-0.625
19	02	10	17	59	08	0.632268900139	0.25610583116	-0.496403413924	0.29736328125	0.8369140625	0.470703125	31.9375	-5.6875	-1.9375
19	02	10	17	59	08	0.630342791412	0.259082605494	-0.497536254414	0.25244140625	0.82470703125	0.4345703125	22.4375	-4.4375	-7.0
19	02	10	17	59	08	0.628476566662	0.261961874732	-0.499021502285	0.2216796875	0.80859375	0.4150390625	24.125	-5.375	-3.3125
19	02	10	17	59	08	0.626406704532	0.265321050823	-0.501345091204	0.20849609375	0.80224609375	0.3955078125	30.0625	-6.375	-0.875
19	02	10	17	59	08	0.624137601381	0.268429216788	-0.504082969862	0.21142578125	0.79443359375	0.37353515625	30.875	-8.5	-0.1875
19	02	10	17	59	08	0.62196185001	0.270940986476	-0.50611458884	0.25	0.80419921875	0.3671875	23.625	-7.5	-4.9375
19	02	10	17	59	08	0.62024254116	0.273622053929	-0.507815188197	0.26806640625	0.79931640625	0.38818359375	25.625	-4.3125	-4.1875
19	02	10	17	59	08	0.618523392045	0.277218595487	-0.509943057088	0.25732421875	0.826171875	0.33935546875	29.375	-0.8125	-2.25
19	02	10	17	59	08	0.616635314466	0.281981109852	-0.512265682897	0.23046875	0.87548828125	0.31689453125	34.6875	2.375	-0.875
19	02	10	17	59	08	0.615088937589	0.285145417386	-0.514018558481	0.2529296875	0.861328125	0.35791015625	27.4375	-1.5	-0.9375
19	02	10	17	59	08	0.613520972685	0.287290411702	-0.516048530049	0.31787109375	0.8046875	0.408203125	28.5	-6.1875	-4.375
19	02	10	17	59	08	0.611084687804	0.29071078386	-0.517944932152	0.22900390625	0.79541015625	0.3076171875	27.5625	-4.1875	-7.25
19	02	10	17	59	08	0.608697640517	0.293881393672	-0.519831325006	0.21484375	0.87451171875	0.28125	23.5	-5.125	-4.0
19	02	10	17	59	08	0.606891768193	0.296335063319	-0.523087846064	0.27978515625	0.8203125	0.36328125	35.8125	-8.0	2.75
19	02	10	17	59	08	0.604393270221	0.29877853542	-0.526753577258	0.25390625	0.8359375	0.3154296875	34.5625	-11.75	2.0
19	02	10	17	59	08	0.602364793904	0.299992193944	-0.528755315593	0.244140625	0.9189453125	0.28466796875	16.1875	-10.9375	0.5
19	02	10	17	59	08	0.600875155694	0.300773262292	-0.53044245588	0.259765625	0.78369140625	0.33203125	18.6875	-10.3125	-0.875
19	02	10	17	59	08	0.598944761258	0.302249511643	-0.532476724469	0.2724609375	0.77001953125	0.34228515625	24.8125	-10.125	-4.25
19	02	10	17	59	08	0.596611705799	0.304134642455	-0.535150019073	0.30078125	0.87890625	0.328125	28.125	-11.1875	-3.25
19	02	10	17	59	08	0.594854139609	0.305972070784	-0.53680916867	0.26708984375	0.92236328125	0.27734375	19.3125	-6.3125	-1.625
19	02	10	17	59	08	0.593871958589	0.306396426734	-0.537658590258	0.26123046875	0.90673828125	0.29638671875	9.4375	-7.0	1.1875
19	02	10	17	59	08	0.593013048289	0.306638282689	-0.537654584436	0.234375	0.8447265625	0.333984375	7.6875	-7.1875	-2.3125
19	02	10	17	59	08	0.591418425384	0.307122550726	-0.538379972168	0.26220703125	0.82568359375	0.25390625	7.125	-8.75	-5.9375
19	02	10	17	59	08	0.589770090645	0.308648178453	-0.538379589111	0.22900390625	0.8994140625	0.2294921875	5.3125	-3.6875	-7.8125
19	02	10	17	59	08	0.588695641775	0.310186754951	-0.540110703377	0.31689453125	0.798828125	0.310546875	24.1875	-3.8125	-2.5625
19	02	10	17	59	08	0.587214365547	0.312924649429	-0.541377343561	0.2373046875	0.82666015625	0.30126953125	26.4375	-1.8125	-3.4375
19	02	10	17	59	08	0.585807620367	0.313838589698	-0.542778408827	0.28662109375	0.90673828125	0.28515625	16.0625	-7.8125	-1.625
19	02	10	17	59	08	0.5849531156	0.313899611178	-0.543144592626	0.30078125	0.89697265625	0.3017578125	7.4375	-6.5625	-3.8125
19	02	10	17	59	09	0.584709719902	0.313716906085	-0.543511488072	0.31005859375	0.841796875	0.380859375	12.9375	-6.375	-1.3125
19	02	10	17	59	09	0.583627684886	0.314275146358	-0.544625583794	0.32861328125	0.8876953125	0.3017578125	14.625	-6.8125	-3.875
19	02	10	17	59	09	0.582872652231	0.314323995706	-0.544848603819	0.2607421875	1.005859375	0.314453125	6.125	-7.1875	1.1875
19	02	10	17	59	09	0.58202496764	0.312923868403	-0.545343234675	0.23193359375	0.87841796875	0.33056640625	2.9375	-14.5625	2.6875
19	02	10	17	59	09	0.580765877908	0.310494589692	-0.547012485319	0.3388671875	0.90625	0.291015625	1.125	-20.1875	0.8125
19	02	10	17	59	09	0.57942477628	0.30896957943	-0.547563432846	0.2314453125	0.91748046875	0.2421875	-4.6875	-15.6875	0.875
19	02	10	17	59	09	0.578001699121	0.308287917873	-0.548887991573	0.25	0.796875	0.27880859375	8.8125	-14.4375	-0.5625
19	02	10	17	59	09	0.575537029345	0.309251975365	-0.551124005831	0.244140625	0.85791015625	0.26220703125	19.75	-14.5	-2.5625
19	02	10	17	59	09	0.573106679726	0.310173391519	-0.553697955109	0.24169921875	0.95458984375	0.2294921875	18.875	-14.0	1.625
19	02	10	17	59	09	0.571278449375	0.310663173859	-0.555592705626	0.294921875	0.88330078125	0.2373046875	15.0625	-11.4375	-2.6875
19	02	10	17	59	09	0.569071985149	0.311695691565	-0.557170544018	0.24169921875	0.83056640625	0.20458984375	14.3125	-10.5625	-4.9375
19	02	10	17	59	09	0.566940070754	0.312918693375	-0.55882261684	0.26904296875	0.85986328125	0.17919921875	14.0625	-8.9375	-5.8125
19	02	10	17	59	09	0.5651962925	0.314825321459	-0.560679605065	0.2548828125	0.84716796875	0.15087890625	18.625	-3.75	-2.3125
19	02	10	17	59	09	0.563942976413	0.316943276679	-0.562234058302	0.2314453125	0.8857421875	0.13232421875	17.125	-0.125	1.375
19	02	10	17	59	09	0.56382946633	0.31853496263	-0.56266982573	0.267578125	0.85595703125	0.15966796875	11.5	5.0	0.625
19	02	10	17	59	09	0.564043278368	0.319956158988	-0.56184594496	0.22119140625	0.9072265625	0.13330078125	0.8125	7.5	0.0
19	02	10	17	59	09	0.565356252721	0.320000305842	-0.560412513493	0.31005859375	0.912109375	0.193359375	-4.8125	8.4375	-0.25
19	02	10	17	59	09	0.566957345837	0.319825222541	-0.558656538534	0.33935546875	0.84375	0.2392578125	-3.6875	8.6875	-3.125
19	02	10	17	59	09	0.567924928217	0.320674645121	-0.55730494568	0.32470703125	0.89501953125	0.2509765625	2.75	8.6875	-4.25
19	02	10	17	59	09	0.569218059436	0.32110832197	-0.556400582224	0.353515625	0.955078125	0.22412109375	1.9375	9.25	0.1875
19	02	10	17	59	09	0.569952121625	0.321475457764	-0.555547677343	0.28662109375	0.9462890625	0.19970703125	-1.0	5.8125	1.125
19	02	10	17	59	09	0.570130652945	0.321594948117	-0.555299077239	0.2822265625	0.91943359375	0.169921875	-1.0	1.625	0.5625
19	02	10	17	59	09	0.569954631359	0.322087233849	-0.5552449434	0.26171875	0.8974609375	0.197265625	3.875	0.0	-0.0625
19	02	10	17	59	09	0.569388179554	0.323664435221	-0.555655481473	0.24609375	0.87744140625	0.23095703125	14.6875	1.0	-1.0625
19	02	10	17	59	09	0.568476696299	0.324582249401	-0.556330801671	0.24951171875	0.90966796875	0.25244140625	13.1875	-4.1875	-0.625
19	02	10	17	59	09	0.568050553098	0.324399773259	-0.556759121668	0.26708984375	0.9658203125	0.24951171875	5.875	-5.6875	2.5
19	02	10	17	59	09	0.568303377494	0.323122981468	-0.557011773495	0.2724609375	0.93701171875	0.2685546875	2.0625	-6.6875	6.1875
19	02	10	17	59	09	0.568238877513	0.321961340374	-0.557191483654	0.26513671875	0.9208984375	0.244140625	-0.125	-7.125	4.125
19	02	10	17	59	09	0.567979376045	0.322135734662	-0.558152954431	0.25390625	0.97900390625	0.26513671875	12.25	-4.75	7.5
19	02	10	17	59	09	0.567869069242	0.322752755605	-0.559629352524	0.255859375	1.0859375	0.2373046875	15.625	-1.9375	13.0
19	02	10	17	59	09	0.568035443503	0.323109448577	-0.55949080376	0.2236328125	1.03173828125	0.21875	3.875	0.3125	7.25
19	02	10	17	59	09	0.568412265248	0.321406527306	-0.558463677335	0.2109375	0.97314453125	0.1943359375	-14.125	-5.4375	5.9375
19	02	10	17	59	09	0.569538712501	0.318797631057	-0.557331259655	0.267578125	0.892578125	0.21240234375	-15.8125	-4.6875	6.0
19	02	10	17	59	09	0.571157926006	0.31609605672	-0.556448686834	0.2470703125	0.818359375	0.1865234375	-15.1875	-2.5625	10.8125
19	02	10	17	59	09	0.573489307362	0.312440587951	-0.555483842731	0.23681640625	0.80908203125	0.142578125	-22.6875	-1.25	16.8125
19	02	10	17	59	09	0.576760313411	0.306628975088	-0.553995065062	0.21533203125	0.8291015625	0.1357421875	-36.6875	-4.625	25.5625
19	02	10	17	59	09	0.581298428589	0.298949989839	-0.551086047011	0.234375	0.8251953125	0.228515625	-47.5625	-4.6875	28.25
19	02	10	17	59	09	0.58561590799	0.29058023324	-0.548812740453	0.3046875	0.83056640625	0.2421875	-47.0625	-8.5625	27.9375
19	02	10	17	59	09	0.588987386206	0.284117749512	-0.547239471992	0.21630859375	0.8515625	0.14990234375	-41.5625	-5.8125	30.125
19	02	10	17	59	09	0.592589656516	0.274963065465	-0.54498228891	0.24658203125	0.89404296875	0.19921875	-56.9375	-14.25	31.6875
19	02	10	17	59	09	0.595875900669	0.267512452385	-0.543935883106	0.42529296875	0.77001953125	0.25830078125	-35.375	-9.3125	20.625
19	02	10	17	59	09	0.600169839243	0.262150865407	-0.541208783135	0.37841796875	0.80419921875	0.2041015625	-38.375	7.5	20.9375
19	02	10	17	59	09	0.604597034724	0.259453058208	-0.53813164296	0.33349609375	0.79150390625	0.25048828125	-23.8125	17.1875	19.5625
19	02	10	17	59	09	0.608722236782	0.258980091313	-0.534562253057	0.33544921875	0.71044921875	0.3125	-11.25	23.3125	9.6875
19	02	10	17	59	09	0.613092572866	0.258420503088	-0.529353099499	0.32177734375	0.74951171875	0.3720703125	-19.0	26.25	5.4375
19	02	10	17	59	09	0.617488463903	0.257383498298	-0.522945651746	0.37939453125	0.763671875	0.39453125	-27.75	28.3125	-2.5625
19	02	10	17	59	09	0.621749920636	0.256036214496	-0.515673415083	0.45361328125	0.68115234375	0.41845703125	-32.1875	30.0	-13.75
19	02	10	17	59	09	0.625181258589	0.256224829011	-0.508726524489	0.48876953125	0.6103515625	0.50537109375	-17.5625	30.6875	-23.4375
19	02	10	17	59	09	0.627555815548	0.257748318329	-0.50347285766	0.52001953125	0.51123046875	0.62158203125	6.25	25.9375	-29.0625
19	02	10	17	59	09	0.628105757	0.26195995618	-0.501581295406	0.4150390625	0.68408203125	0.60791015625	30.5625	18.0625	-18.5625
19	02	10	17	59	10	0.62689075169	0.265075117767	-0.502562403798	0.49658203125	1.00927734375	0.52099609375	25.9375	3.625	-12.9375
19	02	10	17	59	10	0.627976936745	0.264703661645	-0.500111091426	0.53173828125	1.17529296875	0.37744140625	-21.0	13.125	-7.9375
19	02	10	17	59	10	0.631816682169	0.262992473287	-0.492660766854	0.26611328125	0.9736328125	0.39208984375	-45.875	25.5	1.0
19	02	10	17	59	10	0.633854708097	0.263307579271	-0.486880982811	0.0419921875	0.7802734375	0.44580078125	-21.5	14.4375	2.5
19	02	10	17	59	10	0.633605143887	0.263183255991	-0.485717150087	0.14990234375	0.86962890625	0.51611328125	-0.25	-6.875	3.9375
19	02	10	17	59	10	0.633285766469	0.262139780935	-0.486438662178	0.36083984375	0.984375	0.45166015625	-1.625	-7.8125	3.3125
19	02	10	17	59	10	0.634449598442	0.260737728191	-0.484305681928	0.3671875	0.94873046875	0.45703125	-15.5	4.25	-0.3125
19	02	10	17	59	10	0.635803945066	0.260132131503	-0.480774472044	0.189453125	0.8466796875	0.46728515625	-16.5	6.5625	2.125
19	02	10	17	59	10	0.635998257552	0.260563969433	-0.479440145209	0.23828125	0.79150390625	0.4404296875	-0.875	2.5	-1.625
19	02	10	17	59	10	0.635541714905	0.261772631828	-0.478441515715	0.22998046875	0.84619140625	0.37841796875	-1.75	2.8125	-3.9375
19	02	10	17	59	10	0.635110717624	0.263541041582	-0.477767316698	0.22802734375	0.79248046875	0.376953125	4.625	4.1875	-4.0625
19	02	10	17	59	10	0.634947383396	0.265807541545	-0.477965294566	0.26220703125	0.75537109375	0.390625	14.125	6.5	-1.5625
19	02	10	17	59	10	0.635241110943	0.267389633651	-0.477956681379	0.2578125	0.81982421875	0.41650390625	10.625	5.375	3.125
19	02	10	17	59	10	0.635899673714	0.268665933745	-0.478252216453	0.337890625	0.7783203125	0.38916015625	10.5	7.9375	1.8125
19	02	10	17	59	10	0.6368934197	0.270076989187	-0.47673929097	0.25146484375	0.841796875	0.4208984375	2.5	11.125	2.3125
19	02	10	17	59	10	0.637462538636	0.27142817975	-0.476509961617	0.31201171875	0.78955078125	0.44384765625	11.25	7.375	0.25
19	02	10	17	59	10	0.637002831165	0.274404975464	-0.476973950901	0.33447265625	0.88525390625	0.4326171875	18.25	8.1875	-4.875
19	02	10	17	59	10	0.6367604266	0.277213251952	-0.476914211967	0.30859375	0.96142578125	0.4052734375	11.6875	9.8125	-2.3125
19	02	10	17	59	10	0.637143805315	0.278807635088	-0.475523267287	0.30078125	0.88427734375	0.40576171875	1.4375	10.375	-4.8125
19	02	10	17	59	10	0.637255810941	0.280145979525	-0.473623703946	0.26123046875	0.81884765625	0.39501953125	-2.1875	8.8125	-7.9375
19	02	10	17	59	10	0.63714149707	0.282041465462	-0.472225669397	0.23291015625	0.7880859375	0.38232421875	3.375	8.75	-7.0625
19	02	10	17	59	10	0.636845345746	0.28442584926	-0.471744074877	0.22802734375	0.77490234375	0.4033203125	12.25	7.0625	-4.375
19	02	10	17	59	10	0.636359246775	0.286624114987	-0.472600196411	0.296875	0.8037109375	0.40380859375	17.625	4.4375	-2.8125
19	02	10	17	59	10	0.636672299142	0.287970463748	-0.471629455994	0.2333984375	0.8359375	0.380859375	2.625	7.375	-0.625
19	02	10	17	59	10	0.637702788645	0.287906207316	-0.470281392277	0.240234375	0.7685546875	0.4033203125	-2.375	5.875	2.0
19	02	10	17	59	10	0.63848622687	0.288328929905	-0.468687098378	0.24169921875	0.7978515625	0.39208984375	-3.5625	7.6875	-1.0625
19	02	10	17	59	10	0.639410591315	0.289004309839	-0.467350792067	0.251953125	0.85009765625	0.4013671875	-1.3125	8.6875	1.625
19	02	10	17	59	10	0.640407316177	0.289379630766	-0.46608370819	0.27294921875	0.857421875	0.3759765625	-4.4375	9.0	1.5
19	02	10	17	59	10	0.641285704504	0.289973197116	-0.464469802158	0.21044921875	0.8505859375	0.375	-5.5625	8.375	2.3125
19	02	10	17	59	10	0.641792313993	0.290103553819	-0.463811677987	0.23095703125	0.79150390625	0.39794921875	-0.0625	3.0	2.3125
19	02	10	17	59	10	0.641973288345	0.289919482757	-0.46374910105	0.28515625	0.810546875	0.40673828125	1.125	0.1875	-0.125
19	02	10	17	59	10	0.642155104767	0.290285113418	-0.463198848976	0.216796875	0.8271484375	0.3974609375	0.0625	1.5	1.5
19	02	10	17	59	10	0.642154600003	0.29052902728	-0.46325952039	0.24072265625	0.8046875	0.39404296875	2.75	-0.125	1.25
19	02	10	17	59	10	0.642202770406	0.291133550165	-0.4632502402	0.24169921875	0.87158203125	0.3984375	3.1875	1.5625	2.3125
19	02	10	17	59	10	0.642111609401	0.292185197168	-0.462967353356	0.185546875	0.857421875	0.3818359375	2.875	2.125	2.875
19	02	10	17	59	10	0.642205285949	0.292538484656	-0.462641709513	0.25634765625	0.8388671875	0.4140625	1.6875	1.5625	-0.25
19	02	10	17	59	10	0.642582025716	0.293336741603	-0.461672724403	0.2216796875	0.8525390625	0.4287109375	1.875	4.8125	0.5
19	02	10	17	59	10	0.64287365543	0.293879868119	-0.461785063798	0.296875	0.82373046875	0.41748046875	6.125	3.5	0.5625
19	02	10	17	59	10	0.643518750106	0.29407885213	-0.461504815475	0.26708984375	0.8349609375	0.396484375	1.3125	4.3125	3.125
19	02	10	17	59	10	0.644288561475	0.293396657352	-0.460816468277	0.23193359375	0.8330078125	0.38232421875	-6.5	1.5625	5.0625
19	02	10	17	59	10	0.645211903871	0.292606741761	-0.460089616061	0.3076171875	0.828125	0.42041015625	-4.375	3.25	1.3125
19	02	10	17	59	10	0.645379060883	0.293270889686	-0.459162726974	0.22119140625	0.77783203125	0.42626953125	2.5625	3.4375	-2.0
19	02	10	17	59	10	0.644840185262	0.294740487897	-0.459963619132	0.2509765625	0.8876953125	0.4091796875	10.875	0.4375	0.75
19	02	10	17	59	10	0.644832943816	0.295164421798	-0.460629836913	0.28173828125	0.95263671875	0.3857421875	2.5625	0.4375	4.5
19	02	10	17	59	10	0.644828583933	0.294796219631	-0.45995534392	0.21240234375	0.79931640625	0.3681640625	-5.75	-0.9375	-0.625
19	02	10	17	59	10	0.644794662538	0.294991727002	-0.459425352606	0.23486328125	0.77978515625	0.4013671875	0.5625	0.375	-2.125
19	02	10	17	59	10	0.644719940807	0.2965113578	-0.459842850898	0.23095703125	0.8232421875	0.39794921875	11.25	3.6875	2.4375
19	02	10	17	59	10	0.644393642293	0.298698852565	-0.46074328525	0.2236328125	0.87646484375	0.4111328125	16.4375	3.625	3.5625
19	02	10	17	59	10	0.644030879285	0.300165263867	-0.462332629888	0.2529296875	0.90380859375	0.36962890625	13.3125	0.375	6.1875
19	02	10	17	59	10	0.64439886931	0.300288164141	-0.462578047973	0.259765625	0.8515625	0.39208984375	3.25	1.1875	4.5
19	02	10	17	59	11	0.643912530414	0.302608372113	-0.46306771263	0.23779296875	0.80126953125	0.39208984375	16.1875	4.6875	-1.4375
19	02	10	17	59	11	0.642916700034	0.306200216828	-0.46488480199	0.22998046875	0.84912109375	0.40185546875	29.1875	4.0625	1.625
19	02	10	17	59	11	0.641412605299	0.309750592054	-0.46679261636	0.255859375	0.921875	0.3173828125	22.3125	3.5625	-1.75
19	02	10	17	59	11	0.641407923312	0.311030048263	-0.466911277319	0.27734375	0.92822265625	0.3544921875	5.125	5.5	0.5625
19	02	10	17	59	11	0.641861898398	0.311409224575	-0.466625543291	0.283203125	0.7939453125	0.38134765625	4.375	4.3125	-0.9375
19	02	10	17	59	11	0.641722449465	0.31323184427	-0.466979119351	0.25439453125	0.8427734375	0.365234375	12.25	5.3125	0.25
19	02	10	17	59	11	0.641362165769	0.316225483522	-0.467288612593	0.2431640625	0.85107421875	0.34130859375	16.625	9.8125	-1.8125
19	02	10	17	59	11	0.641480681065	0.318237894488	-0.468201551327	0.29443359375	0.83447265625	0.388671875	19.125	6.875	2.125
19	02	10	17	59	11	0.640564281027	0.321594397021	-0.469116442494	0.240234375	0.796875	0.3349609375	22.875	6.75	-3.4375
19	02	10	17	59	11	0.63951022332	0.32506503621	-0.47038607474	0.2294921875	0.8486328125	0.310546875	22.8125	6.1875	-1.25
19	02	10	17	59	11	0.639402952259	0.326903609422	-0.471373520456	0.27685546875	0.85986328125	0.35498046875	16.8125	5.0625	2.25
19	02	10	17	59	11	0.639081032317	0.32890914747	-0.472215638147	0.2841796875	0.8427734375	0.35986328125	17.6875	5.1875	-0.9375
19	02	10	17	59	11	0.638728164365	0.330930158355	-0.47265273816	0.23974609375	0.8681640625	0.35693359375	15.1875	4.625	-0.1875
19	02	10	17	59	11	0.638130147914	0.333194880675	-0.473760517275	0.2392578125	0.888671875	0.30419921875	16.1875	4.0625	2.3125
19	02	10	17	59	11	0.637159305027	0.336066590045	-0.474924470966	0.17724609375	0.93896484375	0.2939453125	17.75	3.1875	4.1875
19	02	10	17	59	11	0.636276402813	0.337028133941	-0.476551189752	0.1826171875	0.91650390625	0.36328125	15.6875	-6.3125	7.3125
19	02	10	17	59	11	0.634646413063	0.33856353657	-0.478456744758	0.244140625	0.8828125	0.38134765625	21.3125	-7.1875	-1.6875
19	02	10	17	59	11	0.632800389152	0.341851367635	-0.479666112881	0.1416015625	0.94677734375	0.38134765625	26.0625	-2.1875	0.25
19	02	10	17	59	11	0.630674170306	0.344237135442	-0.481260605135	0.07861328125	0.91650390625	0.328125	20.4375	-7.9375	3.9375
19	02	10	17	59	11	0.627740760321	0.34698164535	-0.483821196603	0.1513671875	0.92919921875	0.26513671875	23.0	-10.1875	-1.5
19	02	10	17	59	11	0.624374912379	0.350760764559	-0.485645276422	0.0419921875	0.92822265625	0.21923828125	21.75	-7.875	-2.1875
19	02	10	17	59	11	0.620161064444	0.355092714589	-0.488206707459	-0.03759765625	0.90478515625	0.1904296875	27.5625	-11.875	0.4375
19	02	10	17	59	11	0.615541454033	0.359315075844	-0.492616269261	0.05712890625	0.93115234375	0.22265625	39.25	-15.9375	2.0
19	02	10	17	59	11	0.61072146596	0.3640769083	-0.497439531039	0.11279296875	0.962890625	0.22509765625	45.5625	-14.3125	0.125
19	02	10	17	59	11	0.604787812847	0.370233411316	-0.502982779864	0.078125	0.93310546875	0.25146484375	60.125	-16.0625	-1.9375
19	02	10	17	59	11	0.599531927705	0.374623533773	-0.507920666024	0.08740234375	1.001953125	0.22412109375	46.5625	-18.375	0.5625
19	02	10	17	59	11	0.594538022979	0.379207959836	-0.511958211348	0.05078125	0.9287109375	0.18603515625	42.6875	-14.4375	-1.1875
19	02	10	17	59	11	0.589176841899	0.38415819361	-0.516422382608	0.0703125	0.8486328125	0.142578125	46.75	-14.25	-3.6875
19	02	10	17	59	11	0.583306711643	0.390987003744	-0.52111255666	0.1533203125	0.88232421875	0.111328125	57.0625	-6.8125	-11.0625
19	02	10	17	59	11	0.57696026175	0.40038710643	-0.525263938709	0.04638671875	0.87109375	0.0966796875	69.625	2.125	-10.8125
19	02	10	17	59	11	0.570550216443	0.410151631846	-0.529107811975	0.06103515625	0.966796875	0.01611328125	66.0	6.1875	-12.0
19	02	10	17	59	11	0.564754201399	0.419186410376	-0.530757866137	0.04736328125	0.91015625	-0.02001953125	49.375	8.875	-20.3125
19	02	10	17	59	11	0.559380418917	0.42815642539	-0.529778727354	-0.0009765625	0.7294921875	-0.02392578125	35.875	12.625	-32.75
19	02	10	17	59	11	0.553575101987	0.437550155033	-0.52836820925	-0.0478515625	0.66943359375	-0.00390625	38.0625	12.6875	-35.9375
19	02	10	17	59	11	0.54786432065	0.447459150477	-0.52637944533	-0.162109375	0.7890625	-0.041015625	36.3125	16.5625	-29.25
19	02	10	17	59	11	0.542109227226	0.455134936661	-0.522517123878	-0.21630859375	0.78125	0.09814453125	22.125	4.75	-37.75
19	02	10	17	59	11	0.536626795187	0.46118654054	-0.519170555034	-0.1083984375	0.90771484375	0.0712890625	14.625	-1.125	-39.25
19	02	10	17	59	11	0.531789457702	0.467764765733	-0.516347849439	0.03369140625	0.94775390625	0.0107421875	18.0625	7.0	-42.9375
19	02	10	17	59	11	0.528685628297	0.472045099198	-0.510680287689	-0.0703125	0.92431640625	0.0712890625	-7.25	4.9375	-42.125
19	02	10	17	59	11	0.524548194598	0.475779983348	-0.503978873958	-0.0810546875	0.75390625	0.17724609375	-8.5625	-3.25	-55.4375
19	02	10	17	59	11	0.52013157921	0.479360880441	-0.499257957984	0.068359375	0.92626953125	0.31396484375	11.5	-5.6875	-56.0
19	02	10	17	59	11	0.51652337339	0.481307257775	-0.495589010035	0.09228515625	1.10009765625	0.2607421875	4.4375	-9.0625	-46.9375
19	02	10	17	59	11	0.512752449051	0.482418207035	-0.490474786404	0.0068359375	1.12646484375	0.19189453125	-13.75	-13.75	-51.0
19	02	10	17	59	11	0.51093030455	0.481511070672	-0.485966680782	0.0556640625	1.1787109375	0.13330078125	-26.25	-13.375	-39.9375
19	02	10	17	59	11	0.50975385715	0.479664219749	-0.48119006343	0.029296875	1.21826171875	0.14599609375	-32.75	-14.375	-36.1875
19	02	10	17	59	11	0.508790171305	0.478211491384	-0.475037656342	-0.068359375	1.14990234375	0.08642578125	-43.0625	-10.8125	-35.9375
19	02	10	17	59	11	0.508724284445	0.475460369025	-0.470516557743	-0.04443359375	1.14111328125	0.08544921875	-41.75	-13.4375	-23.9375
19	02	10	17	59	11	0.504998961557	0.475763464508	-0.468073124992	-0.10986328125	1.09814453125	0.09228515625	-13.0625	-16.9375	-30.625
19	02	10	17	59	11	0.500612904656	0.476748036853	-0.467043397516	-0.03076171875	1.11376953125	0.1396484375	2.125	-16.0625	-33.25
19	02	10	17	59	11	0.495781801569	0.478509088304	-0.465997052194	-0.1455078125	1.1806640625	0.08544921875	2.0	-15.5	-29.0625
19	02	10	17	59	12	0.490895819018	0.480153849088	-0.464223995953	-0.1455078125	1.0654296875	-0.00341796875	-7.5	-15.875	-33.375
19	02	10	17	59	12	0.485646203581	0.481984173643	-0.463124719463	-0.1201171875	0.99072265625	0.01904296875	-0.75	-16.5	-33.875
19	02	10	17	59	12	0.478870271746	0.484485370522	-0.464222187981	-0.08984375	0.9482421875	0.08056640625	21.0625	-20.4375	-34.125
19	02	10	17	59	12	0.471077234806	0.487984256579	-0.46454636358	-0.18310546875	0.994140625	0.04443359375	20.125	-20.25	-38.0
19	02	10	17	59	12	0.463491526755	0.49004127842	-0.465383578023	-0.08984375	0.98583984375	0.05126953125	17.0	-26.4375	-40.875
19	02	10	17	59	12	0.456053589142	0.491942174583	-0.466490575724	-0.08642578125	0.9892578125	0.0869140625	20.75	-25.6875	-39.4375
19	02	10	17	59	12	0.450010032722	0.492734435666	-0.467893247097	-0.0244140625	1.04296875	0.12744140625	19.4375	-24.1875	-35.3125
19	02	10	17	59	12	0.445008834465	0.49389816054	-0.467958131099	-0.1435546875	1.04296875	0.06201171875	8.375	-17.75	-28.375
19	02	10	17	59	12	0.440360002236	0.494497122401	-0.46739804534	-0.1171875	1.00537109375	-0.005859375	-2.0625	-19.75	-31.375
19	02	10	17	59	12	0.435184028849	0.495670336365	-0.467532911779	-0.09814453125	0.9462890625	0.02392578125	7.6875	-18.1875	-32.0625
19	02	10	17	59	12	0.429026344586	0.497570459676	-0.468883252114	-0.14501953125	1.01513671875	0.02978515625	19.0	-19.0625	-30.0
19	02	10	17	59	12	0.422064500113	0.499763431226	-0.469794715455	-0.1171875	1.07958984375	0.01025390625	18.125	-20.6875	-39.75
19	02	10	17	59	12	0.417170929904	0.500422012331	-0.47155268536	-0.029296875	1.03759765625	-0.04248046875	10.5625	-20.1875	-29.9375
19	02	10	17	59	12	0.411558018712	0.502438915918	-0.472409767882	-0.169921875	1.04736328125	-0.091796875	9.8125	-16.5	-29.5625
19	02	10	17	59	12	0.404921123385	0.504961177836	-0.473343881798	-0.21728515625	1.052734375	-0.10693359375	13.1875	-18.8125	-32.3125
19	02	10	17	59	12	0.397946450996	0.5081141418	-0.474911247729	-0.201171875	1.00830078125	-0.134765625	19.125	-16.5625	-32.375
19	02	10	17	59	12	0.390134565596	0.511654891019	-0.477353322517	-0.21435546875	0.9873046875	-0.13818359375	28.0	-17.9375	-31.75
19	02	10	17	59	12	0.382804544105	0.514515673916	-0.480519798427	-0.1708984375	1.0205078125	-0.13232421875	29.6875	-18.875	-29.5625
19	02	10	17	59	12	0.377137198477	0.517335312234	-0.482484148562	-0.22216796875	1.02490234375	-0.1748046875	18.875	-12.0	-23.75
19	02	10	17	59	12	0.370773018362	0.521462496936	-0.482401635742	-0.40380859375	1.00341796875	-0.1982421875	13.3125	-8.0625	-26.0
19	02	10	17	59	12	0.365774541552	0.525255415417	-0.482165672995	-0.3720703125	0.99951171875	-0.287109375	3.9375	-5.4375	-22.4375
19	02	10	17	59	12	0.361742358274	0.528789571804	-0.481427994274	-0.3828125	0.916015625	-0.22705078125	3.125	-1.0	-18.0625
19	02	10	17	59	12	0.357186363569	0.533032896966	-0.481090724137	-0.3359375	0.9189453125	-0.056640625	22.0	4.3125	-23.4375
19	02	10	17	59	12	0.353818044038	0.537227259552	-0.482112942877	-0.38671875	0.93115234375	-0.20263671875	18.5	7.75	-7.9375
19	02	10	17	59	12	0.351008189223	0.540885858615	-0.481133290844	-0.43115234375	1.08349609375	-0.1171875	10.875	8.0625	-15.5625
19	02	10	17	59	12	0.350272103392	0.543748766183	-0.480029638122	-0.3310546875	1.0166015625	-0.22265625	-3.375	10.5	-10.9375
19	02	10	17	59	12	0.348941391457	0.546331011882	-0.475529540116	-0.43896484375	0.85791015625	-0.04248046875	-11.3125	8.5	-19.875
19	02	10	17	59	12	0.347405687678	0.548329708029	-0.47399026186	-0.32958984375	0.8505859375	-0.0693359375	1.0625	4.375	-13.6875
19	02	10	17	59	12	0.345272271023	0.550897563772	-0.472102000418	-0.28857421875	0.8232421875	-0.0322265625	5.3125	5.625	-20.875
19	02	10	17	59	12	0.344724252878	0.550655490344	-0.468990998427	-0.26806640625	1.02978515625	0.13623046875	-5.0	-1.5	-23.5
19	02	10	17	59	12	0.343567863409	0.550782803234	-0.466004732125	-0.31201171875	0.8515625	-0.115234375	-19.375	-7.6875	-19.75
19	02	10	17	59	12	0.342399766019	0.549731674248	-0.464650520268	-0.3623046875	0.99853515625	0.06640625	-3.375	-10.1875	-11.0
19	02	10	17	59	12	0.336795398608	0.549993355719	-0.465947095501	-0.3681640625	0.8125	0.05859375	23.875	-20.0625	-15.5625
19	02	10	17	59	12	0.334164514603	0.546626007815	-0.467281008914	-0.28076171875	0.9345703125	0.05419921875	2.875	-30.375	-7.4375
19	02	10	17	59	12	0.331548683059	0.545114375626	-0.466499739437	-0.3369140625	0.767578125	-0.00732421875	-5.375	-20.6875	-11.5
19	02	10	17	59	12	0.327274789039	0.543586212454	-0.466802981456	-0.537109375	0.76904296875	0.08056640625	8.9375	-25.0625	-1.0625
19	02	10	17	59	12	0.328183563722	0.537654642519	-0.470455441542	-0.2109375	1.07958984375	-0.0615234375	-8.4375	-32.75	13.5625
19	02	10	17	59	12	0.326959861947	0.534048682479	-0.471000420879	-0.3779296875	0.87158203125	-0.05126953125	-12.625	-28.375	3.8125
