19	03	22	09	58	31	-0.221382137556	0.306712225316	-0.209662983873	0.47998046875	-0.48828125	0.7470703125	-18.1875	19.75	-10.0625
19	03	22	09	58	31	-0.219303348184	0.30444895651	-0.211002414325	0.5361328125	-0.513671875	0.7998046875	-9.5	19.0625	-4.0
19	03	22	09	58	31	-0.217657772094	0.301949803295	-0.212591705049	0.517578125	-0.39208984375	0.7802734375	-15.0625	20.0625	2.625
19	03	22	09	58	31	-0.215886068989	0.299994353712	-0.21484844864	0.4921875	-0.32568359375	0.79150390625	-23.875	16.1875	4.0625
19	03	22	09	58	32	-0.21356284947	0.299500686582	-0.21765222098	0.533203125	-0.44384765625	0.83056640625	-25.625	9.875	-1.375
19	03	22	09	58	32	-0.211980304134	0.299323757983	-0.219609886057	0.59228515625	-0.47509765625	0.82763671875	-19.0	9.4375	2.5
19	03	22	09	58	32	-0.211068840121	0.297681530731	-0.221384234563	0.51318359375	-0.5166015625	0.8203125	-12.3125	12.875	2.8125
19	03	22	09	58	32	-0.209238553937	0.2956684817	-0.22181239936	0.4541015625	-0.4248046875	0.84765625	-11.375	11.5625	-3.8125
19	03	22	09	58	32	-0.207522608912	0.294376924348	-0.223514057011	0.39404296875	-0.48876953125	0.83740234375	-16.125	5.8125	-5.25
19	03	22	09	58	32	-0.208192809226	0.29388694706	-0.226259379596	0.384765625	-0.52783203125	0.76123046875	-14.8125	0.125	7.6875
19	03	22	09	58	32	-0.209533827617	0.293701362799	-0.228454738354	0.41552734375	-0.52978515625	0.70458984375	-9.75	0.0	11.25
19	03	22	09	58	32	-0.210580615487	0.292920688036	-0.227854329743	0.30078125	-0.43310546875	0.76611328125	-0.625	-5.8125	3.3125
19	03	22	09	58	32	-0.212408684799	0.293465792102	-0.229376964792	0.259765625	-0.3505859375	0.77099609375	-18.375	-15.4375	11.8125
19	03	22	09	58	32	-0.21564105138	0.29529335029	-0.232914308538	0.31494140625	-0.486328125	0.7060546875	-20.75	-18.8125	20.25
19	03	22	09	58	32	-0.218508895243	0.295658404625	-0.233096500261	0.29345703125	-0.5986328125	0.66650390625	6.8125	-12.1875	8.6875
19	03	22	09	58	32	-0.220338673099	0.296083906704	-0.227968128538	0.33935546875	-0.47265625	0.69580078125	27.25	-13.8125	-2.125
19	03	22	09	58	32	-0.220889219999	0.295292082442	-0.226992818231	0.2490234375	-0.462890625	0.66259765625	5.9375	-4.875	-2.8125
19	03	22	09	58	32	-0.221749114547	0.293407099815	-0.224373725592	0.1953125	-0.650390625	0.70166015625	25.6875	-4.0	-11.125
19	03	22	09	58	32	-0.220709220508	0.291023662439	-0.218633967881	0.259765625	-0.63623046875	0.5810546875	45.4375	6.4375	-24.9375
19	03	22	09	58	32	-0.220955797475	0.288158099414	-0.21399752098	0.310546875	-0.47314453125	0.6875	30.1875	7.3125	-8.5
19	03	22	09	58	32	-0.2205881938	0.28663037025	-0.215155889083	0.47412109375	-0.48095703125	0.7353515625	-5.875	13.25	4.5625
19	03	22	09	58	32	-0.217527802182	0.284849116942	-0.220213330604	0.47998046875	-0.53173828125	0.86279296875	-33.375	19.0625	-3.5
19	03	22	09	58	32	-0.213937632804	0.282910393165	-0.225473784758	0.51513671875	-0.6064453125	0.85498046875	-31.0	22.9375	-6.4375
19	03	22	09	58	32	-0.212108043275	0.280043655409	-0.227062423305	0.47216796875	-0.60595703125	0.86669921875	-7.4375	20.25	-4.375
19	03	22	09	58	32	-0.211430177895	0.27686122602	-0.22949695984	0.37451171875	-0.41064453125	0.82568359375	-18.9375	17.0	6.375
19	03	22	09	58	32	-0.209479956773	0.275339185607	-0.236580510621	0.427734375	-0.4267578125	0.7861328125	-47.375	17.6875	8.3125
19	03	22	09	58	32	-0.206112513924	0.273677380052	-0.242733037571	0.33837890625	-0.611328125	0.8291015625	-36.5	14.1875	-9.0625
19	03	22	09	58	32	-0.203193078728	0.27277556889	-0.247811324613	0.283203125	-0.68115234375	0.724609375	-24.25	8.5625	-12.875
19	03	22	09	58	32	-0.202277896068	0.270334581076	-0.24653000067	0.234375	-0.64892578125	0.80224609375	11.75	4.3125	-13.875
19	03	22	09	58	32	-0.201113721689	0.269718220378	-0.245303808033	0.35302734375	-0.5029296875	0.79150390625	1.5	0.8125	-7.8125
19	03	22	09	58	32	-0.19922791727	0.270276108355	-0.247020643747	0.36474609375	-0.513671875	0.79541015625	-17.8125	-1.5	-7.6875
19	03	22	09	58	32	-0.196599328455	0.270331706217	-0.250677877045	0.2724609375	-0.5693359375	0.72216796875	-23.25	0.8125	-12.5625
19	03	22	09	58	32	-0.195375306702	0.269106444001	-0.250795731096	0.16552734375	-0.52783203125	0.7275390625	-1.9375	-2.4375	-12.9375
19	03	22	09	58	32	-0.193911790793	0.269230377459	-0.250003995935	0.23193359375	-0.39599609375	0.662109375	-3.4375	-4.75	-11.5
19	03	22	09	58	32	-0.19214186251	0.269352617298	-0.250126223813	0.248046875	-0.4755859375	0.62158203125	-2.875	-2.0	-13.0625
19	03	22	09	58	32	-0.190434309093	0.269232608144	-0.247747711733	0.2841796875	-0.4482421875	0.58837890625	11.4375	-0.0625	-14.8125
19	03	22	09	58	32	-0.187501878273	0.268984628108	-0.24670657291	0.32177734375	-0.42724609375	0.58984375	1.6875	6.0	-17.0
19	03	22	09	58	32	-0.184576732751	0.266977059872	-0.246041273055	0.25439453125	-0.455078125	0.6572265625	1.1875	10.8125	-18.0
19	03	22	09	58	32	-0.182075385954	0.264110021797	-0.244394852618	0.2705078125	-0.47119140625	0.70166015625	8.1875	14.3125	-16.0625
19	03	22	09	58	32	-0.180239738224	0.260502269808	-0.241458992352	0.2705078125	-0.4453125	0.7666015625	13.6875	14.6875	-13.625
19	03	22	09	58	32	-0.179693776177	0.25715009478	-0.238411647333	0.32470703125	-0.44677734375	0.88671875	11.6875	11.0625	-4.625
19	03	22	09	58	32	-0.180307140692	0.254407637916	-0.233959807133	0.36376953125	-0.4736328125	0.9306640625	20.5625	6.0	-0.9375
19	03	22	09	58	32	-0.181222140632	0.253125031054	-0.2293201692	0.46142578125	-0.47802734375	0.90771484375	21.8125	3.1875	2.625
19	03	22	09	58	32	-0.182006984426	0.252075400965	-0.223571959742	0.50439453125	-0.4423828125	0.884765625	27.375	4.25	1.3125
19	03	22	09	58	32	-0.18280875172	0.251354403867	-0.221018527538	0.44580078125	-0.44970703125	0.763671875	13.5625	4.6875	4.375
19	03	22	09	58	32	-0.183419023555	0.24927896579	-0.219797638543	0.2529296875	-0.498046875	0.73291015625	12.3125	4.3125	-1.0625
19	03	22	09	58	32	-0.183663972503	0.249157971339	-0.217906408055	0.279296875	-0.47705078125	0.8076171875	8.875	-7.375	-4.75
19	03	22	09	58	32	-0.184145927379	0.249515595335	-0.215396412901	0.2470703125	-0.5283203125	0.794921875	15.6875	-12.4375	-7.6875
19	03	22	09	58	32	-0.186039427918	0.250005740404	-0.210759233793	0.265625	-0.51611328125	0.7666015625	29.9375	-15.1875	-2.6875
19	03	22	09	58	32	-0.187685709946	0.249881397242	-0.204836826855	0.2490234375	-0.40185546875	0.7294921875	33.3125	-12.0625	-3.5625
19	03	22	09	58	32	-0.189216862364	0.249766258321	-0.19922704476	0.279296875	-0.34814453125	0.82666015625	25.75	-12.9375	-1.0625
19	03	22	09	58	32	-0.190432311292	0.251285200509	-0.19769559496	0.50146484375	-0.34521484375	0.85107421875	-0.6875	-7.0	9.5625
19	03	22	09	58	32	-0.191771301821	0.251158149902	-0.197508571831	0.34912109375	-0.37548828125	0.8515625	-4.0625	-5.0	8.25
19	03	22	09	58	33	-0.192148892488	0.251234066544	-0.1944683518	0.36328125	-0.4716796875	0.8828125	15.375	-7.25	-4.125
19	03	22	09	58	33	-0.192573501312	0.251474746563	-0.192329351073	0.4287109375	-0.42626953125	0.83837890625	9.25	-2.9375	0.3125
19	03	22	09	58	33	-0.195437973309	0.25037057043	-0.190677148226	0.37060546875	-0.41455078125	0.85302734375	10.125	-1.625	14.5625
19	03	22	09	58	33	-0.199105147023	0.248545726143	-0.188850804687	0.35986328125	-0.376953125	0.80712890625	12.875	2.25	19.75
19	03	22	09	58	33	-0.201670334104	0.246533438089	-0.188730227921	0.3388671875	-0.3798828125	0.79052734375	3.3125	5.75	16.3125
19	03	22	09	58	33	-0.202886890471	0.244392030519	-0.189702904809	0.3251953125	-0.43701171875	0.8564453125	-3.375	7.0	8.8125
19	03	22	09	58	33	-0.204535654871	0.242317681241	-0.191168508223	0.37109375	-0.48974609375	0.822265625	-1.5625	10.5	12.0
19	03	22	09	58	33	-0.208133584017	0.237369943766	-0.189700639039	0.2431640625	-0.44873046875	0.814453125	19.1875	14.875	18.0625
19	03	22	09	58	33	-0.211488827422	0.232302013612	-0.187196604243	0.30908203125	-0.40869140625	0.833984375	22.4375	19.0625	18.0625
19	03	22	09	58	33	-0.21368823666	0.226811050394	-0.186527064049	0.29248046875	-0.40869140625	0.7861328125	13.25	25.5625	15.1875
19	03	22	09	58	33	-0.215402794581	0.219858562222	-0.185433179353	0.1611328125	-0.4638671875	0.8134765625	20.25	26.4375	7.25
19	03	22	09	58	33	-0.216436269046	0.215459681255	-0.185795827122	0.30224609375	-0.4638671875	0.833984375	6.875	22.625	8.6875
19	03	22	09	58	33	-0.217590902282	0.209595275858	-0.184814937478	0.193359375	-0.47021484375	0.81494140625	18.1875	24.1875	5.25
19	03	22	09	58	33	-0.21821011583	0.204476612037	-0.182503005967	0.2470703125	-0.4453125	0.8505859375	21.875	22.0	1.875
19	03	22	09	58	33	-0.217228372471	0.201297884914	-0.182620761572	0.33349609375	-0.37646484375	0.8662109375	-0.75	21.3125	-0.6875
19	03	22	09	58	33	-0.216431739228	0.197022463121	-0.183594662041	0.212890625	-0.4326171875	0.83740234375	0.75	21.6875	-1.875
19	03	22	09	58	33	-0.216987625093	0.191657142839	-0.183478143749	0.1669921875	-0.47998046875	0.857421875	12.3125	22.5	2.5
19	03	22	09	58	33	-0.217101220585	0.188597911613	-0.182006139945	0.287109375	-0.3837890625	0.83984375	10.75	16.5625	2.5
19	03	22	09	58	33	-0.216432943415	0.184511220515	-0.180604929376	0.2197265625	-0.34619140625	0.8564453125	8.875	19.375	-2.5
19	03	22	09	58	33	-0.215214870034	0.181217512516	-0.18024092774	0.25048828125	-0.38330078125	0.87109375	3.6875	18.75	-4.625
19	03	22	09	58	33	-0.214232906422	0.177123616649	-0.180175367452	0.1748046875	-0.41357421875	0.86083984375	5.5625	19.0625	-4.75
19	03	22	09	58	33	-0.213996799061	0.173345952462	-0.179144496647	0.15966796875	-0.4326171875	0.876953125	12.0	14.9375	-2.4375
19	03	22	09	58	33	-0.213632496527	0.169563164386	-0.17505657144	0.158203125	-0.4365234375	0.88916015625	29.8125	11.625	-7.25
19	03	22	09	58	33	-0.213380535015	0.165833785365	-0.169801100805	0.173828125	-0.392578125	0.85986328125	35.125	11.75	-6.6875
19	03	22	09	58	33	-0.213929525673	0.160889651833	-0.166688026994	0.119140625	-0.3994140625	0.84765625	26.75	17.3125	-0.125
19	03	22	09	58	33	-0.214730720335	0.156073465576	-0.165168086761	0.11181640625	-0.4169921875	0.85205078125	19.25	17.9375	2.625
19	03	22	09	58	33	-0.214729477543	0.152349282532	-0.165167130822	0.1064453125	-0.43505859375	0.8935546875	8.8125	13.875	-1.0
19	03	22	09	58	33	-0.214668187846	0.148564790793	-0.164129302564	0.0703125	-0.39208984375	0.88232421875	12.5	11.3125	-2.75
19	03	22	09	58	33	-0.215452346635	0.143553518212	-0.162840470488	0.04736328125	-0.404296875	0.86376953125	17.5	16.4375	2.3125
19	03	22	09	58	33	-0.216858765684	0.137695855723	-0.161316554377	0.037109375	-0.3486328125	0.88525390625	17.0	19.5625	7.0
19	03	22	09	58	33	-0.218083385105	0.131350530296	-0.160525973363	0.00390625	-0.31298828125	0.9150390625	10.4375	22.0	7.125
19	03	22	09	58	33	-0.219853047355	0.123293491299	-0.160159465925	-0.0546875	-0.31689453125	0.89892578125	11.875	28.25	10.9375
19	03	22	09	58	33	-0.221622462145	0.115907754231	-0.16034211183	0.00341796875	-0.38623046875	0.93408203125	11.1875	29.8125	11.9375
19	03	22	09	58	33	-0.2232669983	0.107910348003	-0.15972928774	-0.01220703125	-0.30029296875	0.91796875	12.0625	32.1875	11.875
19	03	22	09	58	33	-0.225162968056	0.0991229764495	-0.161196909362	-0.00390625	-0.400390625	0.9599609375	6.9375	40.1875	15.5
19	03	22	09	58	33	-0.226744932251	0.0906369379255	-0.164428222742	-0.0361328125	-0.36962890625	0.92822265625	-5.125	40.5625	15.0
19	03	22	09	58	33	-0.228282650226	0.0817300718323	-0.169441881558	-0.1181640625	-0.458984375	0.9697265625	-10.125	40.125	14.4375
19	03	22	09	58	33	-0.230114112547	0.0731848331417	-0.172555065297	-0.06689453125	-0.5087890625	1.0107421875	2.0625	40.3125	16.25
19	03	22	09	58	33	-0.232307140897	0.0656759021558	-0.174749170885	-0.017578125	-0.419921875	1.03662109375	-0.5625	37.3125	18.9375
19	03	22	09	58	33	-0.233711433962	0.057680152806	-0.177007876336	-0.0771484375	-0.4287109375	1.0458984375	-0.1875	38.125	14.0
19	03	22	09	58	33	-0.233946614834	0.0503537587367	-0.17944248568	-0.10791015625	-0.50732421875	1.03515625	3.0	35.125	6.4375
19	03	22	09	58	33	-0.232968707124	0.044799326966	-0.183469723242	-0.09912109375	-0.4365234375	1.03564453125	-14.0	30.25	-0.875
19	03	22	09	58	33	-0.228579811676	0.0396123625575	-0.189333665105	-0.15283203125	-0.4873046875	1.02001953125	-21.625	31.3125	-21.0625
19	03	22	09	58	33	-0.22223252698	0.0368658188125	-0.197268752321	-0.11767578125	-0.546875	1.0029296875	-33.5	26.0	-32.3125
19	03	22	09	58	33	-0.211800565837	0.036012199955	-0.203377373305	-0.0849609375	-0.56005859375	1.10595703125	-28.8125	20.0625	-58.0625
19	03	22	09	58	33	-0.19452895209	0.0402852552178	-0.204844418956	-0.08984375	-0.55126953125	1.107421875	-12.3125	-2.1875	-103.6875
19	03	22	09	58	33	-0.170291191593	0.0531015543678	-0.202457305561	-0.0478515625	-0.48388671875	1.17236328125	-2.0625	-44.875	-154.25
19	03	22	09	58	33	-0.139284266272	0.0770274951953	-0.195376396292	0.208984375	-0.359375	1.19482421875	9.3125	-100.25	-205.0
19	03	22	09	58	33	-0.103516621086	0.111024017544	-0.17840747844	0.53662109375	-0.3134765625	1.119140625	54.1875	-155.3125	-245.5625
19	03	22	09	58	33	-0.0687870794017	0.148316417876	-0.154114796353	0.5615234375	-0.31640625	1.01513671875	92.75	-181.375	-246.875
19	03	22	09	58	33	-0.0416284417559	0.186168251254	-0.132942443027	0.3662109375	-0.16748046875	0.99658203125	76.4375	-197.875	-202.125
19	03	22	09	58	34	-0.0214240250297	0.219611515831	-0.119632732359	0.46337890625	-0.111328125	0.7021484375	40.0	-177.3125	-150.125
19	03	22	09	58	34	-0.011048008025	0.25172367456	-0.110907351279	0.71826171875	-0.22021484375	0.6923828125	27.5625	-175.75	-88.9375
19	03	22	09	58	34	-0.010681335245	0.279667874815	-0.105897809429	1.06298828125	-0.20849609375	0.666015625	21.3125	-155.4375	-24.8125
19	03	22	09	58	34	-0.0150766092453	0.303546468732	-0.100470035699	1.01708984375	-0.173828125	0.66943359375	31.0	-137.1875	3.4375
19	03	22	09	58	34	-0.0222783490856	0.322212068008	-0.0986961382779	0.92724609375	-0.05859375	0.66162109375	15.4375	-110.875	28.25
19	03	22	09	58	34	-0.0300304788845	0.339124676184	-0.104069037598	0.96875	-0.078125	0.6298828125	-26.5	-84.125	53.8125
19	03	22	09	58	34	-0.0341207825802	0.351035099497	-0.117438972602	1.009765625	-0.23291015625	0.5810546875	-67.625	-50.375	48.3125
19	03	22	09	58	34	-0.0390032385415	0.355790105569	-0.134649677969	0.87548828125	-0.478515625	0.65478515625	-74.625	-20.0	53.5
19	03	22	09	58	34	-0.0482184842301	0.352971511776	-0.149355229001	0.75390625	-0.47900390625	0.744140625	-52.125	12.1875	76.0625
19	03	22	09	58	34	-0.0595723585665	0.34724093021	-0.15759818629	0.60205078125	-0.22314453125	0.677734375	-23.6875	23.3125	85.8125
19	03	22	09	58	34	-0.0686654341877	0.33972605039	-0.168581270423	0.51708984375	-0.19287109375	0.61767578125	-42.9375	35.25	81.6875
19	03	22	09	58	34	-0.0781277404153	0.3291131065	-0.184332637542	0.40380859375	-0.39990234375	0.6611328125	-58.6875	47.0625	85.5625
19	03	22	09	58	34	-0.0852075512024	0.31562195363	-0.20044527088	0.39013671875	-0.5302734375	0.6884765625	-58.9375	65.25	73.0625
19	03	22	09	58	34	-0.086857647722	0.29829467633	-0.217296715313	0.2646484375	-0.6748046875	0.61669921875	-60.9375	92.625	42.25
19	03	22	09	58	34	-0.0874035722613	0.27789697242	-0.231082349568	-0.0703125	-0.70751953125	0.56640625	-41.1875	96.9375	24.25
19	03	22	09	58	34	-0.0894210735892	0.256604910149	-0.240124575768	-0.25146484375	-0.6787109375	0.53369140625	-12.5625	91.4375	22.0625
19	03	22	09	58	34	-0.0932045302827	0.236826180417	-0.245920794046	-0.28515625	-0.70068359375	0.44970703125	10.75	80.5625	24.375
19	03	22	09	58	34	-0.0985748710373	0.220404866449	-0.248420882428	-0.28662109375	-0.6767578125	0.46728515625	26.375	58.375	26.0625
19	03	22	09	58	34	-0.106754289676	0.206489286434	-0.249825790533	-0.3134765625	-0.57763671875	0.45166015625	29.1875	38.875	39.6875
19	03	22	09	58	34	-0.112797365419	0.196235676311	-0.255136897971	-0.5478515625	-0.4970703125	0.44384765625	-3.875	10.125	22.4375
19	03	22	09	58	34	-0.112978091496	0.191470703957	-0.269780207679	-0.34716796875	-0.70849609375	0.45947265625	-59.4375	2.375	-1.125
19	03	22	09	58	34	-0.110351182448	0.186400725219	-0.284056638889	-0.42529296875	-1.01904296875	0.64892578125	-51.75	0.9375	-25.9375
19	03	22	09	58	34	-0.113102497475	0.181769691031	-0.276499899385	0.02880859375	-0.79931640625	0.72021484375	66.4375	6.125	-2.25
19	03	22	09	58	34	-0.121587836849	0.175362377142	-0.26582079793	0.5380859375	-0.52197265625	0.794921875	74.1875	32.5	53.5
19	03	22	09	58	34	-0.125915725527	0.172668728801	-0.260925703649	0.89794921875	-0.22607421875	1.2080078125	1.5	34.625	51.4375
19	03	22	09	58	34	-0.11761598257	0.174867561008	-0.260439749676	0.69677734375	-0.6171875	0.94189453125	-6.3125	22.875	-34.5625
19	03	22	09	58	34	-0.103331725209	0.179258875924	-0.259153281299	0.427734375	-1.1201171875	0.85302734375	23.6875	4.5	-92.3125
19	03	22	09	58	34	-0.0981469645208	0.175724571427	-0.249029611471	0.23388671875	-0.59130859375	0.80712890625	62.25	22.0625	-39.25
19	03	22	09	58	34	-0.0997367812627	0.168221890551	-0.237378422479	0.0771484375	-0.38330078125	0.87109375	67.5	23.875	0.5
19	03	22	09	58	34	-0.0953363307214	0.166808061371	-0.233274939832	0.39990234375	-0.486328125	0.8330078125	22.125	20.4375	-22.75
19	03	22	09	58	34	-0.0888095387346	0.166632330409	-0.232308662834	0.36279296875	-0.6923828125	0.8720703125	12.125	14.4375	-38.5
19	03	22	09	58	34	-0.0839236856244	0.165833202794	-0.226990681336	0.322265625	-0.6455078125	0.84912109375	37.875	12.1875	-33.625
19	03	22	09	58	34	-0.0803843497791	0.163210137668	-0.221316364692	0.2001953125	-0.54931640625	0.8291015625	38.0625	13.9375	-26.875
19	03	22	09	58	34	-0.0755019060184	0.161074801926	-0.216861982283	0.17724609375	-0.5615234375	0.845703125	30.5	11.75	-34.5
19	03	22	09	58	34	-0.0709240256008	0.160036828851	-0.215396631967	0.322265625	-0.52734375	0.86083984375	10.5	14.3125	-26.1875
19	03	22	09	58	34	-0.0666513278231	0.158510529631	-0.213809158759	0.189453125	-0.57666015625	0.80078125	16.9375	9.375	-28.9375
19	03	22	09	58	34	-0.061037700152	0.155524059987	-0.210946291725	0.08740234375	-0.58740234375	0.75	27.0625	14.625	-39.25
19	03	22	09	58	34	-0.0565189910533	0.152528033091	-0.207826311595	0.1455078125	-0.43017578125	0.82421875	17.5625	15.3125	-28.5
19	03	22	09	58	34	-0.0519429576229	0.150091342885	-0.204964103053	0.2138671875	-0.41748046875	0.81298828125	16.375	16.8125	-26.9375
19	03	22	09	58	34	-0.0461452028341	0.146858939178	-0.203136554275	0.0732421875	-0.484375	0.76513671875	15.0625	15.125	-37.125
19	03	22	09	58	34	-0.0396135598603	0.142767513888	-0.197823647931	0.09033203125	-0.416015625	0.83544921875	29.9375	21.0625	-41.8125
19	03	22	09	58	34	-0.0341203435601	0.139350168779	-0.193735188658	0.1728515625	-0.37109375	0.8154296875	21.5	21.625	-32.3125
19	03	22	09	58	34	-0.0267343999177	0.132207100963	-0.186347312668	-0.06298828125	-0.47509765625	0.8515625	47.0625	29.5	-49.875
19	03	22	09	58	34	-0.0216071128091	0.129337491645	-0.182317643957	0.3623046875	-0.2607421875	0.89697265625	14.125	29.5	-23.8125
19	03	22	09	58	34	-0.015136891697	0.12182756382	-0.177065011343	-0.0078125	-0.4951171875	0.8505859375	38.0	35.125	-40.875
19	03	22	09	58	34	-0.00854529667741	0.117253677981	-0.172614992884	0.21044921875	-0.337890625	0.88671875	22.6875	32.125	-35.9375
19	03	22	09	58	34	-0.00268566332927	0.113713426874	-0.167487731262	0.25927734375	-0.275390625	1.00146484375	20.75	27.3125	-31.0
19	03	22	09	58	34	0.00329589795865	0.108581527193	-0.161376929679	0.10595703125	-0.35302734375	0.86083984375	35.75	29.5	-35.8125
19	03	22	09	58	34	0.00891151617447	0.103764229429	-0.153876248465	0.162109375	-0.2236328125	0.9423828125	34.8125	30.5	-31.4375
19	03	22	09	58	35	0.0139778841872	0.101629594636	-0.150094398325	0.34765625	-0.20703125	1.00537109375	11.8125	25.375	-24.6875
19	03	22	09	58	35	0.0187988796331	0.0968020230457	-0.147095129597	0.13427734375	-0.38720703125	0.94384765625	20.8125	28.125	-27.1875
19	03	22	09	58	35	0.0233764922753	0.0928956168225	-0.143615891185	0.2080078125	-0.26416015625	1.01806640625	14.9375	26.6875	-23.875
19	03	22	09	58	35	0.0272842454079	0.0886890572208	-0.139717310377	0.1357421875	-0.27294921875	1.06884765625	17.625	23.4375	-21.4375
19	03	22	09	58	35	0.030640988091	0.0858191817847	-0.136114349488	0.24267578125	-0.287109375	1.05078125	18.5	22.9375	-17.75
19	03	22	09	58	35	0.0349130784756	0.082216637599	-0.131595449639	0.13623046875	-0.21533203125	1.09423828125	18.125	20.625	-23.5625
19	03	22	09	58	35	0.0385143797104	0.0785546857167	-0.129581661054	0.1630859375	-0.30322265625	1.00537109375	11.75	23.1875	-19.0625
19	03	22	09	58	35	0.0426031735866	0.0734874226336	-0.126710871584	0.09033203125	-0.330078125	1.07080078125	17.75	27.0625	-22.625
19	03	22	09	58	35	0.0459603008329	0.0714124196208	-0.126222977586	0.2490234375	-0.291015625	1.10888671875	1.4375	19.1875	-16.6875
19	03	22	09	58	35	0.051026170274	0.0668345172847	-0.125368126487	0.06640625	-0.34326171875	1.06591796875	6.5	23.125	-27.9375
19	03	22	09	58	35	0.0562747657344	0.0625003905771	-0.125428029918	0.0078125	-0.30810546875	1.091796875	-1.3125	18.3125	-29.5
19	03	22	09	58	35	0.0619524675179	0.0601823970174	-0.126590559243	0.1162109375	-0.4306640625	1.18017578125	-0.4375	13.4375	-32.5
19	03	22	09	58	35	0.0669571473427	0.058045804123	-0.125552280842	0.064453125	-0.33642578125	1.03076171875	8.625	10.75	-29.1875
19	03	22	09	58	35	0.0729371286909	0.0491333795784	-0.124267777418	-0.20703125	-0.36865234375	0.97265625	10.25	33.25	-34.25
19	03	22	09	58	35	0.0784333415448	0.0493794344823	-0.129155603664	0.26171875	-0.3291015625	1.189453125	-28.375	8.125	-28.625
19	03	22	09	58	35	0.0867343848195	0.0487079796523	-0.129704833034	0.24365234375	-0.43896484375	0.9462890625	7.0	18.1875	-46.0625
19	03	22	09	58	35	0.0924711633356	0.0433973578426	-0.130008962313	-0.078125	-0.33154296875	0.94873046875	-0.375	21.3125	-32.4375
19	03	22	09	58	35	0.0995502759042	0.0429085493321	-0.134218918892	0.16015625	-0.4501953125	1.13134765625	-16.75	7.3125	-40.125
19	03	22	09	58	35	0.105780772669	0.0446195873175	-0.134835387667	0.24072265625	-0.4404296875	0.8681640625	9.4375	3.625	-36.0625
19	03	22	09	58	35	0.11108976403	0.0401632223803	-0.134284330147	-0.17919921875	-0.3369140625	0.79541015625	7.3125	11.375	-32.5625
19	03	22	09	58	35	0.115911880563	0.0416892124404	-0.140327231919	0.1533203125	-0.39404296875	0.9951171875	-27.375	-6.75	-28.1875
19	03	22	09	58	35	0.12109468877	0.0409549073409	-0.140320912037	0.0859375	-0.32177734375	0.8828125	2.8125	6.5	-30.0625
19	03	22	09	58	35	0.125984061399	0.0412622216596	-0.140267138127	0.04541015625	-0.17138671875	0.966796875	-7.75	-2.6875	-28.6875
19	03	22	09	58	35	0.131535985816	0.040345840661	-0.141118885943	0.04736328125	-0.2900390625	0.9072265625	-4.8125	4.8125	-32.375
19	03	22	09	58	35	0.136476389853	0.0415044477192	-0.141359266055	0.15869140625	-0.26953125	0.9248046875	-1.625	0.0	-28.75
19	03	22	09	58	35	0.141114429892	0.0419314936574	-0.141785822076	0.10595703125	-0.25732421875	0.873046875	-2.8125	0.1875	-27.0
19	03	22	09	58	35	0.147528293852	0.0432147422619	-0.142218007726	0.060546875	-0.27734375	0.98095703125	-3.375	-7.0	-39.0625
19	03	22	09	58	35	0.153812164123	0.0434580400221	-0.141910032375	0.05859375	-0.33837890625	0.97265625	4.0625	-1.0625	-38.5
19	03	22	09	58	35	0.159610984636	0.0454113088219	-0.141177899604	0.06982421875	-0.22900390625	1.00634765625	0.625	-10.8125	-35.75
19	03	22	09	58	35	0.165536374219	0.0471217112452	-0.14160928768	0.07080078125	-0.302734375	1.017578125	-1.9375	-10.5	-37.125
19	03	22	09	58	35	0.171941432361	0.0482803241029	-0.141300822122	0.052734375	-0.32861328125	1.05859375	3.0	-8.3125	-40.0625
19	03	22	09	58	35	0.177432123776	0.0487068575072	-0.142031149648	0.0419921875	-0.3349609375	1.0205078125	-2.375	-6.75	-34.6875
19	03	22	09	58	35	0.183228670784	0.0484622133918	-0.144410071644	0.0126953125	-0.3671875	1.1064453125	-12.125	-7.4375	-36.4375
19	03	22	09	58	35	0.188844616619	0.0488286015822	-0.146852019258	0.04833984375	-0.3642578125	1.01953125	-10.75	-8.0625	-35.5625
19	03	22	09	58	35	0.195139788409	0.0478541113897	-0.148323329945	-0.0390625	-0.361328125	1.00634765625	-7.0	-4.4375	-39.625
19	03	22	09	58	35	0.200016900604	0.0487071976447	-0.153201837203	0.1708984375	-0.37060546875	1.0693359375	-25.3125	-6.8125	-29.3125
19	03	22	09	58	35	0.206121000229	0.0478527877346	-0.156864367957	0.00927734375	-0.36328125	0.93994140625	-19.125	-4.75	-38.0
19	03	22	09	58	35	0.211009762144	0.0459619181066	-0.161934885441	-0.0400390625	-0.39453125	0.9091796875	-25.875	-4.125	-31.1875
19	03	22	09	58	35	0.217237463576	0.0486480074376	-0.167979067087	0.20068359375	-0.33349609375	1.01220703125	-33.75	-15.8125	-38.125
19	03	22	09	58	35	0.222056810645	0.0484642956713	-0.168770500669	0.01171875	-0.2490234375	0.8603515625	-9.0625	-4.875	-30.25
19	03	22	09	58	35	0.226146281984	0.0502343832855	-0.174508021644	0.162109375	-0.31591796875	0.93994140625	-32.3125	-14.8125	-25.5625
19	03	22	09	58	35	0.231212597753	0.0518824466976	-0.180001570954	0.10400390625	-0.41259765625	0.90673828125	-25.0	-16.6875	-33.9375
19	03	22	09	58	35	0.236028472007	0.055665365004	-0.184025302069	0.14990234375	-0.33349609375	0.9482421875	-20.875	-24.75	-32.875
19	03	22	09	58	35	0.240978840487	0.0584746021242	-0.189157402905	0.1240234375	-0.40283203125	0.9833984375	-25.0625	-23.75	-34.5625
19	03	22	09	58	35	0.245190414182	0.0606719620854	-0.192819646104	0.07568359375	-0.3427734375	0.939453125	-20.75	-22.1875	-29.75
19	03	22	09	58	35	0.249156034508	0.0634182067256	-0.19849471441	0.19482421875	-0.4248046875	0.9931640625	-27.5	-22.125	-28.0625
19	03	22	09	58	35	0.253677915864	0.0664103879837	-0.203259735281	0.154296875	-0.39208984375	0.96630859375	-24.75	-24.625	-32.1875
19	03	22	09	58	35	0.257571432763	0.0686653701085	-0.206301289748	0.10791015625	-0.38916015625	0.91748046875	-15.1875	-21.3125	-28.75
19	03	22	09	58	35	0.261233585835	0.0732430614491	-0.211733483472	0.3486328125	-0.35009765625	0.9716796875	-29.25	-24.0625	-24.125
19	03	22	09	58	35	0.26465017811	0.0745854514876	-0.21539448306	0.1015625	-0.3388671875	0.97216796875	-25.0625	-20.1875	-24.75
19	03	22	09	58	36	0.267457994605	0.075256893507	-0.220643690209	0.10888671875	-0.44384765625	0.89794921875	-26.75	-18.75	-22.0625
19	03	22	09	58	36	0.271253572775	0.0802041392049	-0.22541391635	0.33349609375	-0.39013671875	0.99853515625	-25.125	-28.1875	-27.4375
19	03	22	09	58	36	0.274917096969	0.0824018829725	-0.228466850345	0.15478515625	-0.4345703125	0.92041015625	-14.875	-21.25	-28.4375
19	03	22	09	58	36	0.277911005614	0.0848443439059	-0.23084986234	0.23486328125	-0.40234375	0.87109375	-11.0625	-16.875	-22.625
19	03	22	09	58	36	0.281558878382	0.0864879537541	-0.234805333869	0.2265625	-0.373046875	0.8515625	-23.5625	-14.875	-24.625
19	03	22	09	58	36	0.284500109567	0.0869797588786	-0.240247249787	0.19482421875	-0.43212890625	0.84326171875	-29.75	-14.3125	-21.0
19	03	22	09	58	36	0.287004698032	0.0871634854934	-0.245559315224	0.17431640625	-0.39404296875	0.826171875	-31.5625	-14.25	-17.8125
19	03	22	09	58	36	0.288640837304	0.088502688537	-0.252141107825	0.28173828125	-0.4404296875	0.85595703125	-35.0625	-18.5625	-12.625
19	03	22	09	58	36	0.2901679651	0.0913717803439	-0.259466558612	0.39111328125	-0.43798828125	0.8779296875	-38.75	-22.4375	-11.25
19	03	22	09	58	36	0.292312983063	0.0916797036043	-0.263075580915	0.162109375	-0.396484375	0.9296875	-26.5	-17.0625	-16.6875
19	03	22	09	58	36	0.294389613115	0.0913138837281	-0.267410511105	0.13330078125	-0.421875	0.82763671875	-27.8125	-14.0625	-16.75
19	03	22	09	58	36	0.297615335352	0.0940576767385	-0.27271232944	0.330078125	-0.37060546875	0.8837890625	-35.125	-21.25	-21.875
19	03	22	09	58	36	0.300237941534	0.0939960215415	-0.281133555338	0.16748046875	-0.28076171875	0.87255859375	-62.375	-22.875	-16.0625
19	03	22	09	58	36	0.303350113641	0.0919205776948	-0.288030017358	0.07373046875	-0.30517578125	0.8271484375	-55.3125	-13.1875	-19.0625
19	03	22	09	58	36	0.304139528477	0.0908207141028	-0.296632171062	0.2373046875	-0.4111328125	0.81591796875	-55.875	-15.9375	-4.875
19	03	22	09	58	36	0.304568526043	0.0881356616446	-0.305728205802	0.21826171875	-0.43896484375	0.78271484375	-59.5	-9.5	-0.6875
19	03	22	09	58	36	0.305863893006	0.0861253149135	-0.314775513117	0.30224609375	-0.4697265625	0.76123046875	-58.0625	-6.75	-5.1875
19	03	22	09	58	36	0.311052804116	0.081425518189	-0.324786493466	0.1474609375	-0.546875	0.71826171875	-67.875	3.75	-29.625
19	03	22	09	58	36	0.314101430309	0.0793493702686	-0.331008949974	0.3076171875	-0.71337890625	0.8232421875	-35.3125	-0.125	-20.1875
19	03	22	09	58	36	0.318236836998	0.076171763056	-0.337157707629	0.4443359375	-0.6337890625	0.73046875	-39.75	17.5	-17.1875
19	03	22	09	58	36	0.320568823609	0.0694606476138	-0.337903466775	-0.0615234375	-0.5146484375	0.806640625	-21.875	14.1875	-13.875
19	03	22	09	58	36	0.323615020646	0.0675673006139	-0.340033813659	0.322265625	-0.60302734375	0.8232421875	-18.875	8.4375	-16.3125
19	03	22	09	58	36	0.327716114598	0.0631138875944	-0.343647182937	0.2646484375	-0.57763671875	0.75439453125	-32.1875	18.8125	-18.625
19	03	22	09	58	36	0.331312072334	0.060366182671	-0.346632508987	0.28759765625	-0.63623046875	0.87255859375	-27.375	8.9375	-19.5
19	03	22	09	58	36	0.333506697882	0.0576190195462	-0.349315305999	0.30126953125	-0.63525390625	0.8017578125	-21.6875	9.5	-10.8125
19	03	22	09	58	36	0.335273097079	0.0557872948718	-0.351447750407	0.25732421875	-0.59765625	0.80126953125	-18.625	3.0625	-10.375
19	03	22	09	58	36	0.336137346044	0.0560941022362	-0.349748863779	0.3173828125	-0.5439453125	0.83544921875	4.375	0.6875	-4.9375
19	03	22	09	58	36	0.337592133581	0.0561534555948	-0.350837024738	0.4150390625	-0.43896484375	0.841796875	-18.6875	2.1875	-2.625
19	03	22	09	58	36	0.337952756093	0.0539552530949	-0.354188160305	0.2861328125	-0.4853515625	0.8232421875	-32.4375	0.4375	1.5625
19	03	22	09	58	36	0.338818296785	0.0543232361987	-0.355481491709	0.32080078125	-0.51416015625	0.85546875	-15.8125	-6.375	-5.375
19	03	22	09	58	36	0.339670606948	0.0557877690477	-0.355051917451	0.373046875	-0.51220703125	0.8486328125	-3.6875	-5.25	-4.9375
19	03	22	09	58	36	0.340588495865	0.056703711946	-0.353711529308	0.341796875	-0.44970703125	0.83935546875	-2.1875	-2.4375	-3.5625
19	03	22	09	58	36	0.341265961371	0.0581696407059	-0.350971074564	0.31591796875	-0.36962890625	0.83642578125	3.3125	-3.75	-1.8125
19	03	22	09	58	36	0.341688554712	0.0603051611388	-0.347792315961	0.333984375	-0.34619140625	0.8212890625	7.625	-5.375	-0.8125
19	03	22	09	58	36	0.342231218595	0.0625012962085	-0.345222003277	0.34765625	-0.37353515625	0.80078125	6.375	-5.6875	-1.875
19	03	22	09	58	36	0.34265485202	0.0653082813789	-0.342288637358	0.3583984375	-0.38134765625	0.8115234375	10.3125	-7.9375	-2.9375
19	03	22	09	58	36	0.342771789633	0.0678097326001	-0.339842116217	0.3759765625	-0.3671875	0.80810546875	7.0625	-7.0625	0.625
19	03	22	09	58	36	0.34254996263	0.0701946644734	-0.337544777859	0.3759765625	-0.3603515625	0.81494140625	5.9375	-7.9375	2.375
19	03	22	09	58	36	0.342592929226	0.0728765290391	-0.335146583713	0.38232421875	-0.3544921875	0.8447265625	5.75	-9.0	0.375
19	03	22	09	58	36	0.342788803839	0.0752597213556	-0.333694157868	0.361328125	-0.3837890625	0.818359375	2.3125	-9.75	-1.6875
19	03	22	09	58	36	0.342852830722	0.0782512602787	-0.332598375397	0.37890625	-0.380859375	0.85205078125	0.4375	-14.1875	-1.9375
19	03	22	09	58	36	0.34289947544	0.0816659840048	-0.331180589843	0.39892578125	-0.34228515625	0.85400390625	1.1875	-14.875	-1.25
19	03	22	09	58	36	0.34302973742	0.0842925386791	-0.329845676337	0.341796875	-0.35791015625	0.8291015625	1.0	-13.375	-2.9375
19	03	22	09	58	36	0.343075672486	0.0872184906569	-0.328000118118	0.29541015625	-0.3740234375	0.8046875	6.8125	-16.25	-4.9375
19	03	22	09	58	36	0.343458717131	0.0918616259609	-0.325391580065	0.32373046875	-0.37158203125	0.79296875	14.625	-21.25	-10.125
19	03	22	09	58	36	0.344430713089	0.0967433422376	-0.322640572282	0.33154296875	-0.37158203125	0.77001953125	16.0625	-20.25	-13.625
19	03	22	09	58	36	0.346093218423	0.101935745109	-0.31880862078	0.369140625	-0.361328125	0.79736328125	21.0625	-17.625	-17.375
19	03	22	09	58	36	0.348534728228	0.106635756605	-0.314413727688	0.396484375	-0.35498046875	0.791015625	23.0	-11.4375	-20.125
19	03	22	09	58	36	0.351336127833	0.110479220184	-0.309463893001	0.3955078125	-0.35693359375	0.79150390625	24.8125	-5.1875	-20.875
19	03	22	09	58	36	0.353891241154	0.114016702048	-0.303719009311	0.38623046875	-0.35986328125	0.783203125	30.25	-2.75	-20.1875
19	03	22	09	58	37	0.35633050532	0.117311961498	-0.298345924975	0.421875	-0.32861328125	0.77099609375	27.4375	-0.125	-17.3125
19	03	22	09	58	37	0.358643408482	0.1202395362	-0.293518745982	0.439453125	-0.302734375	0.79052734375	22.3125	0.375	-14.8125
19	03	22	09	58	37	0.361215947253	0.122256766196	-0.289436637694	0.4501953125	-0.251953125	0.82421875	12.8125	3.4375	-13.4375
19	03	22	09	58	37	0.363719692312	0.123722070199	-0.286019546598	0.44287109375	-0.2666015625	0.84130859375	9.0	3.75	-12.5
19	03	22	09	58	37	0.365427985287	0.124942556519	-0.282356749613	0.45068359375	-0.2802734375	0.865234375	11.3125	4.125	-8.1875
19	03	22	09	58	37	0.366166990552	0.126348669852	-0.27918783377	0.490234375	-0.28271484375	0.88720703125	10.5	2.5625	-1.875
19	03	22	09	58	37	0.366398900148	0.127687239565	-0.276431887185	0.5205078125	-0.240234375	0.9189453125	5.8125	2.0625	2.8125
19	03	22	09	58	37	0.366706075203	0.128664515068	-0.273991939345	0.50048828125	-0.20654296875	0.95361328125	0.75	1.0	3.75
19	03	22	09	58	37	0.366587070653	0.13000840168	-0.271125502471	0.47119140625	-0.20263671875	0.9560546875	4.0	-1.9375	4.4375
19	03	22	09	58	37	0.365376779868	0.132270544934	-0.268996904256	0.48095703125	-0.21533203125	0.95166015625	4.875	-9.25	9.0
19	03	22	09	58	37	0.363482357018	0.135199566884	-0.266309575763	0.4755859375	-0.21533203125	0.935546875	10.75	-12.1875	11.3125
19	03	22	09	58	37	0.361029884474	0.138796611546	-0.263005540524	0.47900390625	-0.1953125	0.9033203125	16.4375	-14.0	13.4375
19	03	22	09	58	37	0.358783469878	0.142097298039	-0.260511713072	0.46142578125	-0.20849609375	0.8994140625	12.125	-15.125	12.3125
19	03	22	09	58	37	0.356520386393	0.145208354602	-0.258616140583	0.45458984375	-0.2119140625	0.90625	9.1875	-16.375	11.6875
19	03	22	09	58	37	0.354324186001	0.148260714521	-0.256114433154	0.4228515625	-0.23388671875	0.861328125	14.75	-15.1875	10.0625
19	03	22	09	58	37	0.351819258275	0.152654400581	-0.25318290828	0.45068359375	-0.21533203125	0.84423828125	19.375	-19.625	10.0625
19	03	22	09	58	37	0.349004900791	0.158144753051	-0.249454884493	0.462890625	-0.17333984375	0.82080078125	25.0625	-23.0625	10.75
19	03	22	09	58	37	0.346264704405	0.164556609039	-0.245553129882	0.517578125	-0.10009765625	0.83447265625	23.4375	-25.0	11.6875
19	03	22	09	58	37	0.344010752987	0.170845652522	-0.24079531947	0.51025390625	-0.072265625	0.82275390625	26.125	-22.375	8.875
19	03	22	09	58	37	0.341503308232	0.17713004477	-0.235054377122	0.49853515625	-0.07177734375	0.81884765625	32.875	-21.6875	8.8125
19	03	22	09	58	37	0.338382394903	0.183107356549	-0.229433517756	0.50390625	-0.05419921875	0.8212890625	32.125	-20.8125	13.3125
19	03	22	09	58	37	0.333871937202	0.188909258801	-0.223334080114	0.5087890625	-0.05126953125	0.82177734375	36.75	-20.375	21.0625
19	03	22	09	58	37	0.327839846799	0.193920534962	-0.217481544246	0.52099609375	-0.04638671875	0.7998046875	37.5625	-16.8125	31.25
19	03	22	09	58	37	0.320329604323	0.198680042316	-0.212474724209	0.57080078125	-0.05712890625	0.826171875	34.6875	-17.0	40.75
19	03	22	09	58	37	0.313547155405	0.200689711305	-0.208563486475	0.47705078125	-0.10400390625	0.78857421875	27.375	-7.5	38.25
19	03	22	09	58	37	0.309392996488	0.202152220235	-0.204349526976	0.4912109375	-0.15185546875	0.85888671875	25.6875	-3.5625	21.875
19	03	22	09	58	37	0.306050225152	0.201307068718	-0.198560307622	0.34423828125	-0.203125	0.7802734375	34.4375	7.1875	14.875
19	03	22	09	58	37	0.302629046195	0.200328465029	-0.193003841079	0.37451171875	-0.1259765625	0.81494140625	28.1875	8.625	18.8125
19	03	22	09	58	37	0.299388506035	0.197456027935	-0.187445892361	0.265625	-0.099609375	0.76416015625	24.8125	14.625	19.6875
19	03	22	09	58	37	0.296700471195	0.1949519245	-0.184819795675	0.3193359375	-0.12451171875	0.82666015625	9.3125	9.125	17.75
19	03	22	09	58	37	0.295724335476	0.192571780893	-0.183721413784	0.310546875	-0.177734375	0.84716796875	1.0625	5.625	7.4375
19	03	22	09	58	37	0.293588182704	0.192083578164	-0.180303428629	0.326171875	-0.17578125	0.810546875	19.4375	1.25	9.75
19	03	22	09	58	37	0.290913170429	0.192823060299	-0.177746360111	0.3896484375	-0.05029296875	0.8349609375	9.125	-4.375	16.75
19	03	22	09	58	37	0.289683407507	0.193732645476	-0.17859537513	0.48876953125	-0.07958984375	0.8642578125	-10.125	-5.75	11.25
19	03	22	09	58	37	0.288771279812	0.194284291617	-0.181283175024	0.50439453125	-0.15673828125	0.9091796875	-17.25	-7.625	9.3125
19	03	22	09	58	37	0.286758881804	0.195262167495	-0.180918119554	0.49853515625	-0.103515625	0.876953125	-1.1875	-4.6875	14.4375
19	03	22	09	58	37	0.283401894601	0.19452979498	-0.181711703689	0.4990234375	0.01025390625	0.9091796875	-15.5	0.8125	29.4375
19	03	22	09	58	37	0.280290098122	0.193248791519	-0.184154012638	0.55322265625	-0.04150390625	0.91943359375	-23.3125	3.875	29.25
19	03	22	09	58	37	0.276507558143	0.19093060527	-0.187939684663	0.50390625	-0.13720703125	0.86279296875	-25.25	5.8125	32.125
19	03	22	09	58	37	0.273026593651	0.189525502635	-0.190563162392	0.52099609375	-0.09912109375	0.8408203125	-20.375	5.0	29.8125
19	03	22	09	58	37	0.269601334943	0.187017996438	-0.192694456512	0.4189453125	-0.0703125	0.8076171875	-20.5625	6.9375	30.4375
19	03	22	09	58	37	0.266072533705	0.185194784873	-0.19447283606	0.4736328125	-0.083984375	0.7939453125	-16.9375	7.4375	29.9375
19	03	22	09	58	37	0.262579725193	0.182560659706	-0.198125008828	0.45751953125	-0.11572265625	0.84326171875	-27.9375	6.75	31.8125
19	03	22	09	58	37	0.260191298913	0.181578492673	-0.200865485509	0.509765625	-0.1640625	0.849609375	-20.0625	2.875	21.9375
19	03	22	09	58	37	0.256042748496	0.179687688098	-0.203064177413	0.46044921875	-0.15087890625	0.8173828125	-16.3125	5.5625	32.5625
19	03	22	09	58	37	0.252576188236	0.178536817446	-0.203745605687	0.5	-0.10205078125	0.84619140625	-11.9375	6.1875	28.9375
19	03	22	09	58	37	0.24878774486	0.175604107449	-0.206000647425	0.44091796875	-0.111328125	0.8408203125	-21.875	10.0625	33.1875
19	03	22	09	58	37	0.245730619005	0.173647195994	-0.207827311901	0.47802734375	-0.19140625	0.8603515625	-15.375	7.75	26.0625
19	03	22	09	58	37	0.242685018331	0.171454279802	-0.210640341615	0.45166015625	-0.20849609375	0.91455078125	-21.625	4.75	26.0625
19	03	22	09	58	37	0.239932917985	0.170046580897	-0.212588744172	0.5107421875	-0.19189453125	0.88720703125	-17.25	6.375	24.6875
19	03	22	09	58	38	0.235723686462	0.165775642784	-0.213933589086	0.41162109375	-0.1474609375	0.84716796875	-17.4375	17.5	36.125
19	03	22	09	58	38	0.232851839235	0.161256765205	-0.216311118807	0.4365234375	-0.1806640625	0.908203125	-25.1875	18.875	29.5
19	03	22	09	58	38	0.228895606646	0.156198361975	-0.219800821208	0.41845703125	-0.23095703125	0.83056640625	-26.4375	20.875	35.5
19	03	22	09	58	38	0.224557362124	0.151495344602	-0.223458685168	0.453125	-0.23876953125	0.88037109375	-28.125	19.125	38.375
19	03	22	09	58	38	0.219668032667	0.145875687156	-0.228029944441	0.41943359375	-0.20556640625	0.82177734375	-35.0	22.375	44.25
19	03	22	09	58	38	0.214054573139	0.139040866156	-0.234501759338	0.439453125	-0.23681640625	0.84423828125	-46.4375	26.5	50.9375
19	03	22	09	58	38	0.210088238259	0.132754769963	-0.24017931945	0.41552734375	-0.263671875	0.88720703125	-43.5	24.875	39.9375
19	03	22	09	58	38	0.203988975807	0.124639583662	-0.246288305619	0.31201171875	-0.21142578125	0.8291015625	-48.0625	27.5625	53.875
19	03	22	09	58	38	0.196968350184	0.116703900078	-0.252573608014	0.38232421875	-0.255859375	0.8427734375	-47.3125	29.5	60.0
19	03	22	09	58	38	0.191785036114	0.109687367886	-0.257524209855	0.3310546875	-0.3212890625	0.85791015625	-37.9375	26.3125	45.375
19	03	22	09	58	38	0.185430690253	0.102664391378	-0.263558170018	0.318359375	-0.2568359375	0.837890625	-47.25	23.75	54.0
19	03	22	09	58	38	0.179452501519	0.096684613063	-0.269606020139	0.3984375	-0.341796875	0.890625	-45.0	22.8125	51.3125
19	03	22	09	58	38	0.174569841218	0.0915576090306	-0.272658559693	0.35791015625	-0.29296875	0.8515625	-29.9375	22.25	43.1875
19	03	22	09	58	38	0.168400243238	0.0844137500535	-0.275336533978	0.23974609375	-0.27734375	0.84814453125	-29.8125	25.5625	50.25
19	03	22	09	58	38	0.164368592734	0.0794682167619	-0.277833581183	0.263671875	-0.35546875	0.9140625	-27.0	18.1875	34.5
19	03	22	09	58	38	0.160285213188	0.0753206218865	-0.279797188596	0.25634765625	-0.40283203125	0.87939453125	-19.5	14.6875	32.5625
19	03	22	09	58	38	0.155946105207	0.0720831116435	-0.279299169247	0.279296875	-0.390625	0.87548828125	-4.8125	14.25	33.25
19	03	22	09	58	38	0.152467965616	0.0692758770914	-0.278812516787	0.30517578125	-0.38623046875	0.8603515625	-5.0625	15.375	28.8125
19	03	22	09	58	38	0.150091781561	0.0667142404419	-0.279186583514	0.31201171875	-0.47021484375	0.90771484375	-7.5	14.5625	21.75
19	03	22	09	58	38	0.14752922274	0.0642121399762	-0.280287211759	0.28759765625	-0.51513671875	0.92431640625	-9.9375	12.4375	21.5625
19	03	22	09	58	38	0.144594825219	0.0616465907434	-0.281254940738	0.32568359375	-0.48828125	0.86376953125	-8.375	15.5	25.5625
19	03	22	09	58	38	0.142094859114	0.0574361092896	-0.283152083947	0.2060546875	-0.47802734375	0.85302734375	-16.125	17.875	22.25
19	03	22	09	58	38	0.141301576224	0.0553609199287	-0.28638747112	0.27587890625	-0.52880859375	0.89404296875	-22.25	11.5625	11.625
19	03	22	09	58	38	0.138187943538	0.051149070974	-0.290292340754	0.24951171875	-0.48291015625	0.8427734375	-28.1875	18.3125	27.875
19	03	22	09	58	38	0.136171903815	0.0482186481462	-0.293950644902	0.318359375	-0.54248046875	0.9091796875	-26.3125	16.9375	21.8125
19	03	22	09	58	38	0.135809019956	0.0465718122367	-0.29762012643	0.291015625	-0.59423828125	0.92236328125	-24.0	11.25	9.0625
19	03	22	09	58	38	0.133301958418	0.0429080937582	-0.301699441603	0.244140625	-0.58447265625	0.8642578125	-26.1875	16.1875	23.1875
19	03	22	09	58	38	0.13428080492	0.0422984535499	-0.303962912956	0.34130859375	-0.5947265625	0.94287109375	-17.6875	11.875	2.4375
19	03	22	09	58	38	0.134221566347	0.0399185558849	-0.306530562162	0.2080078125	-0.552734375	0.87158203125	-20.125	12.875	6.8125
19	03	22	09	58	38	0.133549818228	0.0378431843241	-0.309886849699	0.251953125	-0.5625	0.93359375	-27.25	11.25	11.25
19	03	22	09	58	38	0.133854272885	0.0375377919854	-0.311655229069	0.28662109375	-0.58203125	0.84912109375	-12.3125	7.9375	4.3125
19	03	22	09	58	38	0.132146720525	0.0350967040656	-0.31281844928	0.26513671875	-0.412109375	0.7763671875	-16.25	15.8125	20.125
19	03	22	09	58	38	0.132690501857	0.0340576357112	-0.316284351712	0.35205078125	-0.498046875	0.8115234375	-27.4375	15.1875	8.125
19	03	22	09	58	38	0.134039009259	0.0333266389142	-0.318922506093	0.2080078125	-0.53515625	0.80615234375	-20.1875	7.25	-3.1875
19	03	22	09	58	38	0.134524720298	0.0355233154327	-0.320503315012	0.35888671875	-0.50732421875	0.77392578125	-12.25	-0.5	2.625
19	03	22	09	58	38	0.134950917619	0.0369268680053	-0.319829402227	0.2431640625	-0.44580078125	0.6455078125	2.625	0.1875	0.0
19	03	22	09	58	38	0.135318986637	0.038392260981	-0.319284447045	0.166015625	-0.41845703125	0.66650390625	-0.1875	-4.8125	-2.25
19	03	22	09	58	38	0.13562071083	0.0413820170759	-0.319032158195	0.16748046875	-0.53466796875	0.6953125	4.8125	-14.0625	-6.625
19	03	22	09	58	38	0.135076812649	0.0466939727415	-0.317519014642	0.224609375	-0.55859375	0.8232421875	10.25	-25.8125	-4.5625
19	03	22	09	58	38	0.134525043302	0.052247475983	-0.314034186837	0.228515625	-0.51220703125	0.7431640625	23.4375	-24.5625	-4.625
19	03	22	09	58	38	0.133849987459	0.0580443858065	-0.308959706574	0.27490234375	-0.451171875	0.85205078125	26.125	-24.0625	-2.3125
19	03	22	09	58	38	0.132995858395	0.0624390835881	-0.305847749619	0.22705078125	-0.47607421875	0.8779296875	14.3125	-21.75	-1.375
19	03	22	09	58	38	0.132938992599	0.0672019425397	-0.302500297209	0.27587890625	-0.54833984375	0.87939453125	20.125	-20.375	-5.875
19	03	22	09	58	38	0.131225714506	0.0702515336728	-0.297668748673	0.1640625	-0.45263671875	0.83056640625	25.75	-17.8125	2.6875
19	03	22	09	58	38	0.130439916112	0.0744673362921	-0.295061560358	0.29541015625	-0.5234375	0.87548828125	15.3125	-18.5	-0.4375
19	03	22	09	58	38	0.130253590525	0.0773952918398	-0.291514127624	0.14599609375	-0.56494140625	0.80126953125	25.5625	-17.0625	-8.125
19	03	22	09	58	38	0.129461262509	0.0817296702024	-0.287060970098	0.2509765625	-0.447265625	0.81884765625	25.5	-20.0	-2.0625
19	03	22	09	58	38	0.127632211902	0.0849050247517	-0.284685144099	0.27685546875	-0.38134765625	0.77392578125	10.9375	-14.6875	7.8125
19	03	22	09	58	38	0.127142747025	0.0883223979573	-0.282668296434	0.26123046875	-0.4482421875	0.8173828125	10.6875	-16.375	-1.5625
19	03	22	09	58	39	0.126467279266	0.092592115177	-0.281499561764	0.39892578125	-0.47509765625	0.82861328125	7.5625	-14.4375	2.0625
19	03	22	09	58	39	0.125733635256	0.0955209413476	-0.279848892063	0.33056640625	-0.51708984375	0.849609375	11.5625	-11.625	1.3125
19	03	22	09	58	39	0.126836978852	0.0997361036785	-0.276502172377	0.3466796875	-0.53564453125	0.8349609375	23.375	-13.375	-12.0
19	03	22	09	58	39	0.126592219121	0.101627794039	-0.272777544479	0.19189453125	-0.501953125	0.7841796875	25.0625	-10.8125	-5.6875
19	03	22	09	58	39	0.12713728239	0.105286515662	-0.270387979352	0.32275390625	-0.5146484375	0.833984375	17.25	-14.1875	-8.625
19	03	22	09	58	39	0.126647207791	0.107848489719	-0.269224498104	0.31201171875	-0.52685546875	0.7666015625	13.375	-10.125	-1.375
19	03	22	09	58	39	0.12622222945	0.109864609773	-0.270266940042	0.35595703125	-0.48828125	0.79345703125	-3.1875	-7.5	2.0
19	03	22	09	58	39	0.126410326699	0.112127363663	-0.272108757326	0.373046875	-0.5205078125	0.78857421875	-6.4375	-7.625	-1.5
19	03	22	09	58	39	0.124211950035	0.112675803324	-0.274609121969	0.345703125	-0.45068359375	0.720703125	-11.6875	-2.75	15.25
19	03	22	09	58	39	0.12238022109	0.112431105859	-0.27784277626	0.3193359375	-0.47021484375	0.76611328125	-17.25	-1.0	13.8125
19	03	22	09	58	39	0.121281369795	0.112308867853	-0.280650094776	0.27392578125	-0.48681640625	0.77294921875	-15.25	-3.0625	7.8125
19	03	22	09	58	39	0.117988059548	0.11200625415	-0.28413575644	0.32275390625	-0.43603515625	0.82080078125	-22.5	-4.0625	23.1875
19	03	22	09	58	39	0.115297289518	0.112306518112	-0.286869910395	0.35205078125	-0.4794921875	0.84619140625	-17.375	-4.625	18.75
19	03	22	09	58	39	0.112797436859	0.1117597981	-0.288402537424	0.28271484375	-0.50830078125	0.8154296875	-7.75	-1.9375	16.0625
19	03	22	09	58	39	0.109072593982	0.110415401519	-0.28699459256	0.21826171875	-0.49169921875	0.7822265625	10.0	0.1875	20.5625
19	03	22	09	58	39	0.105651518169	0.109313615853	-0.285765689236	0.19140625	-0.49658203125	0.81201171875	8.5625	-2.6875	17.5625
19	03	22	09	58	39	0.102660704288	0.10852005483	-0.285948513431	0.1669921875	-0.59765625	0.8125	5.375	-6.1875	13.0625
19	03	22	09	58	39	0.0989399460134	0.108522655158	-0.28516189252	0.1337890625	-0.6357421875	0.85791015625	12.8125	-13.1875	13.1875
19	03	22	09	58	39	0.0955834137199	0.109927029444	-0.282904931412	0.0888671875	-0.70654296875	0.8525390625	26.0625	-21.9375	5.0625
19	03	22	09	58	39	0.092533632625	0.112798254018	-0.277967125972	0.03759765625	-0.66796875	0.84521484375	41.125	-30.75	-1.8125
19	03	22	09	58	39	0.0881366760612	0.11822766034	-0.266546304958	-0.0615234375	-0.5419921875	0.658203125	81.5625	-44.25	-3.0625
19	03	22	09	58	39	0.0839242408833	0.122010587291	-0.255068656474	-0.1953125	-0.41796875	0.61376953125	76.6875	-42.375	-3.75
19	03	22	09	58	39	0.0791660920536	0.127569107473	-0.245799423824	-0.1083984375	-0.220703125	0.66455078125	52.0625	-51.0	4.4375
19	03	22	09	58	39	0.0754417719018	0.133365915538	-0.242011833002	0.05615234375	-0.38720703125	0.67822265625	28.8125	-45.75	3.625
19	03	22	09	58	39	0.07361084769	0.139408935426	-0.239631996709	0.07958984375	-0.4931640625	0.7021484375	24.5625	-44.9375	-8.25
19	03	22	09	58	39	0.0703768478051	0.145514661897	-0.235667831202	0.10546875	-0.52685546875	0.73388671875	36.3125	-45.5	-2.0625
19	03	22	09	58	39	0.0670779033462	0.15142882457	-0.22900481652	0.1611328125	-0.44482421875	0.7802734375	46.625	-41.6875	-0.625
19	03	22	09	58	39	0.0657350692275	0.157593267173	-0.217529978391	0.27001953125	-0.369140625	0.77880859375	69.375	-31.625	-10.8125
19	03	22	09	58	39	0.0668959174767	0.162417916428	-0.202213662956	0.3583984375	-0.26708984375	0.85693359375	81.9375	-15.8125	-22.375
19	03	22	09	58	39	0.0718392723683	0.165712510178	-0.185549182668	0.50634765625	-0.12939453125	0.89404296875	78.375	5.75	-36.8125
19	03	22	09	58	39	0.0793452559075	0.167662629214	-0.17138575276	0.49951171875	-0.00732421875	0.94140625	54.375	12.5625	-45.8125
19	03	22	09	58	39	0.0889326684822	0.167610918087	-0.164925236952	0.462890625	-0.0654296875	0.91943359375	12.1875	19.125	-51.25
19	03	22	09	58	39	0.100221002316	0.168947463099	-0.161562115182	0.56787109375	-0.126953125	0.98193359375	-3.6875	15.0	-59.5
19	03	22	09	58	39	0.112000881304	0.173586107045	-0.154603941331	0.72705078125	-0.21484375	0.94189453125	25.5	9.5	-69.0
19	03	22	09	58	39	0.121711243428	0.178538308439	-0.143624150345	0.68359375	-0.1396484375	0.91748046875	47.8125	6.5	-61.625
19	03	22	09	58	39	0.128482671501	0.182866548132	-0.134220139967	0.55615234375	-0.080078125	0.77392578125	41.375	1.875	-44.875
19	03	22	09	58	39	0.135627862182	0.189769137499	-0.131416195894	0.72802734375	-0.05859375	0.8056640625	4.0625	-9.6875	-40.5625
19	03	22	09	58	39	0.14520738787	0.197455191155	-0.130131210987	0.76806640625	-0.09375	0.818359375	-4.4375	-13.0	-54.5625
19	03	22	09	58	39	0.157048904259	0.205024201091	-0.129399019444	0.66943359375	-0.14501953125	0.78662109375	-6.5625	-18.5	-70.3125
19	03	22	09	58	39	0.169320054452	0.21357277236	-0.132391924335	0.517578125	-0.08251953125	0.7607421875	-31.125	-37.875	-70.0
19	03	22	09	58	39	0.185861191898	0.2250476895	-0.137518970557	0.830078125	0.02392578125	0.80419921875	-53.3125	-39.375	-88.25
19	03	22	09	58	39	0.20545556822	0.228589157155	-0.142219689231	0.94189453125	-0.169921875	0.7958984375	-51.0	-9.0625	-107.75
19	03	22	09	58	39	0.222602737187	0.225959784224	-0.144902357576	0.80322265625	-0.33984375	0.65625	-30.0	46.0	-93.1875
19	03	22	09	58	39	0.235670816505	0.217908524974	-0.142708720277	0.63037109375	-0.44921875	0.54443359375	4.6875	75.5	-75.5
19	03	22	09	58	39	0.247999083392	0.208812420449	-0.135261129411	0.568359375	-0.3974609375	0.564453125	30.75	85.5	-74.9375
19	03	22	09	58	39	0.261547446493	0.198373209125	-0.124212147868	0.49609375	-0.24365234375	0.68017578125	37.5	92.125	-80.875
19	03	22	09	58	39	0.275459131254	0.186223312531	-0.110476629198	0.3740234375	-0.01220703125	0.83740234375	34.6875	95.6875	-78.875
19	03	22	09	58	39	0.288835891135	0.173289326909	-0.101934898182	0.171875	0.1591796875	0.9267578125	-5.625	77.375	-68.0
19	03	22	09	58	39	0.30622266376	0.163579178568	-0.0964384709471	0.1953125	0.06884765625	0.994140625	-16.0625	55.5	-95.3125
19	03	22	09	58	39	0.325150472559	0.158149967036	-0.0951585482861	0.44091796875	-0.09814453125	0.93408203125	-23.25	38.0	-108.875
19	03	22	09	58	39	0.344133878614	0.151435997311	-0.0956470003171	0.56640625	-0.10498046875	0.85888671875	-34.6875	43.8125	-107.4375
19	03	22	09	58	40	0.363472966603	0.140262112049	-0.095339172768	0.56005859375	-0.130859375	0.8564453125	-39.1875	69.5625	-107.75
19	03	22	09	58	40	0.38191680134	0.124396106941	-0.091130219658	0.39990234375	-0.1796875	0.86083984375	-26.4375	100.5	-101.875
19	03	22	09	58	40	0.398029467431	0.105351765187	-0.0830118196145	0.2568359375	-0.046875	0.861328125	-12.9375	123.1875	-88.125
19	03	22	09	58	40	0.411883965067	0.0812414874784	-0.0769688322391	0.2021484375	0.029296875	0.859375	-35.0	144.375	-71.3125
19	03	22	09	58	40	0.423908655616	0.0501121679281	-0.0739780116065	0.16943359375	-0.1455078125	0.83447265625	-63.9375	172.75	-57.125
19	03	22	09	58	40	0.433178092143	0.0158695651623	-0.0713520064414	0.05419921875	-0.3115234375	0.95458984375	-70.1875	185.6875	-41.9375
19	03	22	09	58	40	0.443007976052	-0.017639749942	-0.0662863959758	-0.126953125	-0.23876953125	0.95947265625	-58.0	186.125	-49.0
19	03	22	09	58	40	0.454991536994	-0.0487708932196	-0.0614671958349	-0.2939453125	-0.21875	0.90283203125	-54.6875	172.5625	-67.1875
19	03	22	09	58	40	0.467050012718	-0.0778823596744	-0.0601207870528	-0.404296875	-0.39990234375	0.93212890625	-64.75	152.5	-72.9375
19	03	22	09	58	40	0.475908776109	-0.102054568892	-0.0553609413788	-0.46337890625	-0.484375	0.92236328125	-34.0625	134.75	-53.5625
19	03	22	09	58	40	0.480305621339	-0.122197465233	-0.044496479598	-0.47314453125	-0.22216796875	0.93994140625	0.8125	129.0	-22.125
19	03	22	09	58	40	0.480663646791	-0.143008879293	-0.0333260128442	-0.501953125	-0.02978515625	0.849609375	-4.5	131.0	2.0625
19	03	22	09	58	40	0.476329663747	-0.16656889446	-0.0285040944349	-0.5673828125	-0.01171875	0.80126953125	-47.9375	124.9375	23.25
19	03	22	09	58	40	0.466017036602	-0.192998804157	-0.0319223195996	-0.73681640625	0.0537109375	0.806640625	-103.125	112.0	49.0625
19	03	22	09	58	40	0.450511794205	-0.22089177391	-0.0423594614792	-0.8427734375	0.052734375	0.78955078125	-147.25	97.4375	68.9375
19	03	22	09	58	40	0.430623267167	-0.248668914307	-0.0591458463338	-0.7783203125	-0.17822265625	0.744140625	-181.4375	80.4375	85.5
19	03	22	09	58	40	0.409439470179	-0.272959646786	-0.0767241225425	-0.6611328125	-0.35693359375	0.70361328125	-175.875	63.0	90.8125
19	03	22	09	58	40	0.395630868076	-0.28875804333	-0.0961306104935	-0.57470703125	-0.75634765625	0.7607421875	-150.1875	25.5625	45.25
19	03	22	09	58	40	0.401076558052	-0.293345600061	-0.107547845882	-0.525390625	-0.943359375	0.83251953125	-31.75	3.3125	-43.4375
19	03	22	09	58	40	0.408403301928	-0.281566945419	-0.0875280727791	-0.580078125	-0.53955078125	0.8671875	141.625	-14.25	-3.25
19	03	22	09	58	40	0.408702699057	-0.271308766026	-0.061647211178	-0.4072265625	-0.10107421875	0.75	152.5625	0.625	46.0
19	03	22	09	58	40	0.410349843823	-0.266486303456	-0.0466930879853	-0.595703125	-0.20458984375	0.66259765625	87.375	-6.6875	10.3125
19	03	22	09	58	40	0.413282331441	-0.262581685107	-0.0401013870561	-0.771484375	-0.296875	0.83740234375	47.4375	-24.9375	-12.0625
19	03	22	09	58	40	0.414432676417	-0.25775393115	-0.0343631217707	-0.59033203125	-0.17138671875	0.79248046875	37.3125	-24.5	-2.0
19	03	22	09	58	40	0.411020706406	-0.255438321401	-0.0349129557565	-0.54248046875	-0.1181640625	0.81884765625	-10.5625	-25.875	14.25
19	03	22	09	58	40	0.406328861553	-0.251048611622	-0.0354629816076	-0.4091796875	-0.26123046875	0.96240234375	-0.4375	-26.3125	29.875
19	03	22	09	58	40	0.399415339897	-0.243714158345	-0.0271607313958	-0.18408203125	-0.19970703125	1.02685546875	44.5625	-9.0625	60.5625
19	03	22	09	58	40	0.389976737811	-0.236525255755	-0.020142795974	0.0205078125	-0.15185546875	0.94091796875	34.0	-2.5	75.6875
19	03	22	09	58	40	0.385758203881	-0.231027658495	-0.0225839454804	-0.08447265625	-0.19189453125	1.13427734375	-10.875	-12.0	28.9375
19	03	22	09	58	40	0.383987832608	-0.225839291154	-0.0344862701357	0.0576171875	-0.3583984375	1.15673828125	-48.125	-20.875	6.4375
19	03	22	09	58	40	0.384775591565	-0.221624392921	-0.0441295610249	-0.0634765625	-0.59716796875	1.1630859375	-21.75	-17.0	-2.625
19	03	22	09	58	40	0.383684511246	-0.217478191787	-0.0429096741022	-0.27099609375	-0.63671875	1.068359375	36.5625	-11.375	21.1875
19	03	22	09	58	40	0.378484608559	-0.21240548908	-0.0366826721083	-0.455078125	-0.375	0.9677734375	45.875	-23.0625	43.25
19	03	22	09	58	40	0.372926291197	-0.208985208029	-0.0285645669853	-0.6435546875	-0.126953125	0.92724609375	38.0	-23.5	39.0
19	03	22	09	58	40	0.362203302738	-0.210339160977	-0.0311297075154	-0.6064453125	-0.2041015625	0.8525390625	-27.6875	-22.0625	57.3125
19	03	22	09	58	40	0.353282328376	-0.211554345223	-0.0421765875791	-0.3720703125	-0.3876953125	0.86181640625	-59.3125	-23.8125	42.75
19	03	22	09	58	40	0.34791008339	-0.215887362272	-0.0519423650816	-0.4091796875	-0.5419921875	0.69580078125	-43.625	-7.375	25.0625
19	03	22	09	58	40	0.343573027271	-0.229130066508	-0.0531015337939	-1.15869140625	-0.34814453125	0.59521484375	-27.3125	10.875	10.75
19	03	22	09	58	40	0.337601952077	-0.242443491891	-0.0505395798806	-1.35546875	-0.23388671875	0.64794921875	-18.25	8.4375	18.6875
19	03	22	09	58	40	0.328795448478	-0.245665802882	-0.0552366587847	-0.51025390625	-0.1220703125	1.01416015625	-53.4375	0.0625	38.4375
19	03	22	09	58	40	0.315078135374	-0.238109222413	-0.0639067818165	0.51318359375	0.044921875	1.18603515625	-74.1875	-4.5625	76.125
19	03	22	09	58	40	0.313800258079	-0.224195360421	-0.0708659987609	0.6845703125	-0.287109375	1.17578125	-16.625	-17.6875	18.5625
19	03	22	09	58	40	0.316349859327	-0.218386995306	-0.0741588036045	0.11669921875	-0.3037109375	0.97265625	-3.25	-4.0	-9.625
19	03	22	09	58	40	0.313916879602	-0.217904581019	-0.0764802352987	-0.2607421875	-0.15380859375	1.09619140625	-25.875	2.0	9.5625
19	03	22	09	58	40	0.310368596759	-0.218448221789	-0.0834973924023	0.03076171875	-0.2919921875	0.88037109375	-42.125	11.5625	18.8125
19	03	22	09	58	40	0.308595142177	-0.224610388293	-0.0825809389567	-0.42529296875	-0.1552734375	0.513671875	-9.8125	21.3125	7.25
19	03	22	09	58	40	0.31660538043	-0.230297301015	-0.0849652380102	-1.68798828125	-0.62353515625	0.04345703125	-14.1875	35.0	-50.5
19	03	22	09	58	40	0.325148858986	-0.237254292262	-0.086124467811	-2.88720703125	-0.79150390625	-0.0966796875	-9.75	45.0	-51.8125
19	03	22	09	58	40	0.316284020624	-0.25372301693	-0.0874633349197	-1.408203125	-0.51806640625	0.21630859375	-23.8125	2.75	33.5
19	03	22	09	58	40	0.311047998296	-0.259104935787	-0.0842930309355	-0.8349609375	-0.06201171875	0.62060546875	-10.5625	-1.6875	18.8125
19	03	22	09	58	41	0.306464609953	-0.260565110513	-0.0861836345853	-0.35595703125	-0.021484375	0.7744140625	-34.6875	2.3125	16.25
19	03	22	09	58	41	0.306578262735	-0.257140000179	-0.0859981628893	-0.267578125	-0.087890625	0.85791015625	-6.1875	-9.875	-3.5
19	03	22	09	58	41	0.309640461022	-0.253242316732	-0.0809349992736	-0.46435546875	-0.142578125	0.8046875	29.4375	-15.25	-15.375
19	03	22	09	58	41	0.309953230747	-0.24976932261	-0.0748941737153	-0.60205078125	-0.25732421875	0.80029296875	38.125	-22.6875	2.625
19	03	22	09	58	41	0.307625867967	-0.234564724325	-0.0626848742861	0.1416015625	0.2421875	1.4423828125	48.125	-18.5625	29.4375
19	03	22	09	58	41	0.29676184145	-0.238776701718	-0.0650043934892	1.4169921875	-0.1494140625	1.3984375	-33.3125	11.125	59.75
19	03	22	09	58	41	0.301891510622	-0.226998489285	-0.0626244823895	0.71533203125	-0.39892578125	1.095703125	45.625	15.375	-1.8125
19	03	22	09	58	41	0.323797242638	-0.22778724025	-0.0661632820018	-1.5029296875	-0.95458984375	0.5048828125	17.3125	-3.9375	-134.75
19	03	22	09	58	41	0.336068017958	-0.231695277183	-0.0619522408694	-3.216796875	-1.2109375	-0.06494140625	28.6875	39.4375	-67.125
19	03	22	09	58	41	0.324294390698	-0.244517848511	-0.0643339521543	-1.33154296875	-0.97998046875	0.373046875	1.5	-13.375	66.375
19	03	22	09	58	41	0.329099911092	-0.236754183072	-0.0463254511348	-0.81103515625	-0.2138671875	0.59521484375	116.6875	-15.625	-2.0
19	03	22	09	58	41	0.325573157346	-0.238411839631	-0.04260406146	-0.56005859375	0.0673828125	0.8056640625	-5.75	1.8125	14.75
19	03	22	09	58	41	0.31849193333	-0.240547472069	-0.0448012800047	-0.36279296875	-0.0048828125	0.95166015625	-40.4375	7.75	32.0
19	03	22	09	58	41	0.315867332241	-0.241279915816	-0.053590631441	-0.16162109375	-0.2001953125	0.8525390625	-53.5	1.3125	4.875
19	03	22	09	58	41	0.312560108896	-0.243468516771	-0.0582273665078	-0.3115234375	-0.2314453125	0.818359375	-33.625	6.1875	13.25
19	03	22	09	58	41	0.310859215083	-0.24677082399	-0.0625014404566	-0.40576171875	-0.3115234375	0.7900390625	-26.75	7.875	4.4375
19	03	22	09	58	41	0.310139482086	-0.251480941979	-0.0695845324892	-0.5185546875	-0.43505859375	0.85302734375	-37.625	7.6875	-5.0
19	03	22	09	58	41	0.30785912902	-0.256528929277	-0.0747675323254	-0.544921875	-0.40771484375	0.814453125	-32.125	9.0625	5.5625
19	03	22	09	58	41	0.304400178675	-0.261306830742	-0.0789841249661	-0.4951171875	-0.328125	0.7880859375	-33.1875	11.0	12.1875
19	03	22	09	58	41	0.301828628402	-0.266671239128	-0.0837429480621	-0.5263671875	-0.3662109375	0.81005859375	-34.8125	13.9375	6.4375
19	03	22	09	58	41	0.300610067915	-0.272532782384	-0.0870395851465	-0.611328125	-0.39111328125	0.794921875	-24.8125	15.5625	-0.3125
19	03	22	09	58	41	0.299021451059	-0.278451900333	-0.0897247464903	-0.65234375	-0.435546875	0.7412109375	-19.25	13.1875	3.125
19	03	22	09	58	41	0.295113186922	-0.283882405868	-0.0900293589886	-0.62548828125	-0.330078125	0.70751953125	-14.75	13.3125	18.125
19	03	22	09	58	41	0.290540680212	-0.289869262673	-0.090580329713	-0.67333984375	-0.2548828125	0.66259765625	-21.625	12.0625	17.75
19	03	22	09	58	41	0.286991823927	-0.295475844243	-0.0943618374714	-0.64208984375	-0.25390625	0.6484375	-36.6875	8.0625	6.75
19	03	22	09	58	41	0.283945667366	-0.300608858937	-0.100467448083	-0.5703125	-0.32568359375	0.64501953125	-43.6875	7.625	3.0
19	03	22	09	58	41	0.281567585839	-0.305433383815	-0.106633117811	-0.61376953125	-0.3837890625	0.66162109375	-40.375	4.8125	-0.5625
19	03	22	09	58	41	0.280343979129	-0.308665252004	-0.109378709035	-0.6796875	-0.39208984375	0.67138671875	-18.125	-0.6875	-2.125
19	03	22	09	58	41	0.2807114266	-0.310314610314	-0.108768811089	-0.69580078125	-0.41357421875	0.6728515625	5.6875	-4.1875	-4.4375
19	03	22	09	58	41	0.280698034895	-0.310788082993	-0.106261204338	-0.59912109375	-0.3857421875	0.69189453125	15.875	-2.3125	3.1875
19	03	22	09	58	41	0.281198029391	-0.312021776914	-0.10461763021	-0.6494140625	-0.41943359375	0.7255859375	11.5	-0.3125	-1.3125
19	03	22	09	58	41	0.282849747335	-0.313857013551	-0.102970980525	-0.71875	-0.45556640625	0.68994140625	15.375	0.25	-8.4375
19	03	22	09	58	41	0.283767642625	-0.31508035518	-0.100347172397	-0.6748046875	-0.458984375	0.67529296875	20.875	-1.125	-0.5
19	03	22	09	58	41	0.283461988983	-0.31709410697	-0.0986989742003	-0.64697265625	-0.40234375	0.67822265625	9.6875	2.6875	3.1875
19	03	22	09	58	41	0.282485442061	-0.320085060106	-0.0985158823437	-0.71435546875	-0.384765625	0.68994140625	-2.5	2.625	1.8125
19	03	22	09	58	41	0.281689943315	-0.324111289058	-0.100468395817	-0.779296875	-0.45849609375	0.64501953125	-10.625	1.1875	-2.5
19	03	22	09	58	41	0.278999089633	-0.327340213893	-0.102541778732	-0.68798828125	-0.427734375	0.63916015625	-14.6875	-0.1875	9.125
19	03	22	09	58	41	0.276256554726	-0.330030753734	-0.103886137018	-0.642578125	-0.35888671875	0.677734375	-14.875	1.625	9.75
19	03	22	09	58	41	0.273624167029	-0.33307318302	-0.10504287117	-0.68798828125	-0.32861328125	0.68994140625	-16.8125	2.75	6.75
19	03	22	09	58	41	0.27179311939	-0.336369162578	-0.106568782047	-0.7216796875	-0.3759765625	0.6611328125	-14.5	1.9375	2.5
19	03	22	09	58	41	0.26996843119	-0.339184845608	-0.106205080324	-0.72412109375	-0.3798828125	0.6396484375	-3.0	1.6875	7.0
19	03	22	09	58	41	0.267346341322	-0.341751635859	-0.105046359227	-0.681640625	-0.38818359375	0.60546875	1.25	1.1875	14.25
19	03	22	09	58	41	0.264828242939	-0.343623647787	-0.103148128732	-0.70263671875	-0.37109375	0.6025390625	5.875	-2.375	14.6875
19	03	22	09	58	41	0.264465090162	-0.345214528031	-0.10076895081	-0.77734375	-0.35986328125	0.595703125	12.5625	-4.8125	1.5625
19	03	22	09	58	41	0.263744811762	-0.347183635571	-0.0993086805686	-0.736328125	-0.31005859375	0.583984375	4.25	-2.25	0.625
19	03	22	09	58	41	0.262395097568	-0.350104275331	-0.100526802906	-0.74072265625	-0.34716796875	0.642578125	-12.625	1.4375	0.0625
19	03	22	09	58	41	0.261174616557	-0.353034349653	-0.102113842837	-0.77978515625	-0.41650390625	0.64794921875	-10.6875	0.3125	-0.1875
19	03	22	09	58	41	0.260378387957	-0.355716184953	-0.101319297705	-0.7802734375	-0.42822265625	0.6025390625	4.1875	0.6875	3.75
19	03	22	09	58	41	0.259341359892	-0.35840255714	-0.0998546633994	-0.73046875	-0.423828125	0.60791015625	7.0625	4.4375	7.625
19	03	22	09	58	41	0.258550804544	-0.361580492474	-0.0979636546963	-0.75	-0.37890625	0.5947265625	7.0	7.0625	5.125
19	03	22	09	58	42	0.258375834519	-0.365864576449	-0.0977836255374	-0.83984375	-0.38623046875	0.55712890625	-1.8125	7.0	-4.1875
19	03	22	09	58	42	0.257458504068	-0.370317862537	-0.0979050356863	-0.84912109375	-0.419921875	0.54638671875	-3.0625	6.375	0.9375
19	03	22	09	58	42	0.256482363937	-0.374408096237	-0.0970506803092	-0.8720703125	-0.41748046875	0.53466796875	2.3125	4.1875	2.5625
19	03	22	09	58	42	0.255137913622	-0.377518659271	-0.0941202542597	-0.84912109375	-0.33740234375	0.53076171875	10.125	2.3125	7.0
19	03	22	09	58	42	0.253115192731	-0.380924021662	-0.0930184600245	-0.80224609375	-0.31298828125	0.541015625	-2.3125	4.0625	7.0
19	03	22	09	58	42	0.251528981394	-0.384648299137	-0.0935680486475	-0.837890625	-0.3603515625	0.55322265625	-9.125	3.875	2.0
19	03	22	09	58	42	0.250254118902	-0.388199072247	-0.094181001333	-0.86962890625	-0.38134765625	0.52392578125	-6.8125	1.0	0.0
19	03	22	09	58	42	0.248480568415	-0.390513062324	-0.0939965795527	-0.8203125	-0.3828125	0.533203125	-1.6875	-2.9375	6.625
19	03	22	09	58	42	0.246955841357	-0.392590205539	-0.0921659220093	-0.81982421875	-0.3330078125	0.5205078125	5.25	-2.5	7.0625
19	03	22	09	58	42	0.245558422296	-0.394675803769	-0.0914358728807	-0.88037109375	-0.3212890625	0.544921875	-0.9375	-4.5625	1.625
19	03	22	09	58	42	0.244633994729	-0.396736767898	-0.0923481122816	-0.87060546875	-0.37158203125	0.556640625	-6.375	-5.25	-2.1875
19	03	22	09	58	42	0.243529309067	-0.39825281746	-0.0930172097791	-0.80419921875	-0.38623046875	0.56787109375	-4.75	-4.375	1.6875
19	03	22	09	58	42	0.242497998979	-0.400033195397	-0.0924702915817	-0.830078125	-0.3505859375	0.57080078125	-0.4375	-2.0	2.1875
19	03	22	09	58	42	0.241952213872	-0.401564988665	-0.091189860627	-0.84619140625	-0.349609375	0.56982421875	4.8125	-2.625	1.0625
19	03	22	09	58	42	0.241278739618	-0.403148513832	-0.0907618228717	-0.79931640625	-0.37939453125	0.55322265625	2.0625	-2.0	2.375
19	03	22	09	58	42	0.240728586755	-0.404489945341	-0.0910056599522	-0.78369140625	-0.388671875	0.5712890625	-0.8125	-2.1875	0.8125
19	03	22	09	58	42	0.240369002904	-0.406271224817	-0.0914354409218	-0.82958984375	-0.41015625	0.5517578125	-0.75	-2.0	-0.875
19	03	22	09	58	42	0.240174515508	-0.408632371367	-0.0923466434471	-0.90283203125	-0.4384765625	0.5498046875	-2.9375	-2.1875	-3.5625
19	03	22	09	58	42	0.239990509738	-0.410278791062	-0.0919190507795	-0.8984375	-0.42822265625	0.5703125	4.25	-3.6875	-0.5625
19	03	22	09	58	42	0.238651858207	-0.411994895881	-0.09106613106	-0.8388671875	-0.36572265625	0.5712890625	0.8125	-0.8125	5.5
19	03	22	09	58	42	0.23730821839	-0.414190733023	-0.0916761687299	-0.84423828125	-0.38232421875	0.5986328125	-7.625	1.625	2.625
19	03	22	09	58	42	0.236208739418	-0.416142425156	-0.0921030976182	-0.857421875	-0.41552734375	0.58837890625	-3.8125	0.125	3.0625
19	03	22	09	58	42	0.234981422041	-0.418083828827	-0.0924667154267	-0.8544921875	-0.416015625	0.560546875	-3.25	-0.875	3.9375
19	03	22	09	58	42	0.233825888295	-0.419922242618	-0.0921021314115	-0.88134765625	-0.40771484375	0.54345703125	0.4375	-2.5625	4.4375
19	03	22	09	58	42	0.232304309576	-0.421516963198	-0.0919817641963	-0.88232421875	-0.3701171875	0.54833984375	-2.8125	-4.125	4.0625
19	03	22	09	58	42	0.230720797319	-0.42292709117	-0.0928376541593	-0.8759765625	-0.37158203125	0.57763671875	-8.125	-4.5625	2.1875
19	03	22	09	58	42	0.22986150469	-0.424077996438	-0.093324015048	-0.87451171875	-0.37939453125	0.5888671875	-4.4375	-3.8125	-0.375
19	03	22	09	58	42	0.228889784767	-0.425185664183	-0.0927766594255	-0.8388671875	-0.373046875	0.57373046875	0.6875	-2.0625	4.0
19	03	22	09	58	42	0.228085579636	-0.426386368568	-0.0919178172149	-0.86083984375	-0.37841796875	0.57666015625	2.5	-1.9375	3.4375
19	03	22	09	58	42	0.227477628209	-0.427489484298	-0.0905149779002	-0.8603515625	-0.3447265625	0.5517578125	5.4375	-2.5625	2.25
19	03	22	09	58	42	0.227169602322	-0.428765839954	-0.0906359106522	-0.83642578125	-0.39208984375	0.53564453125	0.3125	-2.3125	-0.1875
19	03	22	09	58	42	0.226626014725	-0.429814273013	-0.090333019605	-0.81298828125	-0.38818359375	0.5595703125	1.25	-1.25	2.75
19	03	22	09	58	42	0.226204189291	-0.431289476937	-0.0900299997851	-0.8388671875	-0.37890625	0.5439453125	1.0625	-0.0625	0.8125
19	03	22	09	58	42	0.225706742798	-0.432370623574	-0.0899653160854	-0.81298828125	-0.388671875	0.55810546875	0.375	-0.8125	1.875
19	03	22	09	58	42	0.225350738954	-0.433488880837	-0.0903966534103	-0.78564453125	-0.39453125	0.55224609375	-1.6875	0.125	1.0
19	03	22	09	58	42	0.224677290723	-0.434400510207	-0.0907010198353	-0.77880859375	-0.3818359375	0.55517578125	-1.875	-0.75	2.625
19	03	22	09	58	42	0.224184635214	-0.435246565127	-0.0909433995287	-0.7705078125	-0.37890625	0.55712890625	-1.5	-0.25	1.5
19	03	22	09	58	42	0.224063082732	-0.435918969456	-0.0914929340822	-0.80078125	-0.400390625	0.568359375	-1.5	-1.9375	-0.625
19	03	22	09	58	42	0.224248323073	-0.436228297497	-0.0917989869087	-0.7900390625	-0.40625	0.564453125	1.75	-3.375	-1.25
19	03	22	09	58	42	0.224434237959	-0.435989600691	-0.0918001343187	-0.75244140625	-0.41064453125	0.5849609375	3.375	-3.75	0.9375
19	03	22	09	58	42	0.224676015504	-0.435557741547	-0.0916160552218	-0.72412109375	-0.392578125	0.607421875	3.625	-2.4375	0.8125
19	03	22	09	58	42	0.225042615369	-0.435497439832	-0.0927148719138	-0.7705078125	-0.42138671875	0.615234375	-2.125	-2.9375	-3.0
19	03	22	09	58	42	0.225715766531	-0.435195623409	-0.0935701108957	-0.787109375	-0.44580078125	0.63232421875	0.75	-3.8125	-3.375
19	03	22	09	58	42	0.226378467718	-0.434934742777	-0.0940547907129	-0.7802734375	-0.45556640625	0.63037109375	3.0	-2.8125	-1.8125
19	03	22	09	58	42	0.226682247645	-0.434260687128	-0.0942373156607	-0.77490234375	-0.4267578125	0.640625	2.5	-5.25	-0.3125
19	03	22	09	58	42	0.226999400533	-0.433734267326	-0.0949137047133	-0.79052734375	-0.447265625	0.64111328125	0.875	-5.25	-1.125
19	03	22	09	58	42	0.227113268678	-0.433047202706	-0.09527648815	-0.802734375	-0.455078125	0.6337890625	2.75	-7.0	0.5
19	03	22	09	58	42	0.227178871426	-0.431835173384	-0.0954615139467	-0.78466796875	-0.42822265625	0.65869140625	2.9375	-8.75	0.75
19	03	22	09	58	42	0.226625280217	-0.430057022465	-0.0960700756967	-0.73974609375	-0.40380859375	0.697265625	-2.1875	-9.4375	2.5
19	03	22	09	58	42	0.225893101796	-0.428958854207	-0.0971688241174	-0.74267578125	-0.41796875	0.70263671875	-5.375	-6.125	2.875
19	03	22	09	58	43	0.225407481124	-0.428353561476	-0.0975972278141	-0.7734375	-0.42529296875	0.68359375	-1.375	-4.8125	2.75
19	03	22	09	58	43	0.224973837683	-0.427364843042	-0.0971672136708	-0.7333984375	-0.40234375	0.67724609375	2.5625	-4.4375	4.6875
19	03	22	09	58	43	0.224307675806	-0.426581318696	-0.0970474025937	-0.68408203125	-0.38671875	0.65771484375	0.5625	-3.0	5.4375
19	03	22	09	58	43	0.223509595648	-0.425595961347	-0.0968012612499	-0.6728515625	-0.380859375	0.66943359375	0.3125	-3.0	6.625
19	03	22	09	58	43	0.223087412524	-0.425178362692	-0.0961320587482	-0.6845703125	-0.36181640625	0.64892578125	2.5	-0.4375	4.375
19	03	22	09	58	43	0.22259689074	-0.424868921426	-0.0959479880021	-0.67138671875	-0.36181640625	0.63671875	0.0	-0.375	4.25
19	03	22	09	58	43	0.222849955054	-0.424580741538	-0.0963180578129	-0.6376953125	-0.39697265625	0.630859375	0.5625	1.25	1.125
19	03	22	09	58	43	0.223456851992	-0.424513085388	-0.0964386304691	-0.63134765625	-0.423828125	0.60009765625	4.5625	2.125	1.25
19	03	22	09	58	43	0.224492236814	-0.424081582757	-0.0960104101435	-0.64892578125	-0.42919921875	0.5966796875	8.875	-0.4375	0.1875
19	03	22	09	58	43	0.224792160576	-0.423278206244	-0.0951536731844	-0.61083984375	-0.369140625	0.59130859375	7.5625	-1.4375	3.5625
19	03	22	09	58	43	0.224429101296	-0.422734826102	-0.0960705481209	-0.60009765625	-0.35791015625	0.59716796875	-4.0	-1.75	1.8125
19	03	22	09	58	43	0.224123788073	-0.422307322897	-0.0986339982369	-0.60888671875	-0.3837890625	0.62548828125	-12.0	-1.9375	-1.75
19	03	22	09	58	43	0.22394284827	-0.42164000977	-0.102297141919	-0.634765625	-0.4033203125	0.6396484375	-16.9375	-4.75	-5.25
19	03	22	09	58	43	0.223506315992	-0.420035627159	-0.106931476138	-0.6533203125	-0.4814453125	0.6494140625	-18.0625	-12.5	-3.4375
19	03	22	09	58	43	0.224309213812	-0.417367728992	-0.107912568713	-0.728515625	-0.462890625	0.65625	4.0625	-17.375	-4.0625
19	03	22	09	58	43	0.22448665281	-0.414122332603	-0.107360528084	-0.765625	-0.38134765625	0.7109375	6.5	-19.3125	-1.75
19	03	22	09	58	43	0.224920306345	-0.410838149799	-0.108401211416	-0.7509765625	-0.40966796875	0.767578125	-0.875	-17.9375	-5.125
19	03	22	09	58	43	0.225949393482	-0.406428149971	-0.109312632017	-0.67431640625	-0.5029296875	0.80908203125	6.0	-19.5625	-2.25
19	03	22	09	58	43	0.227291452862	-0.401361061768	-0.109068159577	-0.62744140625	-0.53759765625	0.78515625	16.1875	-21.625	1.375
19	03	22	09	58	43	0.228150179847	-0.395814316829	-0.107666377006	-0.67041015625	-0.44775390625	0.77099609375	18.3125	-27.375	1.625
19	03	22	09	58	43	0.229502169401	-0.389177083005	-0.106633055836	-0.626953125	-0.37890625	0.81982421875	15.5	-30.1875	-4.25
19	03	22	09	58	43	0.23065235641	-0.3834236843	-0.108032461192	-0.62744140625	-0.37255859375	0.87060546875	-0.5	-26.5625	-9.5625
19	03	22	09	58	43	0.232299792139	-0.379150370145	-0.110046380774	-0.65234375	-0.4423828125	0.88623046875	-2.125	-18.625	-11.5
19	03	22	09	58	43	0.23475135118	-0.375382425834	-0.110051140452	-0.58251953125	-0.57958984375	0.90478515625	15.5	-8.75	-3.625
19	03	22	09	58	43	0.237799704137	-0.371897740582	-0.105471737359	-0.48681640625	-0.51611328125	0.8359375	39.125	-0.25	3.25
19	03	22	09	58	43	0.240846783458	-0.369326884618	-0.0993050473101	-0.4091796875	-0.4677734375	0.77490234375	46.125	7.875	7.625
19	03	22	09	58	43	0.242868816628	-0.367812889922	-0.0941200591205	-0.26513671875	-0.40966796875	0.71044921875	36.1875	16.4375	11.5
19	03	22	09	58	43	0.242740849981	-0.368719505843	-0.0928360152933	-0.166015625	-0.3408203125	0.6611328125	6.0	26.625	14.1875
19	03	22	09	58	43	0.242319300816	-0.371291764953	-0.0946082912506	-0.18701171875	-0.3212890625	0.646484375	-13.9375	31.6875	7.375
19	03	22	09	58	43	0.241885821393	-0.374761277657	-0.0982680223173	-0.173828125	-0.3515625	0.62548828125	-23.75	34.6875	4.75
19	03	22	09	58	43	0.240851776751	-0.379222526344	-0.102786211872	-0.17138671875	-0.31982421875	0.62158203125	-33.1875	39.1875	4.6875
19	03	22	09	58	43	0.239137846403	-0.384158653716	-0.106446249139	-0.26904296875	-0.28955078125	0.59619140625	-32.0	37.1875	6.3125
19	03	22	09	58	43	0.237071062435	-0.388750153617	-0.109807116715	-0.33544921875	-0.2890625	0.58642578125	-31.0	31.75	7.1875
19	03	22	09	58	43	0.235238319636	-0.392348707477	-0.112736164081	-0.375	-0.29150390625	0.58251953125	-26.875	24.8125	6.0
19	03	22	09	58	43	0.233090701026	-0.395686571027	-0.115843453927	-0.42236328125	-0.29052734375	0.595703125	-28.75	21.625	5.5625
19	03	22	09	58	43	0.231946566802	-0.398887056329	-0.119635597614	-0.58203125	-0.3291015625	0.63037109375	-29.5625	16.0	-4.3125
19	03	22	09	58	43	0.231332124717	-0.400589112011	-0.121952924851	-0.63623046875	-0.3759765625	0.66943359375	-17.75	8.5	-2.875
19	03	22	09	58	43	0.230297736457	-0.401449301001	-0.122748144186	-0.6630859375	-0.39404296875	0.689453125	-9.125	4.5	2.8125
19	03	22	09	58	43	0.229562430636	-0.401261212178	-0.122197284268	-0.68505859375	-0.421875	0.69580078125	1.375	-1.0625	5.5625
19	03	22	09	58	43	0.228887609884	-0.399973468686	-0.122073391938	-0.62451171875	-0.43017578125	0.6845703125	1.75	-6.3125	5.9375
19	03	22	09	58	43	0.2283964012	-0.398015214384	-0.122438049387	-0.61962890625	-0.45751953125	0.7294921875	0.625	-8.0	4.6875
19	03	22	09	58	43	0.228514524719	-0.39605522193	-0.123412491715	-0.6435546875	-0.4677734375	0.72216796875	-0.125	-9.75	0.0
19	03	22	09	58	43	0.228883310186	-0.393740329069	-0.123963200797	-0.60205078125	-0.474609375	0.7421875	2.875	-8.75	0.5
19	03	22	09	58	43	0.228393326665	-0.392577733059	-0.125121945394	-0.63671875	-0.4599609375	0.72998046875	-4.25	-5.9375	2.3125
19	03	22	09	58	43	0.227905394846	-0.391662806302	-0.126281805554	-0.728515625	-0.435546875	0.7353515625	-6.1875	-8.3125	-1.625
19	03	22	09	58	43	0.227969313267	-0.389958753002	-0.128358625381	-0.7607421875	-0.48291015625	0.7646484375	-7.0625	-13.875	-5.875
19	03	22	09	58	43	0.228769081981	-0.387100725166	-0.129949139684	-0.76953125	-0.52490234375	0.8291015625	-1.0	-17.4375	-7.3125
19	03	22	09	58	43	0.228829275198	-0.383559126526	-0.128727911815	-0.75244140625	-0.4775390625	0.89599609375	9.375	-16.6875	1.375
19	03	22	09	58	43	0.228150776501	-0.380800613855	-0.12652663448	-0.7333984375	-0.44140625	0.9365234375	8.9375	-9.5625	6.9375
19	03	22	09	58	43	0.227292176372	-0.378413397826	-0.12505952454	-0.65087890625	-0.521484375	0.9541015625	8.375	-3.875	12.375
19	03	22	09	58	44	0.22729776274	-0.375431938402	-0.124330167213	-0.55419921875	-0.5966796875	0.94580078125	11.1875	-3.3125	11.375
19	03	22	09	58	44	0.22785685059	-0.371541561623	-0.122016031162	-0.48583984375	-0.55419921875	0.93701171875	20.875	-3.8125	12.375
19	03	22	09	58	44	0.228458275447	-0.368353110425	-0.118715294081	-0.4794921875	-0.46728515625	0.8984375	22.1875	-0.6875	10.9375
19	03	22	09	58	44	0.228401525702	-0.366589942107	-0.115848769584	-0.513671875	-0.42333984375	0.87646484375	15.5625	4.1875	10.9375
19	03	22	09	58	44	0.228767238903	-0.366100826824	-0.114322582301	-0.52880859375	-0.466796875	0.85791015625	10.25	9.3125	7.375
19	03	22	09	58	44	0.230051862819	-0.366837807255	-0.113591540649	-0.501953125	-0.544921875	0.7919921875	11.375	15.3125	4.8125
19	03	22	09	58	44	0.231883609882	-0.368059533454	-0.110662012297	-0.48974609375	-0.5244140625	0.71484375	24.1875	19.0	6.4375
19	03	22	09	58	44	0.23316410666	-0.369644458098	-0.106083564758	-0.44140625	-0.4326171875	0.63671875	28.875	21.25	10.875
19	03	22	09	58	44	0.233762076886	-0.371883116049	-0.102415865539	-0.40234375	-0.35205078125	0.56689453125	19.75	22.8125	10.25
19	03	22	09	58	44	0.233886531857	-0.37469452481	-0.100829997554	-0.4052734375	-0.318359375	0.49560546875	7.1875	20.375	6.5
19	03	22	09	58	44	0.23353337125	-0.377645313101	-0.1020564027	-0.40625	-0.30322265625	0.43212890625	-7.75	15.3125	2.25
19	03	22	09	58	44	0.232852491135	-0.379888310569	-0.104615771902	-0.40478515625	-0.29736328125	0.38916015625	-13.875	7.5625	0.6875
19	03	22	09	58	44	0.230964821543	-0.381360519291	-0.107913796112	-0.4111328125	-0.25048828125	0.3486328125	-20.3125	-1.375	3.0625
19	03	22	09	58	44	0.228340606237	-0.381666348783	-0.112796963466	-0.46142578125	-0.2548828125	0.36181640625	-28.3125	-12.6875	1.8125
19	03	22	09	58	44	0.225158859582	-0.379944131444	-0.11883553798	-0.48974609375	-0.2685546875	0.40966796875	-33.1875	-25.8125	1.3125
19	03	22	09	58	44	0.223149616352	-0.376107203491	-0.12579632366	-0.53271484375	-0.32373046875	0.46728515625	-31.1875	-38.125	-6.5625
19	03	22	09	58	44	0.222789865312	-0.369648061461	-0.13184276961	-0.53369140625	-0.46484375	0.5419921875	-14.875	-48.0625	-8.75
19	03	22	09	58	44	0.222165412627	-0.36101879552	-0.133177178668	-0.5439453125	-0.400390625	0.6318359375	7.625	-54.625	-0.6875
19	03	22	09	58	44	0.221739155659	-0.351987258652	-0.130858450243	-0.60400390625	-0.27685546875	0.654296875	21.375	-56.1875	-0.1875
19	03	22	09	58	44	0.222481056045	-0.342907701744	-0.128178386199	-0.640625	-0.28076171875	0.71337890625	25.0625	-54.9375	-6.625
19	03	22	09	58	44	0.224615488855	-0.333322061042	-0.125186512946	-0.6337890625	-0.3740234375	0.80224609375	32.6875	-53.4375	-10.3125
19	03	22	09	58	44	0.22724140031	-0.323008726952	-0.119388713136	-0.564453125	-0.44140625	0.8876953125	52.0625	-48.375	-2.8125
19	03	22	09	58	44	0.228463429888	-0.313061429841	-0.111515545393	-0.50341796875	-0.41015625	0.9287109375	58.9375	-42.25	9.6875
19	03	22	09	58	44	0.228212950827	-0.303714266733	-0.105286798656	-0.431640625	-0.3955078125	0.9736328125	46.125	-36.9375	15.8125
19	03	22	09	58	44	0.227238819083	-0.294989313088	-0.103273725997	-0.3212890625	-0.49169921875	1.0166015625	26.75	-32.4375	17.5625
19	03	22	09	58	44	0.225348409621	-0.287178837288	-0.101504443445	-0.29931640625	-0.4833984375	1.01171875	23.1875	-28.0	22.25
19	03	22	09	58	44	0.223756394057	-0.279603939219	-0.0984503719625	-0.3388671875	-0.4443359375	1.0302734375	28.375	-27.125	20.5625
19	03	22	09	58	44	0.221435578222	-0.271972694751	-0.0950927868989	-0.326171875	-0.37060546875	1.02294921875	25.9375	-28.5	22.875
19	03	22	09	58	44	0.218638922368	-0.265027973456	-0.0931443315279	-0.36865234375	-0.32861328125	0.994140625	15.375	-30.4375	21.0
19	03	22	09	58	44	0.215759365356	-0.258545027341	-0.0915527717211	-0.3798828125	-0.31103515625	1.01220703125	11.9375	-29.375	19.625
19	03	22	09	58	44	0.21331898086	-0.252808932396	-0.0888066143496	-0.39013671875	-0.29248046875	0.96337890625	18.5625	-25.875	18.5
19	03	22	09	58	44	0.211859503931	-0.248481717229	-0.0861232382733	-0.4326171875	-0.36669921875	0.92236328125	23.1875	-21.8125	14.75
19	03	22	09	58	44	0.210450115242	-0.243958558765	-0.0833743786022	-0.41552734375	-0.4013671875	0.89599609375	27.375	-22.5	15.8125
19	03	22	09	58	44	0.208560968241	-0.238529781646	-0.081544469877	-0.32470703125	-0.3466796875	0.92236328125	19.3125	-23.75	17.0
19	03	22	09	58	44	0.206179634672	-0.232730298107	-0.080323386391	-0.2763671875	-0.2607421875	0.99462890625	9.9375	-22.6875	16.875
19	03	22	09	58	44	0.204533617298	-0.227117156063	-0.0803241540927	-0.2373046875	-0.27685546875	1.00634765625	5.0625	-19.8125	12.1875
19	03	22	09	58	44	0.203307783961	-0.222533827776	-0.0792235075297	-0.24658203125	-0.255859375	0.947265625	10.1875	-15.4375	10.4375
19	03	22	09	58	44	0.202026254297	-0.219238158741	-0.0784911670772	-0.30419921875	-0.2265625	0.92626953125	5.4375	-13.0	8.625
19	03	22	09	58	44	0.200620982767	-0.217283449544	-0.0787347331213	-0.35400390625	-0.298828125	0.87744140625	3.625	-11.3125	9.4375
19	03	22	09	58	44	0.200867206933	-0.215332575527	-0.0796510802333	-0.3359375	-0.36572265625	0.87939453125	5.8125	-9.75	0.875
19	03	22	09	58	44	0.203014262209	-0.213512895132	-0.0792280554262	-0.359375	-0.37646484375	0.88671875	16.0625	-7.625	-7.9375
19	03	22	09	58	44	0.205328707408	-0.211981748165	-0.0776391545251	-0.365234375	-0.36328125	0.87060546875	21.625	-5.8125	-7.8125
19	03	22	09	58	44	0.207465687386	-0.210334439169	-0.0756251799564	-0.33447265625	-0.31396484375	0.8330078125	21.75	-5.4375	-7.375
19	03	22	09	58	44	0.20941586078	-0.209232751604	-0.0750137257063	-0.328125	-0.3046875	0.775390625	13.75	-4.8125	-8.0625
19	03	22	09	58	44	0.211616349993	-0.207648924913	-0.0753810765044	-0.30615234375	-0.32275390625	0.80517578125	9.875	-6.9375	-10.0625
19	03	22	09	58	44	0.213933908287	-0.205877053538	-0.0761128626629	-0.2734375	-0.30712890625	0.814453125	7.0	-6.25	-11.0
19	03	22	09	58	44	0.216251180997	-0.203433583479	-0.0777600916147	-0.22705078125	-0.3310546875	0.85107421875	3.5625	-7.375	-11.625
19	03	22	09	58	44	0.218271454914	-0.199960091246	-0.0800206592259	-0.12841796875	-0.33935546875	0.8828125	0.8125	-7.625	-8.875
19	03	22	09	58	44	0.22052473058	-0.196354292354	-0.0822771483039	-0.08642578125	-0.34716796875	0.8740234375	2.0	-6.3125	-9.75
19	03	22	09	58	44	0.223631520794	-0.193236188546	-0.0836787158866	-0.10107421875	-0.35595703125	0.86474609375	7.625	-3.625	-13.75
19	03	22	09	58	45	0.226874245402	-0.190435201951	-0.0851465085648	-0.14208984375	-0.32861328125	0.92041015625	4.0625	-3.1875	-16.3125
19	03	22	09	58	45	0.230602804115	-0.188608434281	-0.0877731160182	-0.2451171875	-0.35400390625	0.9736328125	-2.9375	-4.6875	-21.375
19	03	22	09	58	45	0.234625305362	-0.186650412018	-0.0907616620899	-0.1845703125	-0.4794921875	0.96337890625	3.4375	-2.4375	-20.0625
19	03	22	09	58	45	0.238406922171	-0.185305533976	-0.0914320454205	-0.15625	-0.4365234375	0.92041015625	12.8125	4.4375	-16.4375
19	03	22	09	58	45	0.242250452877	-0.185121094375	-0.092530029368	-0.2353515625	-0.38427734375	0.9482421875	5.125	5.8125	-19.8125
19	03	22	09	58	45	0.246155890146	-0.185486672491	-0.0964359797747	-0.24169921875	-0.45947265625	0.93505859375	-7.0	4.625	-22.125
19	03	22	09	58	45	0.249825746323	-0.184943076315	-0.0996739417898	-0.1796875	-0.50537109375	0.943359375	0.3125	4.25	-18.3125
19	03	22	09	58	45	0.253423784332	-0.183842109443	-0.100832392032	-0.14208984375	-0.4072265625	0.947265625	5.875	5.875	-17.0
19	03	22	09	58	45	0.256898695781	-0.183411874749	-0.102661821407	-0.1259765625	-0.3994140625	0.9560546875	-0.3125	9.875	-16.625
19	03	22	09	58	45	0.260258532929	-0.183474941366	-0.105714769942	-0.13623046875	-0.45654296875	0.96923828125	-4.5625	9.9375	-16.75
19	03	22	09	58	45	0.263427780498	-0.183288606311	-0.108093280645	-0.19091796875	-0.4453125	0.98046875	-2.1875	6.3125	-16.5
19	03	22	09	58	45	0.266976244274	-0.182561944815	-0.109378470448	-0.15380859375	-0.46728515625	0.9716796875	6.5625	6.875	-16.4375
19	03	22	09	58	45	0.270021582306	-0.182435467792	-0.110169293866	-0.10595703125	-0.4560546875	0.95703125	7.0625	13.5	-11.875
19	03	22	09	58	45	0.273315133907	-0.184081832037	-0.111328004521	-0.18994140625	-0.42529296875	0.9423828125	0.5625	17.3125	-15.875
19	03	22	09	58	45	0.276196537295	-0.187447417908	-0.115117495986	-0.26708984375	-0.45458984375	0.916015625	-15.5625	17.5625	-17.125
19	03	22	09	58	45	0.279068116345	-0.190867454027	-0.119269269322	-0.26171875	-0.52880859375	0.85986328125	-12.4375	16.9375	-16.25
19	03	22	09	58	45	0.282423799746	-0.193369050702	-0.120733580268	-0.251953125	-0.490234375	0.8076171875	2.625	15.8125	-16.625
19	03	22	09	58	45	0.286324416028	-0.195318297014	-0.120792159309	-0.2763671875	-0.41796875	0.7841796875	7.25	13.4375	-20.0
19	03	22	09	58	45	0.290416034055	-0.197150859605	-0.122074835669	-0.27880859375	-0.39111328125	0.8154296875	-1.5625	11.875	-23.75
19	03	22	09	58	45	0.294622575585	-0.199039614457	-0.124331093115	-0.26611328125	-0.4541015625	0.82861328125	-3.8125	12.375	-24.125
19	03	22	09	58	45	0.298902188917	-0.199837812235	-0.126287242979	-0.21728515625	-0.4951171875	0.8583984375	1.625	10.0	-22.625
19	03	22	09	58	45	0.303160866116	-0.19970653391	-0.127807298902	-0.1943359375	-0.49951171875	0.86376953125	5.3125	7.25	-21.5625
19	03	22	09	58	45	0.307505746913	-0.198920450415	-0.128971743396	-0.18310546875	-0.4951171875	0.86181640625	8.125	4.25	-22.1875
19	03	22	09	58	45	0.311717326988	-0.197699710615	-0.129887306017	-0.14990234375	-0.4814453125	0.88134765625	8.9375	4.9375	-20.4375
19	03	22	09	58	45	0.315439401641	-0.197454811205	-0.130802367979	-0.16552734375	-0.48046875	0.87109375	6.375	8.0625	-18.375
19	03	22	09	58	45	0.318922689073	-0.197640510473	-0.131841724095	-0.22021484375	-0.48876953125	0.859375	5.3125	6.375	-17.9375
19	03	22	09	58	45	0.321971518417	-0.197943816915	-0.133366401467	-0.2265625	-0.4970703125	0.84619140625	2.75	4.875	-16.125
19	03	22	09	58	45	0.324902774304	-0.19831093626	-0.134892942178	-0.2265625	-0.50146484375	0.8359375	2.4375	5.0	-15.5625
19	03	22	09	58	45	0.327707233591	-0.198980365339	-0.135868188112	-0.23681640625	-0.48828125	0.8271484375	4.1875	6.625	-14.8125
19	03	22	09	58	45	0.330820210275	-0.199834938827	-0.136905854547	-0.279296875	-0.50439453125	0.818359375	4.6875	4.8125	-17.5
19	03	22	09	58	45	0.33350613193	-0.199774079393	-0.138187753054	-0.248046875	-0.4892578125	0.826171875	3.4375	1.0625	-14.8125
19	03	22	09	58	45	0.336071665133	-0.199286957258	-0.139470351404	-0.1923828125	-0.48876953125	0.8515625	3.5	2.375	-13.5625
19	03	22	09	58	45	0.338990655778	-0.198548182075	-0.140015225847	-0.21875	-0.47021484375	0.90576171875	5.375	2.0	-15.5
19	03	22	09	58	45	0.342048155203	-0.198063216209	-0.14068897176	-0.212890625	-0.4736328125	0.91943359375	4.125	3.625	-16.375
19	03	22	09	58	45	0.345298878119	-0.197339804306	-0.141366837851	-0.1845703125	-0.54150390625	0.92236328125	8.6875	4.5	-15.75
19	03	22	09	58	45	0.34858640297	-0.196602487124	-0.141119202183	-0.1884765625	-0.52294921875	0.89599609375	13.1875	4.9375	-15.125
19	03	22	09	58	45	0.351692145057	-0.196415363206	-0.140444919434	-0.208984375	-0.51416015625	0.87255859375	14.5625	6.625	-14.375
19	03	22	09	58	45	0.354872614226	-0.196968339544	-0.140203370292	-0.2119140625	-0.505859375	0.84228515625	10.625	9.5	-15.0625
19	03	22	09	58	45	0.358295373925	-0.198008550769	-0.139777922707	-0.25439453125	-0.498046875	0.833984375	10.75	10.0	-17.5
19	03	22	09	58	45	0.361394934488	-0.199038824753	-0.140383102402	-0.2548828125	-0.52001953125	0.83056640625	5.875	7.375	-16.9375
19	03	22	09	58	45	0.364580257787	-0.200082719743	-0.141425156085	-0.2666015625	-0.529296875	0.8388671875	3.9375	6.1875	-18.125
19	03	22	09	58	45	0.367740818027	-0.20092992082	-0.14270174814	-0.28662109375	-0.55078125	0.85205078125	3.5625	3.8125	-18.9375
19	03	22	09	58	45	0.370792694691	-0.20160136141	-0.143434211115	-0.2763671875	-0.5478515625	0.83935546875	6.9375	4.125	-17.125
19	03	22	09	58	45	0.374155519884	-0.201726589432	-0.143192308262	-0.26171875	-0.54296875	0.8544921875	12.75	4.5625	-17.5625
19	03	22	09	58	45	0.37738682482	-0.201907749718	-0.142885744283	-0.25341796875	-0.51953125	0.83935546875	11.8125	4.875	-17.3125
19	03	22	09	58	45	0.380432256456	-0.202209540452	-0.143615770807	-0.26416015625	-0.4951171875	0.8544921875	3.625	3.0	-18.0625
19	03	22	09	58	45	0.383182167559	-0.202516475304	-0.144898768045	-0.24365234375	-0.513671875	0.8603515625	1.4375	3.0625	-16.6875
19	03	22	09	58	45	0.386118227167	-0.202824987176	-0.145938773499	-0.2421875	-0.5205078125	0.8544921875	3.25	3.375	-17.1875
19	03	22	09	58	45	0.388988633575	-0.203070011596	-0.146854958792	-0.23486328125	-0.52001953125	0.85888671875	3.5625	3.5625	-16.75
19	03	22	09	58	45	0.392228439454	-0.203133558435	-0.148382716513	-0.21142578125	-0.541015625	0.87939453125	1.5	3.6875	-18.875
19	03	22	09	58	46	0.395754946707	-0.203065500878	-0.149110014621	-0.2412109375	-0.5556640625	0.8857421875	6.875	2.875	-20.4375
19	03	22	09	58	46	0.399247194343	-0.202278734452	-0.149725327584	-0.2080078125	-0.55029296875	0.8720703125	9.3125	1.4375	-19.625
19	03	22	09	58	46	0.402723015663	-0.201117359292	-0.150639648781	-0.15673828125	-0.54296875	0.88720703125	7.1875	1.4375	-18.6875
19	03	22	09	58	46	0.406747407716	-0.200260841044	-0.152408204842	-0.1494140625	-0.55517578125	0.88427734375	3.4375	2.25	-23.3125
19	03	22	09	58	46	0.410949615942	-0.199645951841	-0.153991665086	-0.16015625	-0.59033203125	0.87841796875	6.125	3.1875	-24.0625
19	03	22	09	58	46	0.415118573353	-0.198189973192	-0.154181666856	-0.1337890625	-0.58447265625	0.875	14.875	3.3125	-21.3125
19	03	22	09	58	46	0.419505780277	-0.196294280426	-0.153812682424	-0.12890625	-0.560546875	0.87353515625	17.6875	2.125	-22.625
19	03	22	09	58	46	0.423724575598	-0.19458858355	-0.154364657402	-0.10693359375	-0.5419921875	0.87255859375	11.3125	1.875	-22.6875
19	03	22	09	58	46	0.427746554142	-0.193609028216	-0.155583043166	-0.11083984375	-0.5556640625	0.87158203125	6.5625	3.5625	-22.75
19	03	22	09	58	46	0.431705813429	-0.193117092279	-0.156922896412	-0.11279296875	-0.580078125	0.875	5.9375	5.4375	-22.0625
19	03	22	09	58	46	0.43531127899	-0.192996952351	-0.157168612367	-0.14501953125	-0.56298828125	0.85986328125	9.375	7.125	-19.625
19	03	22	09	58	46	0.438976858583	-0.192937409619	-0.157413976402	-0.15673828125	-0.5673828125	0.86767578125	9.3125	6.5625	-20.0
19	03	22	09	58	46	0.442397280216	-0.192816364266	-0.157658964514	-0.14697265625	-0.54833984375	0.8544921875	8.625	6.25	-19.0
19	03	22	09	58	46	0.445939922122	-0.1931226271	-0.158270218733	-0.1416015625	-0.560546875	0.8447265625	6.375	7.875	-19.9375
19	03	22	09	58	46	0.449482839676	-0.193367957101	-0.158515336045	-0.13134765625	-0.58935546875	0.84619140625	10.0	9.25	-18.875
19	03	22	09	58	46	0.452902039186	-0.193551531841	-0.157783257587	-0.14697265625	-0.5419921875	0.826171875	12.75	9.4375	-17.5
19	03	22	09	58	46	0.456312465748	-0.193426191005	-0.15778059443	-0.1220703125	-0.54541015625	0.81884765625	10.5625	7.625	-18.0625
19	03	22	09	58	46	0.459914607965	-0.193182446478	-0.157841961008	-0.095703125	-0.5537109375	0.82275390625	10.625	8.875	-18.9375
19	03	22	09	58	46	0.463936127953	-0.193423706023	-0.158022712179	-0.09326171875	-0.55615234375	0.81396484375	9.25	11.3125	-21.3125
19	03	22	09	58	46	0.468153094046	-0.194097371456	-0.1581466319	-0.123046875	-0.57421875	0.80224609375	10.3125	12.125	-23.375
19	03	22	09	58	46	0.472190522907	-0.194223144246	-0.15766133928	-0.10986328125	-0.59765625	0.79443359375	15.75	11.3125	-20.8125
19	03	22	09	58	46	0.476083514899	-0.194156623192	-0.156619269132	-0.11962890625	-0.57373046875	0.81201171875	17.75	10.875	-19.875
19	03	22	09	58	46	0.480059307363	-0.19458729458	-0.156011645215	-0.13720703125	-0.55712890625	0.8193359375	12.3125	11.625	-21.625
19	03	22	09	58	46	0.484084742713	-0.195684741538	-0.156682074712	-0.1201171875	-0.60791015625	0.82177734375	7.25	12.875	-22.625
19	03	22	09	58	46	0.487928437329	-0.196965857801	-0.156864658986	-0.14599609375	-0.63818359375	0.8310546875	10.125	13.1875	-21.8125
19	03	22	09	58	46	0.491593653568	-0.198187806448	-0.156194209024	-0.18212890625	-0.607421875	0.82275390625	12.8125	12.6875	-20.125
19	03	22	09	58	46	0.49497169007	-0.199539086797	-0.155651474865	-0.1787109375	-0.587890625	0.8271484375	10.0	12.8125	-19.1875
19	03	22	09	58	46	0.498621982694	-0.20136539612	-0.156074967529	-0.1640625	-0.6220703125	0.83251953125	5.75	14.1875	-21.3125
19	03	22	09	58	46	0.50221938311	-0.203500172981	-0.156684146383	-0.1748046875	-0.62939453125	0.82763671875	4.375	14.4375	-22.0
19	03	22	09	58	46	0.505637509927	-0.205819614133	-0.157111413635	-0.197265625	-0.62353515625	0.8193359375	3.8125	14.4375	-20.875
19	03	22	09	58	46	0.508851779074	-0.207764358399	-0.156799834526	-0.205078125	-0.6171875	0.81103515625	8.125	13.375	-19.0625
19	03	22	09	58	46	0.512409747922	-0.20923652363	-0.156500130277	-0.18017578125	-0.5849609375	0.79833984375	8.125	13.4375	-21.0625
19	03	22	09	58	46	0.516142710259	-0.211376798206	-0.156564102627	-0.203125	-0.57421875	0.80322265625	3.25	14.5625	-23.5
19	03	22	09	58	46	0.51966661437	-0.213933695486	-0.157108511321	-0.23046875	-0.60205078125	0.79931640625	0.75	13.6875	-23.6875
19	03	22	09	58	46	0.522967636442	-0.216255174593	-0.157110025234	-0.24365234375	-0.63330078125	0.771484375	6.6875	12.3125	-21.375
19	03	22	09	58	46	0.526189085484	-0.217897579768	-0.156434592982	-0.2451171875	-0.6123046875	0.7509765625	11.75	10.6875	-20.375
19	03	22	09	58	46	0.529627079063	-0.21949279432	-0.155647003758	-0.24609375	-0.58935546875	0.716796875	11.6875	10.5625	-21.625
19	03	22	09	58	46	0.533089974499	-0.221195107349	-0.155398107977	-0.29296875	-0.59228515625	0.69970703125	9.6875	6.6875	-24.4375
19	03	22	09	58	46	0.536075943182	-0.221986588336	-0.154725323462	-0.33984375	-0.5673828125	0.69580078125	12.75	-0.1875	-22.8125
19	03	22	09	58	46	0.539271137711	-0.221446031422	-0.15399899043	-0.35107421875	-0.58056640625	0.71044921875	18.0625	-6.6875	-24.0
19	03	22	09	58	46	0.542734964354	-0.220219045366	-0.152224584019	-0.40185546875	-0.6181640625	0.72119140625	27.5625	-9.8125	-25.5625
19	03	22	09	58	46	0.545724881039	-0.218692791496	-0.149782894315	-0.56884765625	-0.64111328125	0.73388671875	32.5625	-20.1875	-26.3125
19	03	22	09	58	46	0.547552102242	-0.217592603332	-0.14764558414	-0.64453125	-0.66015625	0.7763671875	29.0	-25.25	-21.4375
19	03	22	09	58	46	0.548128403686	-0.216565654374	-0.148446356099	-0.5400390625	-0.673828125	0.8095703125	14.0625	-29.0	-14.8125
19	03	22	09	58	46	0.546826796615	-0.217900621042	-0.151736959079	-0.47119140625	-0.67431640625	0.86474609375	-9.25	-22.8125	-4.875
19	03	22	09	58	46	0.546279813847	-0.215215935601	-0.160160696261	0.234375	-0.7646484375	1.0224609375	-20.25	-11.875	5.3125
19	03	22	09	58	46	0.548600762363	-0.20972321089	-0.165166184129	0.3740234375	-0.67333984375	1.13525390625	-2.625	-2.25	-5.3125
19	03	22	09	58	46	0.554963019451	-0.204601412362	-0.16278996622	-0.1513671875	-0.50439453125	0.86328125	33.4375	-7.4375	-39.25
19	03	22	09	58	46	0.560138995722	-0.207221520156	-0.151494495737	-1.2412109375	-0.521484375	0.47802734375	62.25	-14.875	-50.5
19	03	22	09	58	46	0.56751760496	-0.200321873465	-0.147891498905	-2.365234375	-0.49169921875	0.24267578125	44.8125	-9.9375	-43.6875
19	03	22	09	58	47	0.55667278903	-0.208752295886	-0.144417523996	-0.92138671875	-0.484375	0.37890625	-1.1875	-18.375	56.0
19	03	22	09	58	47	0.550119230957	-0.212833214063	-0.157473384652	0.49853515625	-0.58984375	0.77001953125	-70.1875	9.5	43.625
19	03	22	09	58	47	0.553611317494	-0.209603226491	-0.16492368025	0.4560546875	-0.83154296875	1.4638671875	-22.5625	12.125	-12.75
19	03	22	09	58	47	0.562204030112	-0.193118396621	-0.171389525193	1.23779296875	-0.6357421875	1.40087890625	21.4375	4.125	-24.5625
19	03	22	09	58	47	0.570527156534	-0.176584472435	-0.155831371631	1.08251953125	-0.154296875	1.1279296875	127.1875	1.0625	-23.625
19	03	22	09	58	47	0.574789826292	-0.161810324891	-0.146428883219	0.49951171875	0.1201171875	0.89208984375	63.1875	3.25	-2.625
19	03	22	09	58	47	0.572238068937	-0.16742922913	-0.151253966381	-0.15185546875	-0.2841796875	0.64404296875	-44.375	1.9375	8.3125
19	03	22	09	58	47	0.577287719035	-0.170842495832	-0.152470366055	-1.89990234375	-0.86962890625	0.39892578125	-16.0625	20.3125	-36.4375
19	03	22	09	58	47	0.576992181603	-0.174080366226	-0.14496524186	-2.7197265625	-0.93798828125	-0.02783203125	23.6875	38.0	14.8125
19	03	22	09	58	47	0.561524201022	-0.175232171863	-0.14563008083	-0.1923828125	-0.72412109375	0.72509765625	-7.75	-21.9375	105.375
19	03	22	09	58	47	0.554717764494	-0.174203840214	-0.161202642609	1.0	-0.662109375	1.36474609375	-75.4375	10.6875	56.5
19	03	22	09	58	47	0.565447128161	-0.167180449485	-0.158818375159	0.2919921875	-0.8076171875	1.31982421875	49.125	17.0625	-56.5
19	03	22	09	58	47	0.575691361607	-0.158937691436	-0.157228684001	0.2236328125	-0.5283203125	1.1494140625	37.6875	2.25	-60.375
19	03	22	09	58	47	0.573141185845	-0.153448023558	-0.153814247958	0.37744140625	-0.18701171875	1.201171875	10.5625	10.75	33.625
19	03	22	09	58	47	0.5729478076	-0.151919366477	-0.148501333322	0.20361328125	-0.072265625	0.86962890625	9.75	26.0625	15.3125
19	03	22	09	58	47	0.574185895911	-0.159980996405	-0.147468175244	-0.38671875	-0.34521484375	0.658203125	-20.0	22.1875	-14.75
19	03	22	09	58	47	0.572756141287	-0.172119812279	-0.14868222082	-0.62841796875	-0.55859375	0.6201171875	-32.125	16.375	-4.9375
19	03	22	09	58	47	0.570887105796	-0.180488952405	-0.146735015753	-0.603515625	-0.58837890625	0.62548828125	-3.0	9.9375	3.25
19	03	22	09	58	47	0.571556879425	-0.185005222291	-0.139654222568	-0.697265625	-0.51806640625	0.609375	31.375	6.25	-9.1875
19	03	22	09	58	47	0.571794352851	-0.186590023128	-0.134464449117	-0.53515625	-0.361328125	0.69775390625	20.625	-2.875	-5.6875
19	03	22	09	58	47	0.571188511469	-0.187323951881	-0.132390241652	-0.29052734375	-0.37939453125	0.76318359375	7.875	-1.6875	2.5
19	03	22	09	58	47	0.572238951588	-0.186351522048	-0.13202697091	-0.169921875	-0.3935546875	0.82861328125	5.75	-4.0	-7.625
19	03	22	09	58	47	0.574429411832	-0.182931138801	-0.130255272006	-0.15185546875	-0.384765625	0.89306640625	19.375	-8.5625	-13.0625
19	03	22	09	58	47	0.577166863197	-0.177984197661	-0.127262363554	-0.17138671875	-0.29736328125	0.86083984375	26.625	-12.75	-16.0625
19	03	22	09	58	47	0.5797750097	-0.171692504715	-0.125305621109	-0.09521484375	-0.37353515625	0.88720703125	31.125	-18.1875	-14.5625
19	03	22	09	58	47	0.582472958529	-0.166752187226	-0.123172003596	-0.06201171875	-0.33447265625	0.91650390625	24.6875	-8.875	-14.625
19	03	22	09	58	47	0.585229850616	-0.163520105319	-0.120549536396	-0.2099609375	-0.3935546875	0.92041015625	25.5	-8.9375	-17.6875
19	03	22	09	58	47	0.587670815046	-0.161444672393	-0.120610462249	-0.20703125	-0.42138671875	0.95361328125	9.6875	-12.5625	-19.625
19	03	22	09	58	47	0.590046888156	-0.160039613194	-0.11963296791	-0.2236328125	-0.53662109375	0.9296875	20.4375	-7.3125	-17.1875
19	03	22	09	58	47	0.5927271238	-0.158573274393	-0.117129373965	-0.24169921875	-0.49755859375	0.90380859375	26.25	-3.9375	-17.75
19	03	22	09	58	47	0.595172963224	-0.157841993939	-0.115421195104	-0.24560546875	-0.39990234375	0.9599609375	12.5	-3.3125	-18.0
19	03	22	09	58	47	0.597691718168	-0.158029397298	-0.115180174855	-0.2021484375	-0.4775390625	0.9560546875	7.8125	-0.75	-19.25
19	03	22	09	58	47	0.599745823855	-0.157840698197	-0.11523713774	-0.16650390625	-0.47802734375	0.931640625	7.9375	-2.25	-15.1875
19	03	22	09	58	47	0.602135783612	-0.157171783355	-0.11468962366	-0.1640625	-0.45361328125	0.927734375	11.5	-1.75	-17.375
19	03	22	09	58	47	0.605177544154	-0.157108118876	-0.114077340396	-0.20361328125	-0.412109375	0.9228515625	7.125	-0.625	-22.8125
19	03	22	09	58	47	0.607916713626	-0.157899652425	-0.112916257049	-0.26123046875	-0.42724609375	0.9287109375	7.0625	0.9375	-21.75
19	03	22	09	58	47	0.610168039926	-0.159301648915	-0.110900803096	-0.2646484375	-0.4521484375	0.90478515625	11.125	6.1875	-16.75
19	03	22	09	58	47	0.612268439143	-0.161322448874	-0.108402826031	-0.30224609375	-0.4560546875	0.86669921875	12.0	7.625	-15.8125
19	03	22	09	58	47	0.614475147809	-0.163522292737	-0.107183705131	-0.27099609375	-0.4697265625	0.85595703125	6.9375	6.75	-17.6875
19	03	22	09	58	47	0.617023469688	-0.166020757498	-0.105777195862	-0.2353515625	-0.4931640625	0.837890625	8.75	11.5	-18.5
19	03	22	09	58	47	0.619719624244	-0.1677326433	-0.103886811825	-0.1982421875	-0.49169921875	0.8388671875	13.6875	12.5625	-18.0
19	03	22	09	58	47	0.622109144047	-0.167796118229	-0.102789619169	-0.21826171875	-0.384765625	0.87841796875	8.125	1.0625	-17.875
19	03	22	09	58	47	0.624543058895	-0.169075867195	-0.10352081977	-0.2578125	-0.3955078125	0.86328125	-3.6875	-2.375	-22.0625
19	03	22	09	58	47	0.627378802856	-0.168456610165	-0.104125716283	-0.08251953125	-0.5419921875	0.8349609375	14.5	0.8125	-19.0
19	03	22	09	58	47	0.630316301078	-0.16845869962	-0.103943900526	-0.16015625	-0.3779296875	0.93212890625	2.375	2.625	-22.3125
19	03	22	09	58	47	0.633128084306	-0.169314306938	-0.103029037531	-0.29443359375	-0.44482421875	0.9609375	5.9375	0.1875	-23.3125
19	03	22	09	58	47	0.634894378124	-0.170656093178	-0.103699821999	-0.234375	-0.56591796875	0.94580078125	4.5	-1.0	-15.5625
19	03	22	09	58	47	0.63721993789	-0.170108425948	-0.103883940066	-0.14794921875	-0.52978515625	0.95556640625	11.75	-1.25	-16.6875
19	03	22	09	58	47	0.639790125911	-0.171453011227	-0.102847391925	-0.24365234375	-0.484375	0.9775390625	6.5625	6.0625	-20.1875
19	03	22	09	58	47	0.64150205929	-0.174261501358	-0.101505035642	-0.2724609375	-0.46923828125	0.9462890625	1.375	10.375	-14.125
19	03	22	09	58	48	0.642363561225	-0.177498407074	-0.100163303304	-0.27197265625	-0.5068359375	0.892578125	2.5625	11.3125	-7.875
19	03	22	09	58	48	0.643349094745	-0.178965801309	-0.0983335286181	-0.23046875	-0.455078125	0.83203125	10.3125	7.875	-6.8125
19	03	22	09	58	48	0.64430735805	-0.179693147224	-0.0972930966968	-0.12939453125	-0.3828125	0.86376953125	4.0625	8.375	-5.4375
19	03	22	09	58	48	0.645411217919	-0.180549118839	-0.096195203276	-0.17138671875	-0.328125	0.88232421875	-0.0625	6.9375	-8.0625
19	03	22	09	58	48	0.646193297477	-0.181034223134	-0.0947896657204	-0.19384765625	-0.33154296875	0.8671875	2.9375	4.75	-5.75
19	03	22	09	58	48	0.646874739776	-0.180304584006	-0.093326238641	-0.14013671875	-0.3310546875	0.8408203125	8.75	2.25	-2.8125
19	03	22	09	58	48	0.647791178574	-0.178656815197	-0.0920445771497	-0.12548828125	-0.291015625	0.849609375	9.3125	-0.8125	-4.625
19	03	22	09	58	48	0.648577408913	-0.177434079401	-0.0913721420236	-0.17529296875	-0.26171875	0.89501953125	2.0625	-4.375	-6.6875
19	03	22	09	58	48	0.649574616891	-0.1766462076	-0.09003218943	-0.2451171875	-0.29638671875	0.91845703125	5.0625	-3.9375	-8.25
19	03	22	09	58	48	0.650536260023	-0.174566870301	-0.0882600330262	-0.22021484375	-0.35302734375	0.927734375	15.5625	-6.5625	-5.875
19	03	22	09	58	48	0.65132327545	-0.172123665708	-0.0857566490495	-0.2236328125	-0.2783203125	0.94921875	15.3125	-6.0625	-4.4375
19	03	22	09	58	48	0.652050793813	-0.170352313538	-0.0832535133165	-0.24169921875	-0.29150390625	0.95556640625	13.6875	-4.0625	-4.25
19	03	22	09	58	48	0.652812438471	-0.169078116369	-0.0817312627501	-0.2177734375	-0.291015625	0.9404296875	7.9375	-4.0	-5.3125
19	03	22	09	58	48	0.653234711471	-0.168466436522	-0.0802046730398	-0.25439453125	-0.271484375	0.95361328125	4.375	-3.625	-4.125
19	03	22	09	58	48	0.654060354775	-0.166444810328	-0.0791024841162	-0.16552734375	-0.2939453125	0.9736328125	9.0625	-5.25	-5.125
19	03	22	09	58	48	0.655010923478	-0.16468357763	-0.0779469713244	-0.20068359375	-0.26123046875	0.947265625	7.3125	-6.0625	-7.0
19	03	22	09	58	48	0.656217330151	-0.162543647121	-0.0770296968329	-0.244140625	-0.25732421875	0.93798828125	8.125	-11.5	-10.1875
19	03	22	09	58	48	0.658054156757	-0.159798328763	-0.0769082865703	-0.20849609375	-0.28076171875	0.93359375	9.5	-14.5625	-14.8125
19	03	22	09	58	48	0.660257303647	-0.156869859515	-0.0761764920913	-0.2353515625	-0.27685546875	0.9306640625	12.875	-14.4375	-17.375
19	03	22	09	58	48	0.662624165651	-0.153326446584	-0.0752593585343	-0.2119140625	-0.28271484375	0.95947265625	16.4375	-14.8125	-17.9375
19	03	22	09	58	48	0.665187328434	-0.150274472619	-0.0741606353503	-0.220703125	-0.279296875	0.970703125	15.0625	-12.5625	-19.4375
19	03	22	09	58	48	0.667559853412	-0.14801432244	-0.0742207901389	-0.189453125	-0.34423828125	0.9921875	11.1875	-11.875	-18.875
19	03	22	09	58	48	0.670057563246	-0.145999060966	-0.0748306223847	-0.1611328125	-0.384765625	1.009765625	10.375	-10.75	-19.625
19	03	22	09	58	48	0.672400617635	-0.144112006013	-0.0755046808292	-0.15771484375	-0.41796875	1.041015625	11.375	-10.375	-18.625
19	03	22	09	58	48	0.674700763329	-0.142215738968	-0.0756856293222	-0.1279296875	-0.4091796875	1.048828125	12.8125	-7.125	-17.0
19	03	22	09	58	48	0.676598435675	-0.141423416821	-0.0752589870264	-0.15869140625	-0.390625	1.03759765625	9.625	-2.75	-14.4375
19	03	22	09	58	48	0.677982064215	-0.141724374604	-0.0752567415535	-0.140625	-0.375	1.03515625	2.625	1.0625	-11.4375
19	03	22	09	58	48	0.6792279714	-0.144049066544	-0.0756257599357	-0.1962890625	-0.36962890625	1.02001953125	-7.4375	4.1875	-12.5
19	03	22	09	58	48	0.680191367511	-0.146670841361	-0.0764788032566	-0.2001953125	-0.3916015625	1.03076171875	-10.125	3.25	-11.0625
19	03	22	09	58	48	0.681173337377	-0.148991408292	-0.0762962967492	-0.205078125	-0.3984375	1.0087890625	-3.75	6.0	-9.625
19	03	22	09	58	48	0.682150740672	-0.150395438888	-0.0744652741249	-0.23193359375	-0.38037109375	0.984375	5.875	6.625	-7.8125
19	03	22	09	58	48	0.683058268672	-0.151309217053	-0.0725112343117	-0.20751953125	-0.326171875	0.94873046875	5.875	6.375	-6.875
19	03	22	09	58	48	0.683555988469	-0.15308138397	-0.0711694153545	-0.22265625	-0.3095703125	0.91748046875	-0.8125	6.25	-5.3125
19	03	22	09	58	48	0.683983831377	-0.154668483733	-0.0709253267946	-0.16162109375	-0.345703125	0.9033203125	-2.1875	5.25	-4.4375
19	03	22	09	58	48	0.68454241567	-0.155952373788	-0.070560056399	-0.17041015625	-0.2939453125	0.9130859375	-4.125	4.3125	-5.5
19	03	22	09	58	48	0.685020367853	-0.157414909444	-0.0701317297214	-0.20849609375	-0.2861328125	0.93115234375	-5.5625	3.0	-6.25
19	03	22	09	58	48	0.685630723136	-0.157964240317	-0.0697044677131	-0.18212890625	-0.31396484375	0.9111328125	0.4375	0.875	-5.8125
19	03	22	09	58	48	0.686304418025	-0.157720616878	-0.0685449894559	-0.205078125	-0.28466796875	0.9052734375	4.6875	-1.0	-5.5625
19	03	22	09	58	48	0.687034721777	-0.157353901274	-0.0677512918596	-0.1923828125	-0.26416015625	0.90380859375	2.8125	-2.125	-6.375
19	03	22	09	58	48	0.68778243489	-0.157601548357	-0.0676917572145	-0.201171875	-0.267578125	0.92236328125	-2.9375	-2.9375	-8.0
19	03	22	09	58	48	0.688643193897	-0.157725049905	-0.0681196422965	-0.189453125	-0.28125	0.9375	-3.9375	-4.125	-9.0
19	03	22	09	58	48	0.689462552553	-0.157655964345	-0.0679330578074	-0.228515625	-0.27294921875	0.9462890625	-1.4375	-5.1875	-8.875
19	03	22	09	58	48	0.690459643556	-0.15686715735	-0.0676298872931	-0.19873046875	-0.29345703125	0.97021484375	2.9375	-5.1875	-8.875
19	03	22	09	58	48	0.691546522775	-0.156742406927	-0.0670794023415	-0.21923828125	-0.255859375	0.982421875	-1.25	-2.9375	-10.125
19	03	22	09	58	48	0.692337089966	-0.157840405065	-0.0665908282776	-0.291015625	-0.27001953125	1.0	-6.25	-2.625	-10.25
19	03	22	09	58	48	0.693317820963	-0.158634828478	-0.0666522634467	-0.271484375	-0.31787109375	0.99462890625	-4.0	-4.5	-11.5625
19	03	22	09	58	48	0.694250597286	-0.159432263066	-0.0657383412411	-0.27294921875	-0.341796875	0.9580078125	2.75	-1.0625	-9.5
19	03	22	09	58	48	0.695344209308	-0.159370060613	-0.0640898367076	-0.24609375	-0.33447265625	0.943359375	8.6875	0.3125	-9.0
19	03	22	09	58	48	0.696572313772	-0.160043165677	-0.0636022039038	-0.23779296875	-0.2919921875	0.978515625	-2.1875	-0.25	-11.9375
19	03	22	09	58	48	0.697706724755	-0.161929484802	-0.064027150229	-0.26953125	-0.31298828125	0.9921875	-10.1875	-0.8125	-13.625
19	03	22	09	58	49	0.69882627746	-0.163521320405	-0.0640901031822	-0.30224609375	-0.373046875	0.98681640625	-3.5625	-2.4375	-13.1875
19	03	22	09	58	49	0.699889182451	-0.163879171089	-0.0631713005875	-0.27978515625	-0.34130859375	0.984375	3.1875	-2.625	-10.375
19	03	22	09	58	49	0.700949768376	-0.164678028133	-0.0617695198186	-0.2734375	-0.3154296875	0.98583984375	1.875	2.0625	-10.25
19	03	22	09	58	49	0.701978236226	-0.166506967083	-0.0609752419781	-0.2421875	-0.37255859375	0.970703125	-1.0625	5.875	-10.0625
19	03	22	09	58	49	0.703201226547	-0.168887925862	-0.0603040371347	-0.28125	-0.39208984375	0.93798828125	-1.875	5.4375	-12.5625
19	03	22	09	58	49	0.70423300523	-0.171450035681	-0.0598762851561	-0.29541015625	-0.3759765625	0.91357421875	-4.3125	4.0625	-12.1875
19	03	22	09	58	49	0.70493215455	-0.174020397664	-0.0600007193629	-0.24609375	-0.38525390625	0.91650390625	-6.5	5.1875	-9.0625
19	03	22	09	58	49	0.705607209744	-0.176584918494	-0.0591464866992	-0.2216796875	-0.3623046875	0.90234375	-4.0	10.1875	-7.25
19	03	22	09	58	49	0.705890002936	-0.178898711509	-0.058229058608	-0.2568359375	-0.31201171875	0.9013671875	-6.4375	7.375	-5.0625
19	03	22	09	58	49	0.705707983768	-0.18225601449	-0.0585953696953	-0.26513671875	-0.30224609375	0.88134765625	-16.625	5.375	-4.4375
19	03	22	09	58	49	0.70581775929	-0.184572198555	-0.059387813887	-0.19970703125	-0.35595703125	0.892578125	-11.125	4.0625	-4.1875
19	03	22	09	58	49	0.706085867336	-0.186165447387	-0.0586573753899	-0.23095703125	-0.263671875	0.87939453125	-7.6875	5.8125	-4.75
19	03	22	09	58	49	0.706447556971	-0.188056412911	-0.0582297364222	-0.2578125	-0.25341796875	0.92724609375	-11.9375	4.4375	-6.9375
19	03	22	09	58	49	0.707127608772	-0.190561277047	-0.0581083714761	-0.27587890625	-0.28125	0.92626953125	-14.0625	5.75	-10.625
19	03	22	09	58	49	0.707895470576	-0.192873744354	-0.0570686553706	-0.30712890625	-0.3291015625	0.931640625	-6.8125	6.8125	-10.0625
19	03	22	09	58	49	0.70872045866	-0.194774522744	-0.0551789935948	-0.29052734375	-0.345703125	0.890625	0.4375	9.5625	-8.375
19	03	22	09	58	49	0.709540261218	-0.197023308663	-0.0534672919421	-0.310546875	-0.33203125	0.88671875	-2.8125	9.25	-9.4375
19	03	22	09	58	49	0.710277259597	-0.199527056941	-0.0527962386828	-0.296875	-0.32861328125	0.87646484375	-7.6875	7.1875	-10.125
19	03	22	09	58	49	0.710644161969	-0.202518021937	-0.0520028193762	-0.3134765625	-0.36962890625	0.85498046875	-6.9375	8.0625	-7.125
19	03	22	09	58	49	0.710733756323	-0.203930048083	-0.0512114068666	-0.2666015625	-0.35546875	0.8681640625	-2.0625	4.25	-2.8125
19	03	22	09	58	49	0.71060972917	-0.20563856533	-0.0501125740979	-0.29931640625	-0.2880859375	0.8427734375	-5.75	4.3125	-2.3125
19	03	22	09	58	49	0.710274723351	-0.207338939179	-0.0498663271443	-0.27734375	-0.3173828125	0.873046875	-8.3125	2.5625	-1.0625
19	03	22	09	58	49	0.70998516785	-0.20856424678	-0.0495012010941	-0.24658203125	-0.31982421875	0.8466796875	-5.3125	3.0	0.1875
19	03	22	09	58	49	0.709741178865	-0.208991554561	-0.0487077279613	-0.255859375	-0.29736328125	0.8671875	-1.875	1.125	0.5625
19	03	22	09	58	49	0.709556126791	-0.20923513141	-0.0478530755617	-0.24609375	-0.2421875	0.8798828125	-5.0	1.3125	0.0
19	03	22	09	58	49	0.709295278056	-0.210084704162	-0.0482181627798	-0.2333984375	-0.2451171875	0.9091796875	-13.0	0.75	-1.625
19	03	22	09	58	49	0.709234480201	-0.211122380982	-0.0479740362683	-0.2685546875	-0.2587890625	0.9189453125	-10.4375	2.125	-3.25
19	03	22	09	58	49	0.708882102979	-0.212164128634	-0.0475477146737	-0.2841796875	-0.28076171875	0.93603515625	-9.125	1.625	-0.625
19	03	22	09	58	49	0.708722703093	-0.212415382548	-0.0467557997218	-0.25830078125	-0.27099609375	0.9384765625	-4.8125	1.9375	-0.125
19	03	22	09	58	49	0.708691552269	-0.212711227255	-0.0454109477985	-0.28759765625	-0.25732421875	0.9384765625	-3.875	3.0	-1.25
19	03	22	09	58	49	0.70877727489	-0.213634211343	-0.0448021460359	-0.2822265625	-0.27001953125	0.95166015625	-8.4375	3.125	-3.875
19	03	22	09	58	49	0.709016796297	-0.215524992056	-0.0438862841372	-0.3466796875	-0.29248046875	0.9599609375	-10.125	5.5	-6.9375
19	03	22	09	58	49	0.709201528503	-0.21760077882	-0.0427266606379	-0.36181640625	-0.32080078125	0.93896484375	-8.0	5.9375	-6.1875
19	03	22	09	58	49	0.709262323483	-0.219492884272	-0.0405903136933	-0.365234375	-0.35595703125	0.89306640625	-0.1875	8.3125	-2.5625
19	03	22	09	58	49	0.708995918527	-0.220523609989	-0.0379034491568	-0.37158203125	-0.31884765625	0.865234375	3.875	6.0	0.875
19	03	22	09	58	49	0.708263734072	-0.222293736599	-0.0369268837568	-0.36328125	-0.27294921875	0.84912109375	-8.875	1.75	0.5625
19	03	22	09	58	49	0.707354305162	-0.225103346055	-0.0372323864137	-0.33984375	-0.298828125	0.85791015625	-17.1875	3.1875	0.25
19	03	22	09	58	49	0.706511542455	-0.22815897587	-0.0377213074071	-0.35107421875	-0.27685546875	0.88134765625	-21.0	3.0625	-1.8125
19	03	22	09	58	49	0.705843696101	-0.231273068534	-0.0387591445022	-0.35888671875	-0.26708984375	0.9111328125	-25.1875	2.1875	-4.5
19	03	22	09	58	49	0.705530759681	-0.234017210193	-0.039674279245	-0.3564453125	-0.31005859375	0.92626953125	-20.875	1.875	-6.3125
19	03	22	09	58	49	0.705616232288	-0.235551301072	-0.0399808505319	-0.337890625	-0.32421875	0.92626953125	-12.5625	1.25	-6.1875
19	03	22	09	58	49	0.705851712938	-0.236525024873	-0.0393699718821	-0.35009765625	-0.310546875	0.90283203125	-6.625	1.875	-6.0
19	03	22	09	58	49	0.706304148407	-0.236696118866	-0.0390627942431	-0.35546875	-0.31494140625	0.95703125	-5.4375	-2.0	-7.1875
19	03	22	09	58	49	0.706999805976	-0.2368263185	-0.0388199841665	-0.3525390625	-0.30712890625	0.97021484375	-6.25	-1.5	-9.5
19	03	22	09	58	49	0.707730048939	-0.2370697292	-0.0386977879282	-0.33056640625	-0.37109375	0.990234375	-3.5	0.3125	-8.1875
19	03	22	09	58	49	0.70800953086	-0.237183192838	-0.0374756768921	-0.306640625	-0.400390625	0.994140625	2.4375	4.9375	-1.625
19	03	22	09	58	49	0.70797911954	-0.237742794259	-0.0361344632096	-0.29736328125	-0.3828125	0.97021484375	0.125	7.125	0.6875
19	03	22	09	58	49	0.707856853772	-0.239573868333	-0.0354019983778	-0.31005859375	-0.38330078125	0.96044921875	-7.5	9.5	-1.0625
19	03	22	09	58	49	0.707486810844	-0.242868606708	-0.0352797322636	-0.3095703125	-0.3974609375	0.9375	-14.6875	13.0	-2.0625
19	03	22	09	58	50	0.706864814686	-0.246893029566	-0.0349129327347	-0.34765625	-0.39404296875	0.90283203125	-16.625	13.8125	-1.5625
19	03	22	09	58	50	0.70583790027	-0.250559026341	-0.0339978995547	-0.3779296875	-0.34423828125	0.88818359375	-16.9375	12.1875	1.375
19	03	22	09	58	50	0.704609296961	-0.254157407532	-0.0328988575071	-0.37451171875	-0.33251953125	0.87744140625	-16.625	12.625	3.125
19	03	22	09	58	50	0.703278900417	-0.257580017337	-0.0320449073702	-0.337890625	-0.3203125	0.86669921875	-17.625	13.8125	4.5
19	03	22	09	58	50	0.701943791491	-0.261001013254	-0.0309465654162	-0.34228515625	-0.31005859375	0.85009765625	-17.1875	14.0625	4.5
19	03	22	09	58	50	0.700526060835	-0.26441394925	-0.0304576548189	-0.35302734375	-0.30224609375	0.8515625	-20.4375	11.625	3.5625
19	03	22	09	58	50	0.699005652336	-0.26795623592	-0.0303358198752	-0.3505859375	-0.31884765625	0.8544921875	-21.875	11.0625	4.3125
19	03	22	09	58	50	0.697367287231	-0.271317075864	-0.0299700077051	-0.3603515625	-0.33642578125	0.8642578125	-19.9375	11.125	5.625
19	03	22	09	58	50	0.695911777754	-0.273823369442	-0.0286275435284	-0.3642578125	-0.3310546875	0.84716796875	-12.3125	11.25	7.0625
19	03	22	09	58	50	0.694595824967	-0.275335831848	-0.026978150671	-0.3427734375	-0.32568359375	0.8466796875	-7.125	9.875	8.6875
19	03	22	09	58	50	0.693158529173	-0.276750684332	-0.0246597433767	-0.3564453125	-0.29931640625	0.837890625	-5.8125	11.375	9.6875
19	03	22	09	58	50	0.691611165482	-0.278756349197	-0.0229499424783	-0.3984375	-0.26806640625	0.82763671875	-12.0	8.9375	6.8125
19	03	22	09	58	50	0.689891320859	-0.281315500119	-0.0225223301245	-0.380859375	-0.28759765625	0.81689453125	-18.4375	7.0625	6.1875
19	03	22	09	58	50	0.688433178522	-0.282966239527	-0.0227666970111	-0.3349609375	-0.34765625	0.85302734375	-14.4375	5.0	7.0625
19	03	22	09	58	50	0.687581886892	-0.282906528695	-0.0222785076534	-0.3212890625	-0.2783203125	0.8603515625	-8.1875	2.25	4.9375
19	03	22	09	58	50	0.686372817419	-0.284254176142	-0.0199594407555	-0.44384765625	-0.2080078125	0.79833984375	-9.5625	6.375	3.75
19	03	22	09	58	50	0.684699240413	-0.286807071733	-0.0192262667793	-0.47314453125	-0.24853515625	0.8056640625	-19.0	4.125	2.875
19	03	22	09	58	50	0.683377504051	-0.2884639232	-0.0194710096278	-0.37744140625	-0.26708984375	0.80615234375	-17.8125	2.25	2.6875
19	03	22	09	58	50	0.682072189396	-0.290407112049	-0.0181885917172	-0.4560546875	-0.25537109375	0.7734375	-12.75	4.6875	2.75
19	03	22	09	58	50	0.680622060451	-0.29200035308	-0.0171513585317	-0.48486328125	-0.255859375	0.7958984375	-13.375	1.25	2.875
19	03	22	09	58	50	0.679650165052	-0.292368593678	-0.015686582166	-0.45703125	-0.28564453125	0.79736328125	-4.125	-0.5	3.4375
19	03	22	09	58	50	0.679112865135	-0.291153007972	-0.013794670818	-0.41015625	-0.31298828125	0.798828125	6.1875	-2.125	5.75
19	03	22	09	58	50	0.678562789214	-0.289016353956	-0.0109258558306	-0.41796875	-0.26513671875	0.80322265625	11.125	-2.75	7.625
19	03	22	09	58	50	0.678352478363	-0.287051620096	-0.00939952147453	-0.39111328125	-0.2607421875	0.82080078125	5.25	-4.8125	3.1875
19	03	22	09	58	50	0.678422077024	-0.285407254356	-0.00988793310642	-0.34423828125	-0.29541015625	0.84423828125	-1.75	-7.375	-0.5625
19	03	22	09	58	50	0.678666865722	-0.283942644063	-0.0101320891906	-0.37060546875	-0.322265625	0.8662109375	-0.25	-6.5	-1.875
19	03	22	09	58	50	0.679363042624	-0.281023131019	-0.0105597310309	-0.31689453125	-0.349609375	0.90087890625	6.3125	-9.4375	-1.75
19	03	22	09	58	50	0.680145137694	-0.2780275601	-0.00872841736429	-0.3642578125	-0.3291015625	0.87939453125	15.4375	-4.3125	0.125
19	03	22	09	58	50	0.680304990818	-0.275942837205	-0.00714118822229	-0.39501953125	-0.29736328125	0.8701171875	8.75	-4.1875	1.3125
19	03	22	09	58	50	0.679913414934	-0.275041731546	-0.00604286094609	-0.40185546875	-0.29443359375	0.85693359375	1.75	-2.3125	3.1875
19	03	22	09	58	50	0.679096123694	-0.275459357022	-0.00604264931204	-0.40185546875	-0.3291015625	0.837890625	-5.8125	-1.875	3.5
19	03	22	09	58	50	0.677958530164	-0.276261844559	-0.00518830242765	-0.43603515625	-0.3388671875	0.82373046875	-3.625	0.5	5.8125
19	03	22	09	58	50	0.676723879821	-0.276927594728	-0.00433366965521	-0.4521484375	-0.3037109375	0.82861328125	-5.25	-0.8125	5.6875
19	03	22	09	58	50	0.675497211246	-0.277840725182	-0.00354014983756	-0.46728515625	-0.294921875	0.82568359375	-7.0625	-0.5625	4.5625
19	03	22	09	58	50	0.674333939608	-0.278571696268	-0.00360116785272	-0.4267578125	-0.32421875	0.85498046875	-8.5625	-1.6875	4.9375
19	03	22	09	58	50	0.673408386058	-0.278750666104	-0.00225832595705	-0.41748046875	-0.31787109375	0.84521484375	-0.5	2.0	6.5
19	03	22	09	58	50	0.672886816381	-0.277846588186	-0.000915575312565	-0.3828125	-0.33740234375	0.8564453125	5.1875	0.3125	6.3125
19	03	22	09	58	50	0.672626979388	-0.275947964956	-0.000122073861958	-0.35302734375	-0.2919921875	0.87451171875	4.4375	-3.6875	4.75
19	03	22	09	58	50	0.672010958267	-0.275030097906	0.0	-0.35888671875	-0.271484375	0.857421875	-2.8125	-3.25	4.1875
19	03	22	09	58	50	0.671096382054	-0.27466427642	0.000366219035227	-0.3896484375	-0.294921875	0.8671875	-3.75	-1.8125	5.8125
19	03	22	09	58	50	0.670236256637	-0.274173687716	0.000976575913504	-0.41796875	-0.271484375	0.83642578125	-2.25	-3.8125	4.9375
19	03	22	09	58	50	0.668784276355	-0.273995858041	0.00128178057894	-0.44482421875	-0.2587890625	0.8369140625	-6.6875	-6.1875	7.4375
