19	01	14	15	25	21	-0.520654739083	-0.0351538072573	-0.289957878957	-0.25244140625	0.498046875	0.86328125	0.5	0.6875	-0.9375
19	01	14	15	25	21	-0.520557659398	-0.0350944605644	-0.290032828873	-0.23779296875	0.474609375	0.84326171875	2.0625	1.375	0.5
19	01	14	15	25	21	-0.520476932115	-0.0355813850168	-0.290876296724	-0.2392578125	0.47802734375	0.81689453125	6.875	0.8125	0.4375
19	01	14	15	25	21	-0.520415349086	-0.0362526934862	-0.291913523476	-0.23974609375	0.48046875	0.7958984375	7.75	-0.375	0.125
19	01	14	15	25	21	-0.520285397657	-0.0369234798337	-0.292763525227	-0.228515625	0.48828125	0.7919921875	6.3125	0.125	0.625
19	01	14	15	25	21	-0.520169155845	-0.0369849241397	-0.293438143999	-0.23681640625	0.4931640625	0.7744140625	2.5	1.4375	-0.25
19	01	14	15	25	21	-0.52042720223	-0.0364366177708	-0.293323927984	-0.26171875	0.478515625	0.78173828125	-2.0625	0.1875	-1.3125
19	01	14	15	25	21	-0.520709041837	-0.035885714557	-0.292822548375	-0.26806640625	0.4638671875	0.80078125	-2.5625	-1.125	-0.5625
19	01	14	15	25	21	-0.520772878732	-0.0355807556898	-0.293068248409	-0.29248046875	0.47705078125	0.818359375	1.9375	-0.8125	0.8125
19	01	14	15	25	21	-0.520673819167	-0.0355823275787	-0.29381359342	-0.27978515625	0.490234375	0.81640625	4.125	0.5	0.9375
19	01	14	15	25	21	-0.520605468197	-0.0355818274277	-0.294297721881	-0.2607421875	0.50830078125	0.82666015625	2.875	0.8125	0.1875
19	01	14	15	25	21	-0.52067615826	-0.0353993871517	-0.294486281046	-0.267578125	0.482421875	0.82666015625	1.9375	0.625	0.1875
19	01	14	15	25	21	-0.520546349703	-0.0355819582456	-0.294726031506	-0.25732421875	0.490234375	0.82421875	2.75	-0.625	1.25
19	01	14	15	25	21	-0.520363592326	-0.0360702419734	-0.295153452087	-0.24755859375	0.48583984375	0.8115234375	4.25	-0.75	1.75
19	01	14	15	25	21	-0.520181320096	-0.0363754624871	-0.295764247	-0.251953125	0.50634765625	0.810546875	3.8125	0.4375	0.8125
19	01	14	15	25	21	-0.520243683121	-0.0361314242618	-0.296009134577	-0.26513671875	0.49755859375	0.8115234375	1.1875	0.75	-0.125
19	01	14	15	25	21	-0.520173474657	-0.0356425330517	-0.296064944921	-0.263671875	0.49609375	0.81689453125	-0.6875	1.75	0.1875
19	01	14	15	25	21	-0.520170259273	-0.0351540618727	-0.296307240264	-0.2607421875	0.49609375	0.81298828125	0.0625	2.0625	-0.375
19	01	14	15	25	21	-0.520180780456	-0.0350937403218	-0.296252200908	-0.263671875	0.4912109375	0.81494140625	0.875	0.875	0.0625
19	01	14	15	25	21	-0.519934576808	-0.0352156650802	-0.296678246022	-0.2548828125	0.51953125	0.82080078125	1.625	0.875	1.1875
19	01	14	15	25	21	-0.519935693336	-0.0351547082241	-0.296678883121	-0.26953125	0.49267578125	0.7978515625	-0.125	0.875	0.9375
19	01	14	15	25	21	-0.519936807934	-0.0350937509757	-0.296679519118	-0.2666015625	0.486328125	0.80810546875	-0.875	0.875	0.75
19	01	14	15	25	21	-0.519764535019	-0.034423109177	-0.296685698066	-0.267578125	0.501953125	0.80615234375	-2.1875	2.3125	0.75
19	01	14	15	25	21	-0.519744270074	-0.0333842315324	-0.296430004667	-0.279296875	0.509765625	0.81103515625	-5.1875	2.5625	-0.125
19	01	14	15	25	21	-0.519818740249	-0.0323475322687	-0.296193536037	-0.27587890625	0.50537109375	0.82568359375	-4.0625	2.625	-1.1875
19	01	14	15	25	21	-0.519866057138	-0.0316143011971	-0.296246752917	-0.2626953125	0.505859375	0.81787109375	-2.0	3.4375	-1.4375
19	01	14	15	25	21	-0.519795666375	-0.0310644586339	-0.296302449249	-0.24072265625	0.4873046875	0.79443359375	-1.4375	3.3125	-0.8125
19	01	14	15	25	22	-0.519623772906	-0.0304548112145	-0.296125739504	-0.2353515625	0.478515625	0.7890625	-2.5625	3.3125	0.0625
19	01	14	15	25	22	-0.519572771213	-0.0298450704949	-0.296070423253	-0.2548828125	0.486328125	0.7744140625	-3.0	1.875	-0.625
19	01	14	15	25	22	-0.519793959724	-0.0292334515331	-0.295508084182	-0.2822265625	0.4931640625	0.79150390625	-5.0	-0.9375	-0.625
19	01	14	15	25	22	-0.519644053601	-0.0288080800211	-0.295343854284	-0.27978515625	0.4990234375	0.7939453125	-3.375	0.1875	1.0
19	01	14	15	25	22	-0.519379897663	-0.0281966524936	-0.295454534029	-0.28515625	0.49853515625	0.79345703125	-2.375	1.5	1.5
19	01	14	15	25	22	-0.519020593776	-0.0277087664128	-0.295275356619	-0.26171875	0.50390625	0.80908203125	-3.5	2.25	1.6875
19	01	14	15	25	22	-0.518655173347	-0.0271595142551	-0.294970634595	-0.24462890625	0.51025390625	0.814453125	-4.5	3.25	1.0
19	01	14	15	25	22	-0.518582782397	-0.0262434502096	-0.294231798745	-0.26171875	0.501953125	0.814453125	-7.1875	1.8125	-0.0625
19	01	14	15	25	22	-0.518542694542	-0.0254510715188	-0.293450244275	-0.2607421875	0.49462890625	0.82861328125	-6.4375	1.625	-0.25
19	01	14	15	25	22	-0.518530904258	-0.0247791369031	-0.293077377854	-0.25390625	0.48828125	0.810546875	-3.9375	2.5	-0.875
19	01	14	15	25	22	-0.51846281324	-0.024046421238	-0.293622671513	-0.2705078125	0.49853515625	0.78759765625	-1.0	4.1875	-1.3125
19	01	14	15	25	22	-0.51840084037	-0.0227647178547	-0.294171421072	-0.31396484375	0.4921875	0.77490234375	-2.9375	3.8125	-0.8125
19	01	14	15	25	22	-0.518295107465	-0.0215447683626	-0.294546889852	-0.34228515625	0.4912109375	0.79248046875	-2.75	2.0625	0.8125
19	01	14	15	25	22	-0.518161177037	-0.0207508598578	-0.294723241921	-0.341796875	0.45166015625	0.798828125	-0.0625	0.0	2.625
19	01	14	15	25	22	-0.517805224378	-0.0203850713039	-0.295827666497	-0.33154296875	0.46240234375	0.8046875	5.6875	1.625	3.125
19	01	14	15	25	22	-0.517801621328	-0.0201407985665	-0.297351426109	-0.31884765625	0.47265625	0.8076171875	7.9375	2.6875	-0.375
19	01	14	15	25	22	-0.518089769462	-0.0194687992058	-0.297951967783	-0.31787109375	0.4716796875	0.82666015625	2.875	2.375	-1.75
19	01	14	15	25	22	-0.518338018213	-0.0187976109278	-0.297710214629	-0.3037109375	0.45751953125	0.85986328125	0.625	1.125	-0.875
19	01	14	15	25	22	-0.518219229548	-0.0185536033191	-0.297590032184	-0.2861328125	0.47509765625	0.86181640625	1.0	1.1875	0.9375
19	01	14	15	25	22	-0.517866450433	-0.0181878847648	-0.297841871316	-0.28369140625	0.490234375	0.82958984375	0.5	2.9375	1.8125
19	01	14	15	25	22	-0.517793789582	-0.0174550947455	-0.297896214869	-0.2939453125	0.484375	0.8095703125	-1.8125	2.9375	-0.25
19	01	14	15	25	22	-0.517849107934	-0.0164784041417	-0.297221585815	-0.2919921875	0.4736328125	0.80224609375	-5.875	1.3125	-0.3125
19	01	14	15	25	22	-0.517678491434	-0.0153191819559	-0.296374293139	-0.28515625	0.49853515625	0.79931640625	-9.5625	2.1875	0.0
19	01	14	15	25	22	-0.517546444897	-0.0139151638486	-0.295392074682	-0.2890625	0.47998046875	0.7861328125	-10.4375	2.875	0.0
19	01	14	15	25	22	-0.517236919199	-0.0128164900332	-0.294840301669	-0.275390625	0.5068359375	0.78369140625	-9.0	3.6875	0.125
19	01	14	15	25	22	-0.516765372079	-0.0118403781957	-0.294971895979	-0.26953125	0.52392578125	0.76708984375	-6.9375	5.375	0.1875
19	01	14	15	25	22	-0.516260374723	-0.0108024691247	-0.295633674803	-0.2919921875	0.50830078125	0.755859375	-4.0625	6.0625	0.1875
19	01	14	15	25	22	-0.515911137605	-0.0101924949698	-0.296192683166	-0.3095703125	0.50439453125	0.78369140625	-1.5	3.125	1.1875
19	01	14	15	25	22	-0.515356544054	-0.0105585838609	-0.297166155021	-0.28369140625	0.48193359375	0.76806640625	3.8125	1.25	2.75
19	01	14	15	25	22	-0.514884026381	-0.0109861456554	-0.298395922828	-0.3076171875	0.47607421875	0.765625	6.1875	0.375	3.1875
19	01	14	15	25	22	-0.514554883734	-0.0114128529544	-0.300029866972	-0.32666015625	0.501953125	0.75732421875	7.0	0.0	2.0
19	01	14	15	25	22	-0.514486433266	-0.0111685667008	-0.300513783796	-0.35205078125	0.4912109375	0.775390625	0.125	-1.8125	1.625
19	01	14	15	25	22	-0.514245154073	-0.0109245054093	-0.300271321866	-0.33447265625	0.482421875	0.818359375	-1.75	-1.6875	3.25
19	01	14	15	25	22	-0.51387820295	-0.0109244891126	-0.30057602726	-0.33154296875	0.4619140625	0.83984375	4.0	-0.5	4.125
19	01	14	15	25	22	-0.513468993255	-0.0115352002526	-0.301502059513	-0.31884765625	0.4892578125	0.84912109375	7.625	-0.375	3.5
19	01	14	15	25	22	-0.513083653816	-0.0118399225455	-0.302711421783	-0.31494140625	0.541015625	0.84765625	5.4375	2.25	1.4375
19	01	14	15	25	22	-0.513040070406	-0.0111079339536	-0.302416553517	-0.31298828125	0.5146484375	0.85595703125	-3.625	2.0	-0.125
19	01	14	15	25	22	-0.51265884038	-0.0102531768076	-0.301370161166	-0.28955078125	0.48779296875	0.85595703125	-6.5	2.75	2.0
19	01	14	15	25	22	-0.512176774012	-0.00952092191919	-0.301373797673	-0.30126953125	0.46826171875	0.83056640625	-0.75	3.875	2.6875
19	01	14	15	25	22	-0.51200451203	-0.00939905767703	-0.30211256819	-0.29931640625	0.47412109375	0.81005859375	4.1875	2.6875	0.8125
19	01	14	15	25	22	-0.511766781223	-0.00952124244135	-0.302970817172	-0.29296875	0.5	0.79541015625	3.75	2.0625	0.5
19	01	14	15	25	22	-0.51138501344	-0.00915476214536	-0.303205722254	-0.29833984375	0.50341796875	0.78857421875	-1.8125	2.375	1.5
19	01	14	15	25	22	-0.510770729148	-0.00854437831052	-0.303142336202	-0.318359375	0.49951171875	0.78857421875	-3.9375	1.8125	3.6875
19	01	14	15	25	22	-0.509920477524	-0.00830032135766	-0.303266888428	-0.30859375	0.48828125	0.78564453125	-1.5625	1.6875	5.3125
19	01	14	15	25	22	-0.509119787036	-0.00836123361591	-0.303506677167	-0.2978515625	0.47705078125	0.7861328125	0.5625	0.9375	5.4375
19	01	14	15	25	22	-0.508342880458	-0.00860563646831	-0.303760657466	-0.27587890625	0.484375	0.79052734375	1.375	1.375	4.6875
19	01	14	15	25	22	-0.507590952564	-0.00842221371333	-0.303809999022	-0.28466796875	0.5009765625	0.779296875	-2.5625	2.1875	4.125
19	01	14	15	25	22	-0.506876509972	-0.00817838077499	-0.303637644445	-0.294921875	0.51513671875	0.78662109375	-4.375	1.375	4.1875
19	01	14	15	25	22	-0.506071997802	-0.0080561388941	-0.303569961055	-0.30078125	0.51123046875	0.7763671875	-3.875	0.75	4.625
19	01	14	15	25	22	-0.505339650714	-0.008117170718	-0.303814104016	-0.30908203125	0.49853515625	0.76953125	-0.875	-0.4375	5.0
19	01	14	15	25	23	-0.504862247766	-0.00848354115564	-0.304064762859	-0.30859375	0.49560546875	0.79052734375	1.0625	-1.4375	4.125
19	01	14	15	25	23	-0.504383763893	-0.00903301029238	-0.304314792688	-0.2890625	0.49755859375	0.798828125	2.1875	-0.9375	3.625
19	01	14	15	25	23	-0.503871882976	-0.00933774201737	-0.304605688946	-0.2919921875	0.5078125	0.7998046875	0.75	0.0	3.25
19	01	14	15	25	23	-0.503260471752	-0.00939875244359	-0.304971207536	-0.29150390625	0.509765625	0.783203125	-0.0625	1.0625	3.3125
19	01	14	15	25	23	-0.502786518932	-0.00952108484503	-0.305040910612	-0.28955078125	0.5205078125	0.79638671875	-1.3125	0.5625	3.0
19	01	14	15	25	23	-0.502349323705	-0.00958192732616	-0.304668670141	-0.2958984375	0.50830078125	0.80908203125	-2.875	-1.1875	3.4375
19	01	14	15	25	23	-0.502056255088	-0.00958215804143	-0.304126710321	-0.29931640625	0.47607421875	0.80810546875	-1.8125	-1.625	3.375
19	01	14	15	25	23	-0.501568164146	-0.00994835857335	-0.304431978919	-0.3017578125	0.4794921875	0.798828125	2.875	-1.25	3.9375
19	01	14	15	25	23	-0.500774601534	-0.0106197173269	-0.305713586726	-0.3017578125	0.5439453125	0.78759765625	4.625	0.6875	4.4375
19	01	14	15	25	23	-0.500289009188	-0.0103756412788	-0.306020384539	-0.31640625	0.53173828125	0.791015625	-1.6875	1.125	2.9375
19	01	14	15	25	23	-0.500102062752	-0.00994833246626	-0.305224605299	-0.298828125	0.50537109375	0.83154296875	-5.1875	-0.375	1.4375
19	01	14	15	25	23	-0.500216501742	-0.00976508544151	-0.304426538639	-0.2744140625	0.4580078125	0.83349609375	-1.4375	-0.25	0.375
19	01	14	15	25	23	-0.50010292806	-0.00982628403926	-0.304736870857	-0.28955078125	0.470703125	0.8251953125	4.125	0.875	1.125
19	01	14	15	25	23	-0.499715202169	-0.0100089512892	-0.305944346418	-0.31103515625	0.5107421875	0.79052734375	5.1875	1.5625	1.875
19	01	14	15	25	23	-0.499421088749	-0.00939885710221	-0.306073171218	-0.32958984375	0.517578125	0.78271484375	-3.0625	0.875	1.8125
19	01	14	15	25	23	-0.499385223603	-0.00805656923925	-0.304440661859	-0.32666015625	0.46337890625	0.80126953125	-10.9375	-0.5625	1.6875
19	01	14	15	25	23	-0.499416696714	-0.00683547232458	-0.303079960391	-0.32373046875	0.44970703125	0.83251953125	-7.3125	0.1875	1.375
19	01	14	15	25	23	-0.499302886687	-0.00604216914583	-0.303084969477	-0.3359375	0.46826171875	0.8359375	-0.1875	1.8125	1.625
19	01	14	15	25	23	-0.498583666396	-0.0059202614323	-0.304374677968	-0.32177734375	0.50537109375	0.82763671875	5.6875	4.125	3.5
19	01	14	15	25	23	-0.497535461203	-0.00567600562953	-0.305649851534	-0.31396484375	0.515625	0.78759765625	3.5	5.1875	5.0625
19	01	14	15	25	23	-0.496914442254	-0.00494351140046	-0.306070489794	-0.33349609375	0.470703125	0.7724609375	-0.1875	2.375	4.25
19	01	14	15	25	23	-0.496135082308	-0.00451642220332	-0.307116709826	-0.36376953125	0.44091796875	0.7529296875	4.875	1.6875	6.9375
19	01	14	15	25	23	-0.494846755399	-0.00439429777858	-0.309859025303	-0.43115234375	0.44970703125	0.7119140625	12.8125	1.0	10.75
19	01	14	15	25	23	-0.492654901683	-0.00469950785798	-0.313463277384	-0.42822265625	0.482421875	0.72314453125	16.5625	3.625	15.75
19	01	14	15	25	23	-0.489530760078	-0.00488249106175	-0.318521510641	-0.42919921875	0.484375	0.68603515625	22.375	9.4375	19.5
19	01	14	15	25	23	-0.485874001732	-0.00488254241158	-0.323285339427	-0.42919921875	0.52099609375	0.6796875	18.0625	11.0625	22.375
19	01	14	15	25	23	-0.481553009205	-0.003906133408	-0.32768797293	-0.41162109375	0.5751953125	0.6337890625	8.25	15.625	23.6875
19	01	14	15	25	23	-0.477437715432	-0.000305150016255	-0.329745107565	-0.54931640625	0.4775390625	0.63037109375	-5.5	13.9375	26.9375
19	01	14	15	25	23	-0.471851642595	0.0034789216955	-0.331901336494	-0.427734375	0.52685546875	0.59033203125	-11.1875	23.875	29.625
19	01	14	15	25	23	-0.466281370019	0.00994814964832	-0.335185508396	-0.71142578125	0.50341796875	0.55859375	-11.875	24.1875	34.125
19	01	14	15	25	23	-0.458966595303	0.0160516242772	-0.337084109821	-0.4248046875	0.4716796875	0.65771484375	-14.625	39.75	36.375
19	01	14	15	25	23	-0.455785774686	0.0245347993337	-0.335553051584	-0.66650390625	0.30224609375	0.84326171875	-18.75	26.5	21.625
19	01	14	15	25	23	-0.455118296454	0.0252063640117	-0.332931514974	-0.3515625	0.37109375	1.162109375	5.625	6.3125	9.0625
19	01	14	15	25	23	-0.453648262019	0.0214221095074	-0.335368922346	-0.20654296875	0.501953125	1.12646484375	36.375	7.1875	10.1875
19	01	14	15	25	23	-0.450480895209	0.0261829432387	-0.345566024749	-0.6513671875	0.28515625	0.263671875	35.75	27.1875	17.75
19	01	14	15	25	23	-0.444940646027	0.0299068472638	-0.343196330948	-2.03369140625	0.32763671875	0.056640625	-29.5	21.9375	28.375
19	01	14	15	25	23	-0.44101540513	0.0410133341057	-0.343669768377	-0.27197265625	0.296875	0.3671875	-31.5625	56.3125	3.125
19	01	14	15	25	23	-0.44022011735	0.0536466772703	-0.338053407736	-0.47119140625	0.79638671875	0.93701171875	-71.8125	47.0	-22.125
19	01	14	15	25	23	-0.440714266704	0.0579196564329	-0.329513408937	-0.283203125	0.220703125	1.00048828125	-34.0	8.75	-2.125
19	01	14	15	25	23	-0.441153989279	0.0488272262621	-0.333550989403	-0.1494140625	0.76318359375	1.37353515625	52.9375	-5.125	-1.75
19	01	14	15	25	23	-0.437835132136	0.031674997711	-0.338843135436	0.494140625	1.078125	1.1669921875	52.375	-5.875	6.125
19	01	14	15	25	23	-0.432299628405	0.0134273497458	-0.338064046553	0.69287109375	0.814453125	0.95849609375	26.75	-19.6875	26.3125
19	01	14	15	25	23	-0.429420028976	0.00811723477172	-0.338482586797	-0.03759765625	0.763671875	0.7158203125	-1.25	-5.875	12.25
19	01	14	15	25	23	-0.426803716996	0.0140375882896	-0.335803525084	-0.634765625	0.50439453125	0.52880859375	-39.0	3.9375	20.625
19	01	14	15	25	23	-0.427596480903	0.0245352248534	-0.330798305237	-0.8525390625	0.38232421875	0.5830078125	-51.1875	3.0625	2.375
19	01	14	15	25	23	-0.426865550598	0.0304555204101	-0.324818195636	-0.53515625	0.3330078125	0.77001953125	-38.1875	3.4375	9.75
19	01	14	15	25	23	-0.425519251874	0.0321641775297	-0.32389998131	-0.4736328125	0.47119140625	0.84814453125	-6.0	1.75	11.875
19	01	14	15	25	23	-0.42332892616	0.0324088321498	-0.323844187169	-0.44921875	0.6357421875	0.78466796875	-9.9375	-1.9375	14.3125
19	01	14	15	25	23	-0.421130864583	0.0346670045048	-0.319266022121	-0.43896484375	0.5166015625	0.6962890625	-36.6875	-5.0	16.375
19	01	14	15	25	23	-0.419227117453	0.0381448461797	-0.315900358122	-0.41552734375	0.4091796875	0.650390625	-28.8125	3.8125	12.25
19	01	14	15	25	24	-0.418136648112	0.0412582650888	-0.313282063167	-0.451171875	0.421875	0.689453125	-22.5625	1.1875	8.3125
19	01	14	15	25	24	-0.41727583904	0.0434547897318	-0.31333832933	-0.4697265625	0.46044921875	0.67236328125	-8.0625	1.75	6.5
19	01	14	15	25	24	-0.41551217999	0.0455305649637	-0.313526155789	-0.41845703125	0.48388671875	0.67236328125	-9.5625	6.0625	9.6875
19	01	14	15	25	24	-0.415701214199	0.0598741581456	-0.317436795632	-1.20166015625	0.14892578125	0.03271484375	-17.625	14.3125	5.875
19	01	14	15	25	24	-0.413502524816	0.0758037100844	-0.32097561299	-1.03515625	0.19189453125	0.654296875	-6.75	51.5625	9.125
19	01	14	15	25	24	-0.410558003285	0.088983732539	-0.308086338722	-0.462890625	0.9169921875	0.57275390625	-112.5	34.625	-6.625
19	01	14	15	25	24	-0.419114906483	0.096493471261	-0.301076719627	-0.52685546875	-0.68408203125	0.779296875	18.375	-0.875	-28.9375
19	01	14	15	25	24	-0.425205534443	0.0925235524926	-0.316630732409	-0.6630859375	0.77490234375	1.10498046875	101.3125	11.4375	-34.625
19	01	14	15	25	24	-0.417576636111	0.0826364754889	-0.325175141362	0.296875	1.2705078125	1.119140625	26.1875	35.0	16.25
19	01	14	15	25	24	-0.414410031407	0.0734830158783	-0.31565959977	0.4130859375	0.36181640625	1.0703125	-21.3125	-11.9375	18.375
19	01	14	15	25	24	-0.415994040584	0.0645718449145	-0.318159761379	-0.146484375	0.65625	0.81005859375	27.1875	-26.9375	-5.1875
19	01	14	15	25	24	-0.416164653969	0.0649360891367	-0.320042153602	-0.7060546875	0.57373046875	0.68603515625	1.375	-14.6875	6.375
19	01	14	15	25	24	-0.415819236662	0.0678689257549	-0.318471272113	-0.6259765625	0.45751953125	0.57470703125	-21.375	-8.125	6.0
19	01	14	15	25	24	-0.414597249756	0.0695166005407	-0.316944430735	-0.49462890625	0.3271484375	0.65478515625	-10.0	-3.8125	12.5625
19	01	14	15	25	24	-0.413490824909	0.0701866344864	-0.319745893977	-0.51171875	0.39990234375	0.69482421875	14.375	2.8125	10.75
19	01	14	15	25	24	-0.411905774144	0.0705531300801	-0.322981976111	-0.49755859375	0.48828125	0.71240234375	12.75	4.3125	10.8125
19	01	14	15	25	24	-0.411725324097	0.0711028761596	-0.322434759443	-0.4453125	0.4755859375	0.79345703125	-3.25	-1.3125	2.6875
19	01	14	15	25	24	-0.41179692629	0.0711657352978	-0.321466490406	-0.4091796875	0.41845703125	0.80908203125	-0.9375	-2.875	2.625
19	01	14	15	25	24	-0.411408314086	0.070185367334	-0.323585058787	-0.4169921875	0.45556640625	0.75146484375	14.5625	-1.4375	5.4375
19	01	14	15	25	24	-0.410571659475	0.0695780722166	-0.326589705641	-0.42431640625	0.54150390625	0.67529296875	10.9375	1.25	4.75
19	01	14	15	25	24	-0.410015519538	0.0709196239511	-0.327194581757	-0.45849609375	0.509765625	0.6572265625	-5.125	2.0	2.4375
19	01	14	15	25	24	-0.409520658439	0.0723832341146	-0.326578993041	-0.44921875	0.451171875	0.7099609375	-7.3125	1.375	3.1875
19	01	14	15	25	24	-0.408862773105	0.0721414834766	-0.327383178823	-0.40283203125	0.47119140625	0.7646484375	4.875	0.875	5.3125
19	01	14	15	25	24	-0.408064553696	0.0712861798859	-0.328905157025	-0.392578125	0.501953125	0.77001953125	9.3125	0.5	5.9375
19	01	14	15	25	24	-0.407639413515	0.0711644791373	-0.32976130427	-0.4404296875	0.51708984375	0.7861328125	3.9375	0.0625	3.6875
19	01	14	15	25	24	-0.40715037071	0.0720798362777	-0.32969964062	-0.44873046875	0.48046875	0.7734375	-1.6875	2.0	3.5625
19	01	14	15	25	24	-0.406725425233	0.0728126399015	-0.329579426209	-0.40380859375	0.44482421875	0.77978515625	0.125	3.5	2.75
19	01	14	15	25	24	-0.406291217937	0.0730555186827	-0.331038540798	-0.4033203125	0.4921875	0.7470703125	7.0625	4.5625	2.0
19	01	14	15	25	24	-0.405508071809	0.0733015042508	-0.332511736185	-0.4345703125	0.5185546875	0.7109375	3.75	2.0	4.4375
19	01	14	15	25	24	-0.404453733721	0.0732374348069	-0.332497954023	-0.369140625	0.48681640625	0.71630859375	-2.1875	1.6875	6.0
19	01	14	15	25	24	-0.404338833576	0.0734218289497	-0.332870037483	-0.39453125	0.46728515625	0.72607421875	1.9375	0.625	1.3125
19	01	14	15	25	24	-0.403963728942	0.0730540238018	-0.334693622831	-0.41845703125	0.51953125	0.712890625	8.1875	0.6875	2.625
19	01	14	15	25	24	-0.402943502565	0.0724468248326	-0.335806596655	-0.37353515625	0.5595703125	0.7353515625	2.375	1.6875	4.625
19	01	14	15	25	24	-0.40244728947	0.0721402329623	-0.335738935301	-0.3740234375	0.51904296875	0.7490234375	-1.4375	-0.125	2.625
19	01	14	15	25	24	-0.402208634568	0.0715919162895	-0.335804538299	-0.37109375	0.4951171875	0.76220703125	2.1875	-0.9375	2.3125
19	01	14	15	25	24	-0.40233189764	0.0711648957293	-0.336049670571	-0.3779296875	0.484375	0.7451171875	3.25	-1.75	0.4375
19	01	14	15	25	24	-0.402384358072	0.0711023475131	-0.335737350789	-0.376953125	0.48828125	0.74169921875	-1.0	-1.0625	-0.1875
19	01	14	15	25	24	-0.402073050574	0.0715284783353	-0.334816750979	-0.3837890625	0.5068359375	0.75341796875	-6.875	0.3125	1.25
19	01	14	15	25	24	-0.40164299996	0.0723213728844	-0.333471714296	-0.39501953125	0.509765625	0.76708984375	-10.0625	1.375	1.625
19	01	14	15	25	24	-0.40165534567	0.0732390844558	-0.332566476	-0.4150390625	0.5048828125	0.796875	-5.9375	1.75	-0.75
19	01	14	15	25	24	-0.401902662493	0.0738499956896	-0.331958782278	-0.40185546875	0.49755859375	0.8203125	-2.125	1.9375	-1.8125
19	01	14	15	25	24	-0.402092083198	0.0740952928055	-0.331170559112	-0.37060546875	0.4951171875	0.82177734375	-2.375	1.4375	-2.0
19	01	14	15	25	24	-0.40225380209	0.0739692926921	-0.330176463254	-0.3203125	0.4853515625	0.7978515625	-3.3125	1.3125	-2.3125
19	01	14	15	25	24	-0.402267864343	0.0739108456561	-0.329150446427	-0.30810546875	0.4580078125	0.74951171875	-4.25	0.8125	-1.25
19	01	14	15	25	24	-0.402073663859	0.0737257112845	-0.328225890139	-0.3369140625	0.44873046875	0.72021484375	-3.875	-1.3125	1.4375
19	01	14	15	25	24	-0.401787121173	0.0727525821719	-0.328057994274	-0.3203125	0.45849609375	0.70654296875	0.3125	-2.8125	2.5625
19	01	14	15	25	24	-0.401468456986	0.0715294970489	-0.328474192079	-0.33203125	0.50732421875	0.7158203125	2.4375	-3.25	2.125
19	01	14	15	25	24	-0.401043669503	0.0703092843201	-0.328293090588	-0.34423828125	0.517578125	0.740234375	-1.125	-4.625	3.3125
19	01	14	15	25	24	-0.400435625775	0.0688448995389	-0.326952240097	-0.3203125	0.501953125	0.80078125	-4.4375	-5.1875	5.375
19	01	14	15	25	24	-0.399643433134	0.0673192893627	-0.326159820811	-0.3115234375	0.498046875	0.82080078125	-0.375	-3.5625	5.9375
19	01	14	15	25	25	-0.39920300708	0.065791292101	-0.325965947228	-0.3193359375	0.4990234375	0.82958984375	3.75	-2.9375	3.9375
19	01	14	15	25	25	-0.398529364279	0.0646923623485	-0.325903032963	-0.33251953125	0.52978515625	0.83154296875	1.5625	-1.125	4.375
19	01	14	15	25	25	-0.397557148637	0.063838621043	-0.324991067929	-0.2998046875	0.5166015625	0.80908203125	-4.125	-0.375	5.0
19	01	14	15	25	25	-0.397191331383	0.0634114617866	-0.323587651966	-0.34033203125	0.51171875	0.828125	-6.3125	-2.25	2.5625
19	01	14	15	25	25	-0.39690625902	0.0631094989737	-0.322749546009	-0.35791015625	0.51513671875	0.8212890625	-3.6875	-1.6875	2.375
19	01	14	15	25	25	-0.396598693972	0.0627429143433	-0.322564496405	-0.34228515625	0.49658203125	0.8212890625	0.875	0.3125	2.0
19	01	14	15	25	25	-0.396232741116	0.0620105460526	-0.322991938691	-0.31689453125	0.49609375	0.8125	5.1875	1.25	2.0625
19	01	14	15	25	25	-0.396225048291	0.0611548826845	-0.323046700648	-0.31298828125	0.48388671875	0.802734375	3.8125	-1.125	0.4375
19	01	14	15	25	25	-0.395728085777	0.0601770346355	-0.322917535757	-0.29248046875	0.50439453125	0.78173828125	0.875	-0.625	2.625
19	01	14	15	25	25	-0.395011093581	0.0594469723653	-0.32286907989	-0.28955078125	0.50439453125	0.75	-0.875	0.3125	3.4375
19	01	14	15	25	25	-0.394401930417	0.0585926730424	-0.323114178215	-0.3037109375	0.51123046875	0.7490234375	0.9375	-0.375	3.0625
19	01	14	15	25	25	-0.393957059218	0.0578576750021	-0.323404873245	-0.32373046875	0.490234375	0.74560546875	2.4375	-1.6875	3.3125
19	01	14	15	25	25	-0.393285748581	0.0563929285675	-0.323832120107	-0.29150390625	0.5068359375	0.79296875	5.25	-1.5625	4.75
19	01	14	15	25	25	-0.392070265224	0.0554781866576	-0.323653271557	-0.283203125	0.541015625	0.81103515625	-1.0	1.5625	6.0
19	01	14	15	25	25	-0.391039437229	0.0551739739746	-0.322316102389	-0.27734375	0.53759765625	0.84228515625	-7.6875	2.3125	4.125
19	01	14	15	25	25	-0.390427670934	0.0554789358885	-0.32072806171	-0.2939453125	0.52734375	0.8515625	-9.125	3.375	1.75
19	01	14	15	25	25	-0.390166323606	0.0561478206973	-0.319554336055	-0.3447265625	0.51611328125	0.86083984375	-6.3125	2.5625	0.4375
19	01	14	15	25	25	-0.389683727873	0.0556603852498	-0.318216281461	-0.314453125	0.51806640625	0.8828125	-4.4375	-0.6875	3.125
19	01	14	15	25	25	-0.389089588035	0.0541368571902	-0.317619171159	-0.2724609375	0.5341796875	0.85986328125	-0.125	-2.4375	3.625
19	01	14	15	25	25	-0.389452490278	0.0521833379075	-0.317189248076	-0.3046875	0.5078125	0.8125	2.5	-9.25	0.6875
19	01	14	15	25	25	-0.389750630614	0.0491918271648	-0.316512178259	-0.27783203125	0.51171875	0.8134765625	3.4375	-13.5	2.4375
19	01	14	15	25	25	-0.389556975953	0.045711761709	-0.316503599764	-0.259765625	0.5283203125	0.8115234375	6.8125	-12.8125	4.9375
19	01	14	15	25	25	-0.389451941904	0.0419907437753	-0.316212272529	-0.25830078125	0.529296875	0.796875	5.25	-15.6875	5.5625
19	01	14	15	25	25	-0.389878497985	0.037779397347	-0.315052098716	-0.2451171875	0.5029296875	0.81103515625	3.875	-20.125	3.9375
19	01	14	15	25	25	-0.390788226303	0.0328352437531	-0.314009905408	-0.25732421875	0.4814453125	0.8427734375	9.625	-25.0625	3.4375
19	01	14	15	25	25	-0.391834340281	0.0264884896701	-0.313589538998	-0.2236328125	0.5078125	0.8359375	14.375	-29.6875	3.75
19	01	14	15	25	25	-0.393284993418	0.0200182305774	-0.31418857016	-0.20849609375	0.5283203125	0.81640625	19.625	-29.0	0.1875
19	01	14	15	25	25	-0.394813197483	0.0138541653777	-0.314434625666	-0.240234375	0.544921875	0.818359375	16.125	-30.4375	0.75
19	01	14	15	25	25	-0.396344767217	0.00732389468217	-0.31553779589	-0.27490234375	0.54296875	0.8095703125	22.3125	-33.0	1.9375
19	01	14	15	25	25	-0.397146810183	-0.000122067561144	-0.319206672392	-0.2861328125	0.58935546875	0.7607421875	34.25	-32.3125	6.5
19	01	14	15	25	25	-0.39573740415	-0.00872770647648	-0.322986172542	-0.3037109375	0.6865234375	0.7998046875	33.1875	-34.625	21.125
19	01	14	15	25	25	-0.392505048851	-0.0189813512972	-0.327260468347	-0.2744140625	0.8056640625	0.833984375	34.125	-37.0	32.1875
19	01	14	15	25	25	-0.389748202524	-0.0291121034457	-0.328106222482	-0.296875	0.75341796875	0.87841796875	21.0	-46.5	35.25
19	01	14	15	25	25	-0.385355429928	-0.0423561400649	-0.327680282433	-0.24609375	0.65185546875	0.931640625	28.3125	-59.3125	52.125
19	01	14	15	25	25	-0.378394478712	-0.0591393951406	-0.330790012035	-0.16015625	0.69287109375	0.89306640625	53.375	-62.1875	66.8125
19	01	14	15	25	25	-0.369248933784	-0.0784882857598	-0.334948454315	-0.13916015625	0.8095703125	0.85986328125	58.9375	-69.75	82.125
19	01	14	15	25	25	-0.357957268658	-0.0991782713674	-0.334947909701	-0.0712890625	0.85791015625	0.83203125	41.9375	-79.4375	100.75
19	01	14	15	25	25	-0.344951516659	-0.121148046809	-0.331585560864	0.0517578125	0.8291015625	0.81884765625	26.9375	-88.0625	115.625
19	01	14	15	25	25	-0.329818177934	-0.144036065863	-0.326705534138	0.193359375	0.810546875	0.77880859375	21.9375	-90.1875	128.625
19	01	14	15	25	25	-0.313402386656	-0.167778609721	-0.320665265723	0.28662109375	0.80712890625	0.74462890625	19.0625	-93.5625	137.4375
19	01	14	15	25	25	-0.296065137912	-0.19151770826	-0.313581257182	0.37744140625	0.7958984375	0.7001953125	14.5625	-94.3125	141.9375
19	01	14	15	25	25	-0.278438961412	-0.214352834826	-0.304744790515	0.4423828125	0.783203125	0.70361328125	5.3125	-91.8125	143.6875
19	01	14	15	25	25	-0.261088432562	-0.23551665761	-0.296730238222	0.47412109375	0.79736328125	0.66552734375	7.25	-83.8125	137.1875
19	01	14	15	25	25	-0.24522389363	-0.25511096948	-0.288617170974	0.44775390625	0.76953125	0.59912109375	3.8125	-80.1875	126.9375
19	01	14	15	25	25	-0.230029753158	-0.272874244195	-0.278061967468	0.4501953125	0.76220703125	0.60302734375	-12.9375	-75.5625	125.0625
19	01	14	15	25	25	-0.215936762353	-0.288261540021	-0.264824650043	0.53466796875	0.64697265625	0.62060546875	-31.0625	-67.4375	119.875
19	01	14	15	25	25	-0.203113131829	-0.301435023468	-0.253342130475	0.591796875	0.56787109375	0.6015625	-25.25	-56.5625	105.3125
19	01	14	15	25	25	-0.191519174629	-0.31217991658	-0.244861353924	0.60009765625	0.541015625	0.55615234375	-17.4375	-35.625	85.375
19	01	14	15	25	25	-0.182298524316	-0.318579945407	-0.241254123409	0.56640625	0.5595703125	0.51953125	-2.75	-13.4375	60.875
19	01	14	15	25	26	-0.175647767733	-0.319681378522	-0.241744547599	0.45166015625	0.5625	0.52880859375	8.1875	8.8125	37.5625
19	01	14	15	25	26	-0.170037373198	-0.3153564635	-0.245412877827	0.32373046875	0.48876953125	0.5830078125	21.6875	32.1875	21.8125
19	01	14	15	25	26	-0.165215780675	-0.306567737838	-0.249929302498	0.1533203125	0.3984375	0.60693359375	24.0	49.0	14.125
19	01	14	15	25	26	-0.162653081198	-0.297353024989	-0.256460880748	0.1044921875	0.4072265625	0.5556640625	29.3125	47.6875	-0.9375
19	01	14	15	25	26	-0.164546363541	-0.285453761974	-0.260307952709	0.099609375	0.39697265625	0.5107421875	2.8125	55.9375	-23.9375
19	01	14	15	25	26	-0.172784248121	-0.271291410419	-0.258413460453	0.00732421875	0.35498046875	0.72509765625	-30.9375	44.875	-47.6875
19	01	14	15	25	26	-0.183761785366	-0.256570755789	-0.255228092462	0.0732421875	0.330078125	0.8876953125	-35.1875	42.5625	-65.5
19	01	14	15	25	26	-0.189932188125	-0.239734458534	-0.257983084578	0.06494140625	0.39453125	0.74365234375	-7.5	71.0625	-51.625
19	01	14	15	25	26	-0.194328652722	-0.221793443465	-0.259206591744	-0.4052734375	0.52880859375	0.66162109375	-26.1875	57.6875	-20.375
19	01	14	15	25	26	-0.199880410082	-0.210316913936	-0.251452607492	-0.2568359375	0.43115234375	0.87939453125	-56.0625	16.5	-13.4375
19	01	14	15	25	26	-0.202012327641	-0.205918306182	-0.249189224701	0.18994140625	0.52685546875	0.81982421875	-19.375	13.6875	-10.5
19	01	14	15	25	26	-0.201951371197	-0.199998381206	-0.24656498629	0.0615234375	0.58203125	0.71533203125	-29.1875	20.5625	6.0
19	01	14	15	25	26	-0.202073946776	-0.196764241741	-0.246992830746	0.1650390625	0.48876953125	0.7177734375	-2.8125	13.875	-2.1875
19	01	14	15	25	26	-0.204090853228	-0.192494782022	-0.248644179441	0.03759765625	0.5849609375	0.60302734375	-8.4375	13.3125	-9.4375
19	01	14	15	25	26	-0.206169874729	-0.187982005378	-0.248038594109	-0.0908203125	0.53857421875	0.6591796875	-17.625	4.25	-3.3125
19	01	14	15	25	26	-0.205555319208	-0.187428855489	-0.24675182766	0.10791015625	0.54248046875	0.7734375	-9.375	-4.25	9.875
19	01	14	15	25	26	-0.203541939045	-0.189687660136	-0.245532000233	0.30615234375	0.6162109375	0.83837890625	-5.4375	-7.75	14.9375
19	01	14	15	25	26	-0.202079800653	-0.191582148671	-0.246145525833	0.38671875	0.65966796875	0.7646484375	-1.5625	0.5	6.75
19	01	14	15	25	26	-0.202571619531	-0.191219308223	-0.244807100313	0.2646484375	0.62548828125	0.77685546875	-14.9375	1.0625	0.125
19	01	14	15	25	26	-0.202505251209	-0.190054657102	-0.245166845722	0.2578125	0.59130859375	0.7626953125	-4.625	7.875	-0.75
19	01	14	15	25	26	-0.201887960986	-0.18864440369	-0.245036325078	0.22802734375	0.55224609375	0.7275390625	-6.625	8.9375	3.3125
19	01	14	15	25	26	-0.20165589759	-0.187312938773	-0.245112011115	0.21142578125	0.55224609375	0.7568359375	-4.5	6.5	1.1875
19	01	14	15	25	26	-0.201103912384	-0.185845648925	-0.245108744198	0.1884765625	0.51513671875	0.7255859375	-4.0	7.0	3.3125
19	01	14	15	25	26	-0.199816566685	-0.185413173363	-0.244735623827	0.2412109375	0.53662109375	0.7021484375	-6.5	5.6875	7.625
19	01	14	15	25	26	-0.199453593772	-0.184317580536	-0.245105762726	0.1708984375	0.529296875	0.7490234375	-1.5625	3.9375	3.1875
19	01	14	15	25	26	-0.198535884222	-0.1844986099	-0.246445711802	0.18603515625	0.59228515625	0.7158203125	1.625	0.0625	6.375
19	01	14	15	25	26	-0.19805062006	-0.185294817412	-0.246876658904	0.17041015625	0.57861328125	0.78564453125	0.5625	-7.25	6.9375
19	01	14	15	25	26	-0.19658227317	-0.187732714148	-0.248336935588	0.23193359375	0.55908203125	0.7890625	10.9375	-10.625	10.0625
19	01	14	15	25	26	-0.195243687558	-0.190422102276	-0.250234172863	0.1953125	0.54052734375	0.8193359375	16.125	-15.0625	10.4375
19	01	14	15	25	26	-0.193104562808	-0.194020039559	-0.252793647013	0.25	0.5439453125	0.84716796875	23.0	-15.6875	13.0
19	01	14	15	25	26	-0.190242313886	-0.197261199384	-0.255243296975	0.31884765625	0.51025390625	0.74560546875	21.25	-7.6875	13.6875
19	01	14	15	25	26	-0.18816253275	-0.198599053379	-0.257373143239	0.2333984375	0.4833984375	0.7314453125	17.5	-3.125	10.3125
19	01	14	15	25	26	-0.186388020185	-0.199631700729	-0.259258778568	0.24609375	0.52978515625	0.7666015625	14.25	-2.6875	8.9375
19	01	14	15	25	26	-0.184259528751	-0.20110471919	-0.259940819129	0.3125	0.55029296875	0.76123046875	7.1875	-1.4375	10.8125
19	01	14	15	25	26	-0.181751600383	-0.202075066779	-0.259749768713	0.2763671875	0.5361328125	0.7626953125	2.4375	-1.25	15.4375
19	01	14	15	25	26	-0.178153065573	-0.20415279354	-0.260790698593	0.283203125	0.55419921875	0.68701171875	8.3125	-2.6875	20.875
19	01	14	15	25	26	-0.174553111949	-0.206778301847	-0.263294449282	0.22802734375	0.529296875	0.64306640625	17.5625	-7.5625	21.1875
19	01	14	15	25	26	-0.171011141922	-0.210071502676	-0.266464898513	0.166015625	0.48583984375	0.62060546875	24.1875	-14.1875	22.5625
19	01	14	15	25	26	-0.167534831304	-0.214713128061	-0.270191875477	0.208984375	0.53173828125	0.6220703125	27.0	-19.5625	22.375
19	01	14	15	25	26	-0.165092816611	-0.21953377499	-0.272204791898	0.2666015625	0.56591796875	0.673828125	17.5625	-22.25	18.5625
19	01	14	15	25	26	-0.163379224941	-0.223372418112	-0.274943372566	0.21484375	0.52197265625	0.66552734375	22.0	-20.75	13.1875
19	01	14	15	25	26	-0.162167700995	-0.227169056493	-0.278681867799	0.1689453125	0.52001953125	0.6982421875	29.3125	-24.1875	10.75
19	01	14	15	25	26	-0.16045408722	-0.232472277756	-0.283190172956	0.248046875	0.5849609375	0.75048828125	36.0	-29.125	12.8125
19	01	14	15	25	26	-0.158864945268	-0.238633091048	-0.28648177222	0.35107421875	0.63623046875	0.736328125	27.625	-29.75	12.25
19	01	14	15	25	26	-0.159357400914	-0.244803728481	-0.287343792992	0.39208984375	0.56298828125	0.76513671875	16.6875	-34.5	2.125
19	01	14	15	25	26	-0.160639307656	-0.250724268941	-0.290212730967	0.4501953125	0.5439453125	0.7236328125	27.1875	-30.4375	-8.9375
19	01	14	15	25	26	-0.162037658532	-0.255049105463	-0.295451715613	0.37939453125	0.58837890625	0.68701171875	35.4375	-23.875	-11.75
19	01	14	15	25	26	-0.163015793077	-0.259262856231	-0.301252697353	0.40966796875	0.5986328125	0.6689453125	39.125	-20.5	-12.0625
19	01	14	15	25	26	-0.163438540159	-0.262124171017	-0.306432005279	0.44384765625	0.5771484375	0.6103515625	33.25	-9.4375	-12.125
19	01	14	15	25	26	-0.166067700484	-0.263718682026	-0.310530121302	0.365234375	0.53173828125	0.595703125	24.6875	-10.75	-22.0
19	01	14	15	25	27	-0.169727288285	-0.264569505471	-0.314187731065	0.4482421875	0.60693359375	0.57373046875	16.25	-4.875	-29.8125
19	01	14	15	25	27	-0.173821429614	-0.263295522246	-0.316760259725	0.44580078125	0.75146484375	0.6015625	0.75	5.25	-30.25
19	01	14	15	25	27	-0.17827049903	-0.259563311323	-0.316077683833	0.40869140625	0.76953125	0.642578125	-20.75	14.4375	-28.0
19	01	14	15	25	27	-0.180535453132	-0.256521470423	-0.314929999378	0.45361328125	0.78955078125	0.7080078125	-18.5625	15.5	-16.4375
19	01	14	15	25	27	-0.18163243758	-0.25413893484	-0.313645529813	0.4306640625	0.8125	0.72607421875	-17.4375	13.4375	-7.3125
19	01	14	15	25	27	-0.181691456877	-0.253464770041	-0.311383880749	0.41943359375	0.73486328125	0.716796875	-16.625	5.1875	1.1875
19	01	14	15	25	27	-0.18145401568	-0.254023415157	-0.309381232924	0.40283203125	0.6572265625	0.6982421875	-10.0	-1.5625	3.1875
19	01	14	15	25	27	-0.180894028556	-0.254557689983	-0.309423996215	0.3798828125	0.62353515625	0.65478515625	1.75	0.625	1.4375
19	01	14	15	25	27	-0.180839265216	-0.253406894761	-0.310838467008	0.34130859375	0.640625	0.6220703125	4.375	8.4375	-4.0625
19	01	14	15	25	27	-0.182364529927	-0.250476583274	-0.311447856834	0.2744140625	0.64794921875	0.6376953125	-4.75	11.625	-10.9375
19	01	14	15	25	27	-0.184749552133	-0.246576871694	-0.309380733321	0.26708984375	0.59033203125	0.66796875	-18.4375	12.75	-13.5
19	01	14	15	25	27	-0.187428471507	-0.242173941693	-0.307783061481	0.232421875	0.587890625	0.71435546875	-15.0625	13.3125	-15.1875
19	01	14	15	25	27	-0.189505785137	-0.238209687404	-0.307786690642	0.1953125	0.64892578125	0.71044921875	-7.8125	11.625	-11.8125
19	01	14	15	25	27	-0.190479869389	-0.235704343345	-0.307538629237	0.19921875	0.65478515625	0.72021484375	-5.875	5.875	-3.625
19	01	14	15	25	27	-0.190364877144	-0.234797589732	-0.307489019254	0.25048828125	0.63671875	0.71435546875	-0.75	2.0	1.9375
19	01	14	15	25	27	-0.18992957438	-0.234055243492	-0.307720088054	0.2880859375	0.60009765625	0.6962890625	2.5	4.25	0.8125
19	01	14	15	25	27	-0.189925372947	-0.232768435867	-0.308933881059	0.271484375	0.6552734375	0.68115234375	3.5625	6.75	-2.5
19	01	14	15	25	27	-0.190911221717	-0.230399572245	-0.3094373063	0.19873046875	0.650390625	0.65380859375	-4.1875	7.5625	-5.1875
19	01	14	15	25	27	-0.191455988653	-0.228135953327	-0.308880700852	0.16015625	0.57080078125	0.64013671875	-6.375	5.75	-0.75
19	01	14	15	25	27	-0.190966878002	-0.226548114779	-0.30875725018	0.2138671875	0.54296875	0.6767578125	0.8125	6.375	1.6875
19	01	14	15	25	27	-0.190179623059	-0.225395811283	-0.310354102457	0.2705078125	0.6484375	0.67626953125	6.75	8.75	0.8125
19	01	14	15	25	27	-0.190723792923	-0.223314674658	-0.310528850686	0.201171875	0.6669921875	0.658203125	-5.75	7.0	-2.1875
19	01	14	15	25	27	-0.191089740244	-0.221971697626	-0.309490920721	0.19384765625	0.61865234375	0.67919921875	-8.5625	2.0625	1.25
19	01	14	15	25	27	-0.190179906432	-0.221490012979	-0.308889764587	0.2490234375	0.5908203125	0.7255859375	-0.3125	2.0625	5.625
19	01	14	15	25	27	-0.188592475662	-0.221428317703	-0.311513267243	0.2529296875	0.60693359375	0.6484375	15.9375	5.0	4.6875
19	01	14	15	25	27	-0.188041527605	-0.220205722687	-0.314318035432	0.18212890625	0.67919921875	0.66162109375	11.4375	5.5625	1.5
19	01	14	15	25	27	-0.188037578585	-0.21922459665	-0.315409998743	0.2216796875	0.685546875	0.66259765625	1.125	4.1875	0.0625
19	01	14	15	25	27	-0.18822419149	-0.218252175346	-0.315049700541	0.21142578125	0.6201171875	0.650390625	-4.75	2.5625	0.3125
19	01	14	15	25	27	-0.187861519977	-0.217767999766	-0.315726979481	0.17724609375	0.587890625	0.63037109375	3.375	0.4375	3.3125
19	01	14	15	25	27	-0.187121733056	-0.217820438772	-0.319010208311	0.14990234375	0.5859375	0.60693359375	18.75	-0.875	3.0
19	01	14	15	25	27	-0.186391794243	-0.218677733718	-0.323957971134	0.15087890625	0.66162109375	0.56201171875	24.875	-3.4375	2.75
19	01	14	15	25	27	-0.186511529539	-0.219773566056	-0.327066520549	0.1630859375	0.64013671875	0.5888671875	16.375	-7.875	0.6875
19	01	14	15	25	27	-0.186881649056	-0.220815743398	-0.328782313346	0.15625	0.6201171875	0.658203125	12.375	-10.6875	1.4375
19	01	14	15	25	27	-0.186331455943	-0.223011837542	-0.330123434391	0.2587890625	0.62744140625	0.6806640625	14.0625	-11.0	3.9375
19	01	14	15	25	27	-0.185721695198	-0.224294193181	-0.330917854539	0.3134765625	0.63232421875	0.73779296875	11.9375	-4.6875	1.5
19	01	14	15	25	27	-0.185172862332	-0.224477846954	-0.333237913097	0.31884765625	0.7109375	0.76318359375	16.875	1.9375	-1.75
19	01	14	15	25	27	-0.185599326137	-0.223988663901	-0.333175508511	0.33544921875	0.74365234375	0.79736328125	1.1875	2.25	-4.5625
19	01	14	15	25	27	-0.186082818777	-0.223067465606	-0.332434606061	0.3095703125	0.71044921875	0.78955078125	-2.4375	2.625	-3.875
19	01	14	15	25	27	-0.185841544179	-0.222033345722	-0.33091390888	0.28955078125	0.669921875	0.81298828125	-3.6875	3.5	1.125
19	01	14	15	25	27	-0.184315249323	-0.222276866899	-0.331279196466	0.31884765625	0.64501953125	0.72705078125	7.5	3.3125	5.3125
19	01	14	15	25	27	-0.182974209927	-0.222034748404	-0.331831480779	0.26904296875	0.67578125	0.705078125	5.25	3.6875	6.3125
19	01	14	15	25	27	-0.181692678811	-0.222095955054	-0.331831741585	0.28271484375	0.68359375	0.63330078125	-1.5625	3.4375	6.6875
19	01	14	15	25	27	-0.180597439673	-0.221611795693	-0.330556178868	0.24658203125	0.61474609375	0.60400390625	-7.9375	4.4375	7.625
19	01	14	15	25	27	-0.179186608366	-0.221053779121	-0.330299020598	0.25439453125	0.64697265625	0.62255859375	-2.9375	5.8125	7.5
19	01	14	15	25	27	-0.178401625974	-0.22106421118	-0.33159631677	0.2724609375	0.68603515625	0.5625	2.25	4.4375	2.625
19	01	14	15	25	27	-0.177968607594	-0.220263616189	-0.332439988191	0.17431640625	0.6787109375	0.5908203125	-0.1875	2.4375	4.5
19	01	14	15	25	27	-0.177239353862	-0.22020646995	-0.333483412363	0.193359375	0.671875	0.6484375	5.125	-0.8125	6.0
19	01	14	15	25	27	-0.176200422915	-0.220876110332	-0.335250752709	0.2412109375	0.642578125	0.65087890625	12.6875	-1.8125	4.9375
19	01	14	15	25	27	-0.175227441267	-0.220758500544	-0.338553332187	0.21142578125	0.666015625	0.67333984375	21.125	1.1875	2.4375
19	01	14	15	25	27	-0.17461381246	-0.220815369969	-0.341293407647	0.259765625	0.7197265625	0.701171875	16.875	1.0	0.25
19	01	14	15	25	28	-0.174124016722	-0.220813421837	-0.342205875136	0.27880859375	0.65625	0.70556640625	8.875	1.0	0.125
19	01	14	15	25	28	-0.172965217863	-0.220936516819	-0.343977405743	0.2900390625	0.65625	0.6826171875	14.1875	3.0625	2.375
19	01	14	15	25	28	-0.171867703465	-0.220449625325	-0.345932579275	0.26513671875	0.6298828125	0.6669921875	14.875	5.6875	0.8125
19	01	14	15	25	28	-0.171072373188	-0.219775817284	-0.347881743549	0.25244140625	0.66552734375	0.65576171875	12.5	5.375	0.3125
19	01	14	15	25	28	-0.171322196687	-0.218623480062	-0.348564683036	0.24755859375	0.716796875	0.66943359375	1.875	4.75	-2.8125
19	01	14	15	25	28	-0.171745245851	-0.21776369481	-0.346908307539	0.25927734375	0.669921875	0.70166015625	-8.375	1.6875	-1.125
19	01	14	15	25	28	-0.171194002698	-0.217944307892	-0.345988877468	0.3056640625	0.66064453125	0.69384765625	-1.6875	0.8125	2.4375
19	01	14	15	25	28	-0.170283929364	-0.218561559516	-0.345816754041	0.29296875	0.7138671875	0.72412109375	2.4375	-1.6875	5.4375
19	01	14	15	25	28	-0.169421382188	-0.219527633909	-0.345739239948	0.32763671875	0.712890625	0.6943359375	2.1875	-1.6875	4.125
19	01	14	15	25	28	-0.169726844168	-0.219283909059	-0.345739867749	0.287109375	0.69580078125	0.69775390625	0.8125	0.625	-2.4375
19	01	14	15	25	28	-0.170282691172	-0.21849893706	-0.345081840821	0.27783203125	0.7314453125	0.71435546875	-4.9375	1.75	-2.8125
19	01	14	15	25	28	-0.170401810789	-0.217579676025	-0.342939747429	0.32568359375	0.69873046875	0.6943359375	-13.1875	5.875	-1.3125
19	01	14	15	25	28	-0.17021915654	-0.215627206904	-0.341536894944	0.23779296875	0.65234375	0.67578125	-9.375	8.5625	0.8125
19	01	14	15	25	28	-0.168991417466	-0.215007859781	-0.340546085035	0.29150390625	0.64208984375	0.64501953125	-5.125	7.125	5.5
19	01	14	15	25	28	-0.167899806205	-0.214345372371	-0.340438065798	0.2763671875	0.6279296875	0.6083984375	-1.125	7.375	3.4375
19	01	14	15	25	28	-0.167472463892	-0.213307675401	-0.340010603622	0.23828125	0.662109375	0.638671875	-4.6875	5.5625	2.1875
19	01	14	15	25	28	-0.167289160292	-0.212758122137	-0.338179218233	0.26318359375	0.6689453125	0.62451171875	-13.4375	3.375	3.1875
19	01	14	15	25	28	-0.167287770708	-0.21177984836	-0.336040301174	0.24365234375	0.64990234375	0.65478515625	-14.25	3.375	2.375
19	01	14	15	25	28	-0.167106151256	-0.211476557379	-0.334822624468	0.23583984375	0.68798828125	0.654296875	-9.375	0.5	4.1875
19	01	14	15	25	28	-0.166856667465	-0.211713891527	-0.333225093035	0.26123046875	0.68994140625	0.6953125	-9.5	-2.0	4.9375
19	01	14	15	25	28	-0.166063697465	-0.212263704441	-0.331272969438	0.33447265625	0.67041015625	0.72900390625	-8.375	-0.1875	5.3125
19	01	14	15	25	28	-0.165644779586	-0.211908133649	-0.330251990546	0.3330078125	0.68115234375	0.7275390625	-5.125	4.375	0.8125
19	01	14	15	25	28	-0.165889170449	-0.210809858252	-0.329153898539	0.30126953125	0.69775390625	0.7177734375	-8.8125	5.9375	-2.375
19	01	14	15	25	28	-0.166313520109	-0.209646584064	-0.326523791774	0.31005859375	0.662109375	0.72802734375	-16.0	5.3125	-1.9375
19	01	14	15	25	28	-0.166068470626	-0.208424780297	-0.324385858647	0.32470703125	0.609375	0.67919921875	-12.6875	9.375	-0.75
19	01	14	15	25	28	-0.165890738526	-0.205990155454	-0.322870495512	0.24951171875	0.6015625	0.66796875	-11.25	12.625	-1.1875
19	01	14	15	25	28	-0.165945906262	-0.203724691101	-0.321272251035	0.2431640625	0.638671875	0.65234375	-14.625	11.3125	-0.75
19	01	14	15	25	28	-0.166314555013	-0.201408451943	-0.318164321205	0.23486328125	0.64111328125	0.6474609375	-24.6875	10.375	0.0
19	01	14	15	25	28	-0.166614997863	-0.199327686088	-0.313761063741	0.21484375	0.58935546875	0.65869140625	-29.125	7.0625	2.5625
19	01	14	15	25	28	-0.166616291224	-0.197742411562	-0.309918507998	0.22314453125	0.59619140625	0.66845703125	-25.3125	5.875	4.0
19	01	14	15	25	28	-0.166310818484	-0.196643470515	-0.30662222094	0.25341796875	0.62451171875	0.69775390625	-22.375	5.375	4.8125
19	01	14	15	25	28	-0.166495356722	-0.195485567295	-0.303573278716	0.24169921875	0.6650390625	0.72314453125	-22.125	3.6875	3.0
19	01	14	15	25	28	-0.166431433937	-0.19389536693	-0.299478931547	0.240234375	0.62109375	0.7509765625	-26.25	5.375	4.625
19	01	14	15	25	28	-0.166437885512	-0.192743249888	-0.295584407603	0.2451171875	0.654296875	0.75927734375	-26.1875	3.25	5.0625
19	01	14	15	25	28	-0.166862322062	-0.19115317948	-0.29106306288	0.25390625	0.66357421875	0.77685546875	-31.3125	4.75	2.875
19	01	14	15	25	28	-0.166678534433	-0.189077297573	-0.286301356655	0.2265625	0.62744140625	0.779296875	-31.625	7.0625	6.25
19	01	14	15	25	28	-0.165943283899	-0.187182071247	-0.281474963348	0.25732421875	0.58984375	0.73974609375	-31.4375	9.875	7.875
19	01	14	15	25	28	-0.164966417101	-0.18455732346	-0.277324232078	0.228515625	0.53271484375	0.70556640625	-27.5	13.3125	7.4375
19	01	14	15	25	28	-0.164114068325	-0.181141894678	-0.274093075809	0.10888671875	0.54638671875	0.6689453125	-25.6875	12.8125	9.125
19	01	14	15	25	28	-0.163256566672	-0.178575220217	-0.27073126346	0.13427734375	0.5693359375	0.65966796875	-27.375	9.875	10.25
19	01	14	15	25	28	-0.161858240991	-0.176383980567	-0.265918686273	0.16357421875	0.55419921875	0.681640625	-34.25	9.0	13.75
19	01	14	15	25	28	-0.160274396425	-0.175044542631	-0.261224073382	0.1865234375	0.52392578125	0.71142578125	-29.625	5.375	14.875
19	01	14	15	25	28	-0.158499291862	-0.174367530554	-0.257370625252	0.166015625	0.5263671875	0.73095703125	-24.0	1.0	16.375
19	01	14	15	25	28	-0.15667248708	-0.174250078151	-0.253105104761	0.16943359375	0.56103515625	0.78515625	-26.3125	-3.0	19.0
19	01	14	15	25	28	-0.154049806179	-0.174984466844	-0.249384908101	0.23876953125	0.5615234375	0.7900390625	-21.875	-2.6875	21.0
19	01	14	15	25	28	-0.151121055101	-0.17492445231	-0.246578781344	0.2080078125	0.5537109375	0.744140625	-18.5625	1.8125	21.8125
19	01	14	15	25	28	-0.148125134596	-0.174552074555	-0.245288387286	0.17822265625	0.5712890625	0.75146484375	-11.25	2.875	21.5625
19	01	14	15	25	28	-0.14470975121	-0.174371893381	-0.243400458804	0.208984375	0.56201171875	0.71484375	-15.625	4.25	23.75
19	01	14	15	25	28	-0.140498278336	-0.173822370418	-0.242240515516	0.181640625	0.4677734375	0.67919921875	-6.5625	7.0625	25.9375
19	01	14	15	25	28	-0.135005356473	-0.174249680258	-0.244804016643	0.14892578125	0.5205078125	0.67041015625	13.5	3.5	32.0625
19	01	14	15	25	28	-0.128960531413	-0.176504428228	-0.247911821391	0.22998046875	0.55712890625	0.68701171875	17.8125	-1.8125	34.8125
19	01	14	15	25	29	-0.122738448311	-0.179743774379	-0.251641284131	0.29443359375	0.5615234375	0.69873046875	23.6875	-3.5625	34.3125
19	01	14	15	25	29	-0.114558656066	-0.182671314654	-0.257253455151	0.26171875	0.5859375	0.72900390625	36.25	-0.9375	43.6875
19	01	14	15	25	29	-0.103202357064	-0.186997056206	-0.267374054582	0.283203125	0.7197265625	0.7939453125	62.9375	-3.75	59.875
19	01	14	15	25	29	-0.0889848505378	-0.192678445232	-0.278611689098	0.33544921875	0.876953125	0.734375	64.75	-3.625	77.4375
19	01	14	15	25	29	-0.0765358978273	-0.199396154866	-0.285026030984	0.34912109375	0.998046875	0.65478515625	27.75	-12.3125	78.5
19	01	14	15	25	29	-0.0657915249067	-0.206834395092	-0.282512958064	0.39111328125	0.7333984375	0.76806640625	-7.0625	-21.4375	75.375
19	01	14	15	25	29	-0.0540760564942	-0.214961479653	-0.278558828261	0.521484375	0.57373046875	0.86474609375	-1.9375	-20.9375	75.5625
19	01	14	15	25	29	-0.0397936101706	-0.221123082283	-0.275137415106	0.6044921875	0.5146484375	0.8330078125	4.75	-1.8125	82.3125
19	01	14	15	25	29	-0.0242913573014	-0.22594624304	-0.272575883689	0.54052734375	0.4541015625	0.73046875	9.4375	5.9375	86.8125
19	01	14	15	25	29	-0.0111691255722	-0.228936557494	-0.271354821279	0.58154296875	0.58203125	0.74169921875	7.1875	12.75	73.0625
19	01	14	15	25	29	-0.000122063495953	-0.227465324709	-0.26634254817	0.51318359375	0.67626953125	0.65576171875	-28.625	34.375	65.9375
19	01	14	15	25	29	0.0104367284829	-0.222894341636	-0.254814862083	0.41357421875	0.5224609375	0.6591796875	-60.9375	49.0625	66.25
19	01	14	15	25	29	0.0216061716105	-0.216794128702	-0.242062363297	0.3447265625	0.39990234375	0.68359375	-61.375	54.6875	68.25
19	01	14	15	25	29	0.0324079375462	-0.209766631537	-0.231188827542	0.3466796875	0.43505859375	0.70947265625	-53.5	58.1875	64.25
19	01	14	15	25	29	0.0417453182478	-0.201158726527	-0.219773232471	0.2763671875	0.41650390625	0.7353515625	-58.1875	61.8125	56.3125
19	01	14	15	25	29	0.0498636330322	-0.191581326913	-0.206778443957	0.22802734375	0.33203125	0.76220703125	-64.375	63.3125	49.1875
19	01	14	15	25	29	0.0566378473529	-0.181326556557	-0.194082278644	0.1767578125	0.29736328125	0.810546875	-62.25	62.375	41.1875
19	01	14	15	25	29	0.0628006235024	-0.17070295815	-0.182481889477	0.080078125	0.2294921875	0.8046875	-53.8125	58.375	36.9375
19	01	14	15	25	29	0.0692741049239	-0.160703716533	-0.172788538361	0.01953125	0.19677734375	0.87060546875	-39.8125	49.4375	37.875
19	01	14	15	25	29	0.0770238728907	-0.151972617669	-0.166437481278	0.0830078125	0.20458984375	0.8193359375	-22.125	47.3125	42.5
19	01	14	15	25	29	0.084590538349	-0.143303451691	-0.159721095858	0.09326171875	0.24609375	0.80322265625	-28.25	48.4375	42.375
19	01	14	15	25	29	0.0901464481229	-0.135555356317	-0.149593056431	0.09375	0.2138671875	0.85205078125	-47.9375	43.6875	33.8125
19	01	14	15	25	29	0.0938062400508	-0.12993720564	-0.135918345213	0.0810546875	0.02734375	0.97509765625	-58.0	29.8125	23.9375
19	01	14	15	25	29	0.0950891854607	-0.128779320489	-0.125056316437	0.07666015625	-0.0947265625	1.09326171875	-37.3125	-1.75	10.75
19	01	14	15	25	29	0.0983873632187	-0.127927985922	-0.124143856568	0.35302734375	0.13720703125	0.97509765625	3.6875	11.875	15.8125
19	01	14	15	25	29	0.102780304524	-0.123287538681	-0.122982371506	0.3037109375	0.39111328125	0.8818359375	-13.5	33.4375	25.0
19	01	14	15	25	29	0.102899337745	-0.119683037555	-0.117302803764	0.20458984375	0.3369140625	0.962890625	-38.75	20.4375	4.4375
19	01	14	15	25	29	0.103514344361	-0.118345703842	-0.112547435732	0.28662109375	0.28125	1.01953125	-30.9375	11.9375	6.75
19	01	14	15	25	29	0.106932432753	-0.117430365648	-0.112425537175	0.3427734375	0.27734375	0.9345703125	-3.375	13.375	19.0625
19	01	14	15	25	29	0.110713394241	-0.114985686191	-0.115229817159	0.28857421875	0.29296875	0.82763671875	12.4375	18.75	19.0
19	01	14	15	25	29	0.113580958753	-0.11071244448	-0.115656054184	0.23388671875	0.2587890625	0.8173828125	1.125	27.375	14.125
19	01	14	15	25	29	0.115597747871	-0.105832362623	-0.11175262743	0.18017578125	0.19482421875	0.89990234375	-18.6875	29.1875	10.9375
19	01	14	15	25	29	0.117062080126	-0.102658195398	-0.107235701138	0.1875	0.15576171875	0.98193359375	-20.75	19.0625	8.375
19	01	14	15	25	29	0.12023464847	-0.0997886549482	-0.104244050551	0.21484375	0.15087890625	0.94140625	-11.1875	20.125	17.25
19	01	14	15	25	29	0.123652984802	-0.0978970323899	-0.103145875772	0.19970703125	0.173828125	0.9228515625	-3.25	12.8125	19.0625
19	01	14	15	25	29	0.126342330545	-0.0960689991684	-0.102477668109	0.21435546875	0.197265625	0.9150390625	-2.75	12.6875	14.75
19	01	14	15	25	29	0.12835452896	-0.0935041076401	-0.101316461281	0.1845703125	0.1943359375	0.90576171875	-5.6875	15.875	10.9375
19	01	14	15	25	29	0.129939223259	-0.0910612123541	-0.0980800055315	0.12939453125	0.1884765625	0.96435546875	-17.0	12.125	10.1875
19	01	14	15	25	29	0.131342283242	-0.0905114340373	-0.0955161121162	0.17041015625	0.12109375	1.03173828125	-10.0	2.8125	8.5
19	01	14	15	25	29	0.134885979071	-0.0907581225693	-0.0938098415528	0.24609375	0.1259765625	0.9892578125	-5.25	4.0	20.125
19	01	14	15	25	29	0.138422224884	-0.0908166978072	-0.090084305083	0.2490234375	0.15234375	0.97900390625	-19.125	7.1875	21.5
19	01	14	15	25	29	0.141109443096	-0.0901464738118	-0.0835548562278	0.26416015625	0.15966796875	0.96484375	-36.5625	14.875	17.75
19	01	14	15	25	29	0.144287002679	-0.0877074546742	-0.0749511164509	0.16748046875	0.1591796875	0.93505859375	-47.8125	21.1875	21.4375
19	01	14	15	25	29	0.148373330048	-0.0852643118373	-0.0672593211487	0.1728515625	0.16552734375	0.90625	-43.875	21.9375	26.6875
19	01	14	15	25	29	0.152709584903	-0.0835569231545	-0.0609129359446	0.2314453125	0.13232421875	0.90283203125	-35.3125	20.875	26.875
19	01	14	15	25	29	0.157160126795	-0.0812960345209	-0.0559062819979	0.22265625	0.17333984375	0.8330078125	-31.375	23.4375	27.6875
19	01	14	15	25	29	0.160945215433	-0.0790383215721	-0.0501084648731	0.203125	0.20458984375	0.859375	-38.375	22.75	24.875
19	01	14	15	25	29	0.164671882927	-0.0770869489017	-0.0424191840749	0.14453125	0.107421875	0.90771484375	-43.875	18.5625	24.5625
19	01	14	15	25	29	0.169370036695	-0.0748279873832	-0.0361933087424	0.13818359375	0.02978515625	0.92529296875	-29.5625	18.9375	29.125
19	01	14	15	25	30	0.173397262241	-0.0732406598695	-0.0318596870433	0.14306640625	0.01953125	0.96337890625	-20.1875	13.3125	24.1875
19	01	14	15	25	30	0.177488661395	-0.0711053268655	-0.0286862692076	0.15380859375	0.03759765625	0.9697265625	-14.375	16.125	24.5
19	01	14	15	25	30	0.18145743064	-0.0687255522705	-0.0259399286989	0.14990234375	0.015625	0.9755859375	-10.75	17.25	23.5
19	01	14	15	25	30	0.184689289151	-0.0672596155467	-0.0236202098154	0.2236328125	0.06005859375	1.0224609375	-12.6875	16.4375	19.625
19	01	14	15	25	30	0.18731304588	-0.0664659195058	-0.0203242894356	0.1962890625	0.00048828125	1.04638671875	-15.6875	11.8125	16.0
19	01	14	15	25	30	0.188956798128	-0.0662813574829	-0.0184318323755	0.20361328125	-0.0576171875	1.05859375	-5.25	7.1875	9.5
19	01	14	15	25	30	0.189930934476	-0.0667687796649	-0.0202015229151	0.23779296875	-0.0625	1.06591796875	15.375	1.5	4.1875
19	01	14	15	25	30	0.190363154321	-0.0671977662416	-0.0247795577603	0.2685546875	0.04931640625	1.0498046875	23.5625	0.8125	0.8125
19	01	14	15	25	30	0.191276111552	-0.0664644816464	-0.0273425966736	0.19482421875	0.1103515625	0.9345703125	9.625	5.625	5.0625
19	01	14	15	25	30	0.192252233258	-0.0660371163129	-0.0259387933761	0.099609375	0.0390625	0.884765625	-8.375	2.25	6.25
19	01	14	15	25	30	0.193716627212	-0.0664031790823	-0.0256946124941	0.12939453125	-0.02392578125	0.86328125	2.0	-1.1875	8.25
19	01	14	15	25	30	0.195489297431	-0.0664651404628	-0.0277701000097	0.146484375	0.02685546875	0.90087890625	12.4375	-1.25	9.4375
19	01	14	15	25	30	0.197134677288	-0.0668915189806	-0.0284411020483	0.169921875	0.06591796875	0.95947265625	1.3125	-0.6875	10.0
19	01	14	15	25	30	0.198668404861	-0.0678097074656	-0.0267942948491	0.1494140625	0.01318359375	1.04736328125	-9.0	-3.375	9.3125
19	01	14	15	25	30	0.201047162003	-0.0690298543489	-0.0262447722105	0.1708984375	-0.04736328125	1.08251953125	1.625	-5.1875	13.8125
19	01	14	15	25	30	0.203785686248	-0.0690271372107	-0.0291122408926	0.2451171875	0.02294921875	1.05224609375	17.8125	3.125	14.4375
19	01	14	15	25	30	0.206594456937	-0.0667693754473	-0.0306992649452	0.12451171875	0.0595703125	0.98828125	10.75	9.625	15.6875
19	01	14	15	25	30	0.210014691305	-0.0643288243637	-0.0297841236143	0.09375	0.00927734375	0.96044921875	0.5	12.375	19.375
19	01	14	15	25	30	0.213856033931	-0.0628019003753	-0.0281967715971	0.1328125	-0.0107421875	0.9267578125	-3.0625	11.5625	22.375
19	01	14	15	25	30	0.217339700106	-0.0617047000302	-0.0263664000129	0.13037109375	0.0263671875	0.93017578125	-7.8125	8.9375	20.75
19	01	14	15	25	30	0.221190866943	-0.0610350074345	-0.0241088279366	0.14404296875	0.0361328125	0.916015625	-11.5625	8.5625	23.25
19	01	14	15	25	30	0.225826502338	-0.060057642784	-0.0234981630811	0.173828125	0.01318359375	0.86572265625	-0.25	11.0	26.875
19	01	14	15	25	30	0.230464541869	-0.0586537141779	-0.0249629230997	0.1572265625	0.1201171875	0.9541015625	4.9375	8.8125	27.1875
19	01	14	15	25	30	0.234121908444	-0.0587746084024	-0.0269154748759	0.2294921875	0.08056640625	0.98291015625	7.9375	4.0625	21.625
19	01	14	15	25	30	0.239125809383	-0.0568824028445	-0.0288073971487	0.13818359375	0.12744140625	0.90771484375	7.8125	10.0	29.3125
19	01	14	15	25	30	0.242548363258	-0.0560290381156	-0.0278924514366	0.0625	0.09423828125	0.9853515625	-7.625	2.1875	20.5625
19	01	14	15	25	30	0.246270436303	-0.0552353766676	-0.0266106345051	0.11767578125	0.01708984375	1.0068359375	-4.125	6.125	22.25
19	01	14	15	25	30	0.250843533489	-0.0527931037635	-0.0271594580055	0.09423828125	0.00537109375	1.01220703125	9.5625	11.6875	26.1875
19	01	14	15	25	30	0.255433522951	-0.0502932432287	-0.0264894023801	0.0751953125	0.04638671875	0.9931640625	0.0	12.6875	26.8125
19	01	14	15	25	30	0.259519822957	-0.048034360458	-0.0246580452669	0.1064453125	0.0546875	0.99462890625	-8.0	15.5625	24.25
19	01	14	15	25	30	0.263478449888	-0.0473003934823	-0.0208121731322	0.1142578125	0.03369140625	1.0458984375	-20.1875	10.375	24.4375
19	01	14	15	25	30	0.267017969853	-0.0476054894824	-0.0170891500706	0.1640625	0.02392578125	1.03369140625	-21.125	8.4375	22.125
19	01	14	15	25	30	0.270138560406	-0.0477289548662	-0.0139158589635	0.142578125	0.0048828125	1.01806640625	-17.125	7.0625	19.3125
19	01	14	15	25	30	0.272385814895	-0.0474218638077	-0.011596079953	0.05029296875	0.0400390625	1.0537109375	-15.0	1.625	13.875
19	01	14	15	25	30	0.273803030601	-0.0496214587336	-0.0105590557945	0.1201171875	-0.0166015625	1.10009765625	-7.875	-9.875	9.125
19	01	14	15	25	30	0.275942090374	-0.0510868236326	-0.0132447320529	0.18359375	0.0615234375	1.0244140625	8.4375	-7.1875	12.5625
19	01	14	15	25	30	0.278614271716	-0.050657140312	-0.0151971420936	0.1103515625	0.12890625	0.97998046875	3.25	-0.4375	16.3125
19	01	14	15	25	30	0.280688554881	-0.050168730618	-0.013366121661	0.0634765625	0.08203125	0.9755859375	-14.6875	3.0625	13.5
19	01	14	15	25	30	0.282828796569	-0.0501694585195	-0.0107418791964	0.11376953125	-0.001953125	1.01416015625	-14.1875	4.875	13.5625
19	01	14	15	25	30	0.284908372328	-0.0498040342374	-0.0105589435332	0.138671875	0.017578125	1.0244140625	-1.875	4.9375	12.375
19	01	14	15	25	30	0.287472528481	-0.0486445021655	-0.0124510394501	0.1435546875	0.0595703125	0.94287109375	8.5	6.5	15.0625
19	01	14	15	25	30	0.289721113001	-0.0479715177626	-0.0122675255347	0.07666015625	0.0625	0.9208984375	-3.875	2.8125	13.8125
19	01	14	15	25	30	0.291435122695	-0.0487657933055	-0.00976536536781	0.1201171875	-0.04931640625	0.9169921875	-11.625	1.8125	10.9375
19	01	14	15	25	30	0.293136395083	-0.0498630928134	-0.00945995028896	0.1328125	-0.0283203125	0.94580078125	-1.9375	-2.8125	10.125
19	01	14	15	25	30	0.295159598691	-0.0499256724005	-0.0108640216226	0.1474609375	0.04736328125	0.92822265625	4.1875	0.8125	12.0625
19	01	14	15	25	30	0.296935605409	-0.0507811765057	-0.0103759615456	0.1064453125	0.01416015625	0.96630859375	-5.1875	-3.6875	11.0625
19	01	14	15	25	30	0.298824285573	-0.0525505943379	-0.0100096370167	0.14453125	-0.01220703125	0.990234375	-4.75	-6.3125	11.6875
19	01	14	15	25	30	0.300659388016	-0.0538330451136	-0.0108642653404	0.18310546875	-0.0302734375	0.99267578125	4.5	-3.25	11.125
19	01	14	15	25	30	0.302727018802	-0.0543810027727	-0.0115963978977	0.16162109375	0.0009765625	0.9833984375	2.75	-0.75	12.125
19	01	14	15	25	30	0.304552921552	-0.0552955805463	-0.0108027789809	0.1064453125	-0.02685546875	1.00927734375	-4.5625	-4.0625	11.375
19	01	14	15	25	30	0.306874857688	-0.0562115640277	-0.00933807741176	0.08544921875	-0.07958984375	0.99609375	-4.25	-4.625	13.8125
19	01	14	15	25	31	0.309448928097	-0.0570069622963	-0.00933839960528	0.10400390625	-0.09375	0.9951171875	4.6875	-5.125	15.1875
19	01	14	15	25	31	0.311890627907	-0.0576784037909	-0.0106201505393	0.14306640625	-0.0380859375	1.02197265625	8.1875	-4.25	14.1875
19	01	14	15	25	31	0.314078554282	-0.0581649557386	-0.0113522369018	0.09814453125	-0.02978515625	1.0595703125	4.5625	-6.125	13.0
19	01	14	15	25	31	0.316391205491	-0.0599336735711	-0.0108637412379	0.0859375	-0.0615234375	1.14306640625	-2.0625	-12.3125	13.75
19	01	14	15	25	31	0.318708531684	-0.0620694325398	-0.011351931615	0.1962890625	-0.0869140625	1.0986328125	4.375	-8.625	13.6875
19	01	14	15	25	31	0.321773468977	-0.062377178546	-0.011413436779	0.15087890625	-0.044921875	1.02587890625	2.625	-0.375	18.3125
19	01	14	15	25	31	0.324446244227	-0.0613371849977	-0.0100092520792	0.1240234375	-0.00439453125	0.95947265625	-6.0625	8.5	16.5
19	01	14	15	25	31	0.326962090873	-0.0609124821152	-0.00720207704368	0.11474609375	0.0009765625	1.01513671875	-15.3125	6.625	16.3125
19	01	14	15	25	31	0.330199650383	-0.0614623009124	-0.00531004983056	0.18408203125	-0.0166015625	0.9853515625	-11.125	5.0625	20.75
19	01	14	15	25	31	0.33341935716	-0.0624970568793	-0.00518774397924	0.181640625	-0.01806640625	0.953125	-2.375	-1.3125	19.8125
19	01	14	15	25	31	0.336546500041	-0.0624997490101	-0.00598142129198	0.16650390625	0.02392578125	0.90625	1.6875	2.3125	19.0625
19	01	14	15	25	31	0.33898247155	-0.0623766809369	-0.00622546130682	0.18896484375	0.0390625	0.880859375	-2.4375	5.375	15.625
19	01	14	15	25	31	0.341545127051	-0.0623765403584	-0.00408926438749	0.13232421875	0.03759765625	0.91259765625	-15.1875	5.625	16.875
19	01	14	15	25	31	0.343862723707	-0.0644513731336	-0.00207513890771	0.16357421875	-0.04736328125	0.98388671875	-13.6875	-4.625	15.1875
19	01	14	15	25	31	0.346496547825	-0.0667724543457	-0.00231933570853	0.16552734375	-0.07666015625	1.00244140625	-0.125	-10.625	16.1875
19	01	14	15	25	31	0.348632857957	-0.0682983487488	-0.00512695379348	0.1435546875	-0.05908203125	0.9755859375	14.25	-13.125	11.8125
19	01	14	15	25	31	0.350947694215	-0.0689078168294	-0.00750722893712	0.1064453125	0.0078125	0.96435546875	9.5625	-10.0625	13.75
19	01	14	15	25	31	0.352830982171	-0.0702488255455	-0.00830046939548	0.1064453125	-0.0283203125	1.0126953125	2.0	-11.4375	11.375
19	01	14	15	25	31	0.354972906156	-0.071958916155	-0.0101316200863	0.1650390625	-0.0615234375	1.0654296875	9.0	-12.125	12.6875
19	01	14	15	25	31	0.357291945123	-0.0734236778243	-0.0131222699353	0.20068359375	-0.0283203125	1.08349609375	13.5625	-11.3125	13.4375
19	01	14	15	25	31	0.360098306697	-0.0740948041237	-0.0149532347696	0.20263671875	-0.03759765625	1.06103515625	10.375	-4.6875	16.625
19	01	14	15	25	31	0.362243660441	-0.0740356461861	-0.0150756839307	0.140625	-0.0712890625	1.06103515625	4.875	-1.3125	12.3125
19	01	14	15	25	31	0.363585529806	-0.0744016721225	-0.0149535764315	0.1787109375	-0.11474609375	1.09228515625	5.0	-0.875	7.375
19	01	14	15	25	31	0.364739345531	-0.0748277171388	-0.0159298810548	0.20361328125	-0.1064453125	1.05908203125	10.5625	-1.375	6.0
19	01	14	15	25	31	0.366326041916	-0.0744614746981	-0.0167843488049	0.12841796875	-0.01611328125	1.02294921875	5.1875	-1.8125	9.4375
19	01	14	15	25	31	0.367610437812	-0.0763540856222	-0.0169065401418	0.1748046875	-0.03125	1.01953125	-2.375	-9.4375	8.1875
19	01	14	15	25	31	0.36937634852	-0.0778790847177	-0.018737365994	0.228515625	-0.0537109375	0.93994140625	9.4375	-6.8125	10.5625
19	01	14	15	25	31	0.371266452814	-0.0778176438167	-0.0209344720229	0.14013671875	0.0068359375	0.92919921875	11.0625	-5.1875	10.875
19	01	14	15	25	31	0.372124342201	-0.0790390393882	-0.0222774126461	0.15673828125	0.0302734375	0.94384765625	1.5625	-9.25	5.875
19	01	14	15	25	31	0.37304400876	-0.0812982034799	-0.023620423984	0.18017578125	-0.00439453125	0.9658203125	1.875	-14.125	5.625
19	01	14	15	25	31	0.374621198417	-0.0826388241539	-0.0279531620846	0.2060546875	0.03125	0.92138671875	18.1875	-13.375	9.1875
19	01	14	15	25	31	0.377065010842	-0.0817238668692	-0.0333242952282	0.16552734375	0.08642578125	0.8681640625	25.625	-6.125	13.5625
19	01	14	15	25	31	0.378716624439	-0.0818467354349	-0.0358880540162	0.1162109375	0.0517578125	0.90673828125	10.625	-9.5625	9.6875
19	01	14	15	25	31	0.37987405217	-0.0826396957966	-0.037596789225	0.15869140625	-0.0439453125	0.94873046875	11.3125	-8.9375	6.3125
19	01	14	15	25	31	0.381512079223	-0.0825154904991	-0.0397319410613	0.1630859375	0.0185546875	0.91357421875	12.0625	-4.4375	9.1875
19	01	14	15	25	31	0.383667919073	-0.0822145540871	-0.0410767593917	0.1826171875	0.0478515625	0.958984375	6.125	-1.125	13.1875
19	01	14	15	25	31	0.385798005621	-0.0833118616789	-0.0410761046959	0.19580078125	0.02001953125	0.97412109375	-1.875	-4.875	13.8125
19	01	14	15	25	31	0.387821635452	-0.0847177258432	-0.0418095404918	0.20458984375	0.01025390625	0.95361328125	2.0625	-7.5	12.875
19	01	14	15	25	31	0.390062688766	-0.0854463721284	-0.0430893848019	0.17822265625	0.02197265625	0.91748046875	5.75	-6.75	13.8125
19	01	14	15	25	31	0.391535190428	-0.08715701511	-0.0440667821495	0.13916015625	0.00439453125	0.9462890625	2.6875	-14.4375	9.25
19	01	14	15	25	31	0.392937654448	-0.0894760176174	-0.0459586911773	0.11962890625	-0.07373046875	0.986328125	11.6875	-22.0	8.125
19	01	14	15	25	31	0.394817501325	-0.091121120649	-0.0511450094466	0.08740234375	-0.07373046875	0.982421875	31.0	-28.625	9.0
19	01	14	15	25	31	0.398186926086	-0.0899033326372	-0.0606069309632	0.00634765625	-0.021484375	1.03955078125	59.0	-30.3125	16.375
19	01	14	15	25	31	0.402828930159	-0.0889275380669	-0.0722650686831	-0.0205078125	-0.11474609375	1.00927734375	78.5	-38.25	22.1875
19	01	14	15	25	31	0.408256155121	-0.0883161394021	-0.087095460212	-0.0927734375	-0.08349609375	0.97607421875	94.4375	-52.875	28.125
19	01	14	15	25	31	0.413983048988	-0.0915486618726	-0.107111934391	-0.103515625	-0.05029296875	0.87353515625	104.1875	-68.9375	32.75
19	01	14	15	25	31	0.419372854647	-0.0966797557504	-0.129516692994	-0.11669921875	-0.06494140625	0.8095703125	113.0625	-85.25	33.1875
19	01	14	15	25	31	0.425707110105	-0.103451405251	-0.157038622839	-0.06494140625	0.01171875	0.7001953125	136.3125	-105.4375	42.4375
19	01	14	15	25	31	0.43217834561	-0.110836869881	-0.186884634128	-0.0693359375	0.1982421875	0.65380859375	145.6875	-115.75	47.125
19	01	14	15	25	31	0.437116064459	-0.120295415114	-0.215445365476	-0.0693359375	0.24169921875	0.615234375	133.0625	-124.5625	44.3125
19	01	14	15	25	32	0.439328604664	-0.129210705206	-0.246519621317	0.0029296875	0.29052734375	0.64013671875	145.6875	-131.9375	29.3125
19	01	14	15	25	32	0.438575349038	-0.136528396298	-0.279831335282	0.1435546875	0.29150390625	0.65966796875	159.625	-132.3125	11.25
19	01	14	15	25	32	0.435035648607	-0.143730212187	-0.314802732256	0.33349609375	0.42724609375	0.6474609375	165.8125	-139.1875	-1.875
19	01	14	15	25	32	0.427548279966	-0.15197647639	-0.346555193954	0.4423828125	0.482421875	0.68505859375	142.5625	-141.375	-20.0625
19	01	14	15	25	32	0.415750987378	-0.160148354504	-0.37485944869	0.51123046875	0.51171875	0.666015625	118.1875	-138.9375	-43.6875
19	01	14	15	25	32	0.40099677743	-0.168455267231	-0.399348845468	0.6015625	0.513671875	0.5498046875	92.8125	-133.6875	-59.25
19	01	14	15	25	32	0.382490156142	-0.177665365331	-0.420513351814	0.68505859375	0.51025390625	0.498046875	67.0	-135.3125	-77.25
19	01	14	15	25	32	0.361430077486	-0.185414484195	-0.439794856191	0.6572265625	0.50732421875	0.47021484375	55.6875	-129.875	-94.25
19	01	14	15	25	32	0.339168932257	-0.189878450288	-0.457209730347	0.69140625	0.6220703125	0.37744140625	48.3125	-111.8125	-107.6875
19	01	14	15	25	32	0.314809350663	-0.192437743823	-0.470199929722	0.76708984375	0.64599609375	0.31591796875	21.1875	-95.75	-124.4375
19	01	14	15	25	32	0.288379570184	-0.192130981363	-0.477519948597	0.80224609375	0.69677734375	0.37109375	-11.25	-73.8125	-142.6875
19	01	14	15	25	32	0.262445721818	-0.185665089714	-0.481923585925	0.8505859375	0.8046875	0.38232421875	-20.4375	-36.75	-157.75
19	01	14	15	25	32	0.23668745987	-0.171503806662	-0.484421962091	0.83740234375	0.85595703125	0.3603515625	-23.25	5.0	-179.3125
19	01	14	15	25	32	0.209039061257	-0.151911890064	-0.48338375625	0.62060546875	0.8623046875	0.5	-39.25	30.25	-201.3125
19	01	14	15	25	32	0.184196596901	-0.126276593436	-0.482280155306	0.59375	1.0146484375	0.5478515625	-27.25	66.1875	-203.0625
19	01	14	15	25	32	0.16149127439	-0.0966140163865	-0.479591244956	0.59619140625	1.04833984375	0.4111328125	-29.375	94.4375	-203.125
19	01	14	15	25	32	0.137874135719	-0.0656107551561	-0.472702603427	0.427734375	1.03564453125	0.46435546875	-51.5	101.875	-209.3125
19	01	14	15	25	32	0.113889195551	-0.0341789654387	-0.462087405957	0.25	0.90771484375	0.546875	-67.9375	104.875	-210.0625
19	01	14	15	25	32	0.091488724061	-0.00518781957651	-0.451157203642	0.1337890625	0.8466796875	0.51904296875	-65.5	96.4375	-193.9375
19	01	14	15	25	32	0.074706876791	0.02105708537	-0.438353585877	0.109375	0.9619140625	0.50146484375	-75.25	97.9375	-157.875
19	01	14	15	25	32	0.0635349135754	0.0447979121656	-0.422467504101	0.103515625	0.94580078125	0.45849609375	-93.5625	101.1875	-124.125
19	01	14	15	25	32	0.055478953248	0.0670752141029	-0.404404339077	-0.1435546875	0.81689453125	0.53271484375	-103.875	99.4375	-102.25
19	01	14	15	25	32	0.0519388421821	0.0850796075227	-0.386337098722	-0.33056640625	0.70458984375	0.5830078125	-103.5	86.3125	-66.5625
19	01	14	15	25	32	0.0513306865892	0.100464102409	-0.369934948178	-0.31591796875	0.6669921875	0.70458984375	-91.5	73.625	-38.25
19	01	14	15	25	32	0.0540155293337	0.113829335828	-0.358211459502	-0.21142578125	0.68505859375	0.66064453125	-69.1875	75.625	-20.0
19	01	14	15	25	32	0.057860315281	0.125791255057	-0.346978789422	-0.2685546875	0.7099609375	0.63623046875	-70.5	68.0	-9.625
19	01	14	15	25	32	0.061032625511	0.135431396009	-0.338181777957	-0.322265625	0.68359375	0.65283203125	-54.75	52.3125	-4.4375
19	01	14	15	25	32	0.0633506258081	0.144461398158	-0.3318278926	-0.404296875	0.6572265625	0.67529296875	-38.0625	44.0625	-2.5625
19	01	14	15	25	32	0.0674423765222	0.153500069641	-0.327690605926	-0.388671875	0.65673828125	0.6650390625	-26.1875	48.8125	7.375
19	01	14	15	25	32	0.0726291283129	0.162408496169	-0.325610419789	-0.38818359375	0.67529296875	0.671875	-15.3125	50.8125	14.5625
19	01	14	15	25	32	0.0762934851692	0.169188432711	-0.323667481482	-0.39501953125	0.666015625	0.63916015625	-15.375	36.0625	10.5
19	01	14	15	25	32	0.0767187858675	0.172663043134	-0.320912789253	-0.40283203125	0.54345703125	0.79345703125	-7.5	14.375	0.1875
19	01	14	15	25	32	0.0750112410181	0.173215542725	-0.323604230983	-0.3095703125	0.48095703125	0.80908203125	28.75	-0.875	-2.625
19	01	14	15	25	32	0.0732410696657	0.172848924411	-0.331110669113	-0.30322265625	0.69921875	0.94775390625	52.9375	-3.5	-0.1875
19	01	14	15	25	32	0.0718369932161	0.171322378893	-0.340264432608	-0.24951171875	0.8564453125	0.91455078125	53.875	-6.5625	1.0
19	01	14	15	25	32	0.0722645538355	0.167661089009	-0.343622836228	-0.1513671875	0.810546875	1.0078125	23.1875	-8.5	5.375
19	01	14	15	25	32	0.0750726353118	0.165281867012	-0.346921023668	-0.0888671875	0.748046875	0.9599609375	23.75	5.3125	13.875
19	01	14	15	25	32	0.0797723609626	0.165831296661	-0.347226443394	-0.2314453125	0.767578125	0.91943359375	3.5	17.4375	21.5
19	01	14	15	25	32	0.0856286069329	0.168144556023	-0.343002687786	-0.3994140625	0.72900390625	0.896484375	-22.8125	21.1875	27.4375
19	01	14	15	25	32	0.09197810245	0.169918405588	-0.335259267921	-0.43603515625	0.6630859375	0.8818359375	-42.8125	17.4375	29.75
19	01	14	15	25	32	0.0986286792901	0.169975787019	-0.324998587389	-0.36962890625	0.55517578125	0.892578125	-55.0	12.4375	30.25
19	01	14	15	25	32	0.105100697906	0.170102000618	-0.316644843633	-0.3154296875	0.41552734375	0.8466796875	-39.125	13.6875	31.3125
19	01	14	15	25	32	0.111996892019	0.17345785674	-0.313713365111	-0.337890625	0.486328125	0.73291015625	-13.0625	28.125	33.8125
19	01	14	15	25	32	0.11974731486	0.178095140041	-0.310781512368	-0.3408203125	0.5341796875	0.6953125	-16.4375	35.75	35.75
19	01	14	15	25	32	0.127070953459	0.183526588402	-0.306325223541	-0.337890625	0.51806640625	0.66064453125	-25.0625	40.1875	29.8125
19	01	14	15	25	32	0.132568688778	0.187805642435	-0.299378185293	-0.29638671875	0.49951171875	0.71435546875	-36.5625	34.6875	17.125
19	01	14	15	25	32	0.136352677988	0.190796092833	-0.292114555439	-0.23779296875	0.49462890625	0.74853515625	-37.5	28.375	6.375
19	01	14	15	25	32	0.137024028383	0.192749167765	-0.285400604328	-0.26318359375	0.5126953125	0.8310546875	-30.9375	17.0	-7.5
19	01	14	15	25	32	0.137263509618	0.194451552532	-0.281423762939	-0.29443359375	0.50341796875	0.85693359375	-13.8125	13.0	-4.75
19	01	14	15	25	33	0.138791829343	0.196652275349	-0.281306746456	-0.28125	0.55419921875	0.8564453125	5.375	17.0625	5.0
19	01	14	15	25	33	0.14147818986	0.199400019962	-0.283444656474	-0.27392578125	0.58203125	0.814453125	15.4375	21.0625	12.875
19	01	14	15	25	33	0.143431313177	0.202329703482	-0.284177103895	-0.36083984375	0.634765625	0.78662109375	4.125	16.75	9.0625
19	01	14	15	25	33	0.144956670616	0.203854854677	-0.279903701661	-0.400390625	0.55322265625	0.80810546875	-21.0	8.6875	4.875
19	01	14	15	25	33	0.145807770623	0.205131819617	-0.274709407943	-0.37744140625	0.42578125	0.7939453125	-20.3125	7.6875	1.625
19	01	14	15	25	33	0.145991790507	0.2075134146	-0.271964639841	-0.38916015625	0.380859375	0.7685546875	-3.1875	10.5	0.8125
19	01	14	15	25	33	0.146116760521	0.210935473835	-0.271909009241	-0.40234375	0.455078125	0.76904296875	9.5625	14.4375	1.75
19	01	14	15	25	33	0.146359346021	0.214229067779	-0.272150260179	-0.39208984375	0.50244140625	0.73974609375	7.75	14.375	1.8125
19	01	14	15	25	33	0.146480974063	0.216181504221	-0.269708093494	-0.39697265625	0.5126953125	0.7373046875	-10.1875	7.6875	-1.5625
19	01	14	15	25	33	0.146357422289	0.216545510543	-0.265921304801	-0.3603515625	0.43310546875	0.7822265625	-13.6875	2.25	-2.625
19	01	14	15	25	33	0.146598059602	0.217455822798	-0.264694331595	-0.3466796875	0.431640625	0.78076171875	0.8125	5.1875	1.875
19	01	14	15	25	33	0.147090637777	0.219110120174	-0.265739683353	-0.35986328125	0.462890625	0.76220703125	12.5625	7.875	5.375
19	01	14	15	25	33	0.147581572333	0.220639943748	-0.267331384127	-0.38427734375	0.49462890625	0.740234375	13.25	5.4375	6.5
19	01	14	15	25	33	0.148189397376	0.221185492623	-0.267021669489	-0.39013671875	0.50537109375	0.74658203125	0.3125	0.8125	5.9375
19	01	14	15	25	33	0.149040180869	0.221057958684	-0.265245137615	-0.3671875	0.4541015625	0.74951171875	-6.0	-0.8125	5.8125
19	01	14	15	25	33	0.149351326231	0.221738197056	-0.264157147497	-0.400390625	0.4609375	0.75048828125	-1.3125	1.0	3.9375
19	01	14	15	25	33	0.149533589873	0.223018668325	-0.263850493479	-0.431640625	0.498046875	0.7626953125	2.875	2.625	3.9375
19	01	14	15	25	33	0.149531938843	0.223931707598	-0.26354241303	-0.4150390625	0.494140625	0.7734375	2.875	1.25	2.75
19	01	14	15	25	33	0.149293876758	0.22406288699	-0.263003808238	-0.39013671875	0.46875	0.8125	4.0625	-1.0625	1.9375
19	01	14	15	25	33	0.149288401218	0.224176736579	-0.262383825362	-0.3955078125	0.45751953125	0.81787109375	3.875	-0.6875	3.4375
19	01	14	15	25	33	0.149408948345	0.224418587853	-0.261709791872	-0.369140625	0.45361328125	0.81103515625	3.4375	1.0625	2.9375
19	01	14	15	25	33	0.149291130987	0.225340496977	-0.261106892217	-0.380859375	0.4541015625	0.77197265625	3.0625	3.4375	0.8125
19	01	14	15	25	33	0.149472315214	0.226680350635	-0.259882857567	-0.404296875	0.47705078125	0.765625	-1.4375	5.3125	1.375
19	01	14	15	25	33	0.149963666895	0.228027781652	-0.257690924554	-0.4287109375	0.48681640625	0.7626953125	-8.1875	4.8125	2.125
19	01	14	15	25	33	0.149719379949	0.228821017297	-0.254699948035	-0.458984375	0.4462890625	0.7822265625	-10.25	0.0625	-0.25
19	01	14	15	25	33	0.149286469031	0.229666795978	-0.252981363096	-0.458984375	0.44140625	0.79150390625	-2.375	-0.375	0.3125
19	01	14	15	25	33	0.149228452636	0.231075223591	-0.25255923804	-0.4462890625	0.4736328125	0.77197265625	2.9375	3.375	2.3125
19	01	14	15	25	33	0.14934641155	0.232838806728	-0.252308159113	-0.43896484375	0.51318359375	0.77099609375	2.25	6.0	1.8125
19	01	14	15	25	33	0.149407885339	0.234365310335	-0.250844121218	-0.443359375	0.48876953125	0.77392578125	-3.8125	5.125	0.4375
19	01	14	15	25	33	0.1495300219	0.235158846686	-0.248891195636	-0.44482421875	0.44921875	0.7978515625	-4.6875	2.0	1.8125
19	01	14	15	25	33	0.150019761007	0.235710462574	-0.248039181746	-0.39892578125	0.44091796875	0.79150390625	1.0625	2.9375	4.0625
19	01	14	15	25	33	0.150450973578	0.237120499939	-0.248167812806	-0.41357421875	0.47412109375	0.76953125	5.375	6.3125	4.3125
19	01	14	15	25	33	0.150878558612	0.239013121167	-0.247680093385	-0.45361328125	0.50341796875	0.7412109375	-0.3125	6.375	2.9375
19	01	14	15	25	33	0.151791078722	0.240412166902	-0.245600040522	-0.45751953125	0.47607421875	0.744140625	-9.1875	5.4375	4.5
19	01	14	15	25	33	0.152764668483	0.241384044686	-0.243642251931	-0.4453125	0.43798828125	0.74267578125	-7.25	3.5	5.9375
19	01	14	15	25	33	0.153623118444	0.242488935072	-0.243770653581	-0.42138671875	0.46142578125	0.73681640625	3.5	4.25	7.0
19	01	14	15	25	33	0.154104407085	0.243576510367	-0.244858170783	-0.39892578125	0.50341796875	0.71923828125	6.6875	4.125	4.75
19	01	14	15	25	33	0.154602467474	0.244629565588	-0.245117848154	-0.42431640625	0.49853515625	0.712890625	2.125	2.875	4.375
19	01	14	15	25	33	0.155211538503	0.245176858108	-0.244444440309	-0.4287109375	0.4853515625	0.7255859375	-2.8125	1.0	4.5625
19	01	14	15	25	33	0.155999563682	0.245656589914	-0.243581478347	-0.416015625	0.46435546875	0.7412109375	-2.625	1.6875	5.3125
19	01	14	15	25	33	0.156673565028	0.246698305354	-0.24389075413	-0.427734375	0.4736328125	0.728515625	4.0	3.4375	6.0
19	01	14	15	25	33	0.157349697014	0.248170623762	-0.244630560757	-0.45458984375	0.5078125	0.72265625	5.1875	4.375	6.625
19	01	14	15	25	33	0.159540052982	0.24968567588	-0.245047173957	-0.4248046875	0.54443359375	0.7119140625	-0.5625	8.5	11.9375
19	01	14	15	25	33	0.162166148778	0.25151926952	-0.24370697481	-0.4423828125	0.5185546875	0.7080078125	-9.375	11.3125	12.5625
19	01	14	15	25	33	0.164976612881	0.253354761401	-0.241697146507	-0.43994140625	0.4736328125	0.7109375	-10.9375	12.1875	13.125
19	01	14	15	25	33	0.166009603418	0.254812534658	-0.23931016728	-0.4501953125	0.3837890625	0.74560546875	-5.9375	7.875	6.0
19	01	14	15	25	33	0.164304536912	0.255856099085	-0.238583371022	-0.47265625	0.3369140625	0.7626953125	9.5625	-0.4375	-3.75
19	01	14	15	25	33	0.161925110754	0.256467891212	-0.241636454381	-0.439453125	0.443359375	0.7548828125	25.4375	-4.4375	-4.375
19	01	14	15	25	33	0.161800533311	0.256891152284	-0.242487181759	-0.451171875	0.51708984375	0.759765625	6.8125	-0.9375	2.625
19	01	14	15	25	33	0.162712264416	0.256518997502	-0.240955746404	-0.41259765625	0.46533203125	0.7890625	-5.5625	0.375	5.0625
19	01	14	15	25	34	0.162414689941	0.256408911102	-0.240173545629	-0.3916015625	0.4384765625	0.79052734375	1.625	0.5	-0.6875
19	01	14	15	25	34	0.162232795166	0.257448431155	-0.239626017239	-0.4560546875	0.466796875	0.7626953125	2.0625	3.0	0.8125
19	01	14	15	25	34	0.162658200891	0.258238967344	-0.238524671326	-0.47412109375	0.47802734375	0.73291015625	-4.0625	1.375	3.625
19	01	14	15	25	34	0.162771565145	0.258408251527	-0.236558900075	-0.482421875	0.4521484375	0.73095703125	-8.3125	-2.9375	1.75
19	01	14	15	25	34	0.162530169009	0.258534658626	-0.234853958072	-0.474609375	0.43115234375	0.7216796875	-5.9375	-3.625	0.9375
19	01	14	15	25	34	0.16191725392	0.259140844381	-0.234667109431	-0.47705078125	0.4423828125	0.70556640625	2.625	-2.8125	0.125
19	01	14	15	25	34	0.161127053552	0.259878406827	-0.235282117971	-0.50390625	0.49755859375	0.7041015625	4.875	-4.0625	0.3125
19	01	14	15	25	34	0.160948877513	0.259886355877	-0.235045175313	-0.49072265625	0.51171875	0.73583984375	-1.625	-5.375	2.0625
19	01	14	15	25	34	0.160887388367	0.258970101989	-0.234190026239	-0.462890625	0.4755859375	0.7763671875	-3.0625	-7.3125	2.3125
19	01	14	15	25	34	0.160579849767	0.258233882313	-0.234064509258	-0.45751953125	0.4638671875	0.798828125	2.625	-6.75	2.25
19	01	14	15	25	34	0.160522319512	0.257690202655	-0.234863074328	-0.44970703125	0.47265625	0.79736328125	7.9375	-4.9375	4.5625
19	01	14	15	25	34	0.161250442765	0.25725610002	-0.23589438353	-0.40869140625	0.47216796875	0.76904296875	7.1875	-2.1875	7.875
19	01	14	15	25	34	0.161802304753	0.256893964808	-0.236569495747	-0.416015625	0.47314453125	0.76123046875	5.1875	-2.375	6.4375
19	01	14	15	25	34	0.162655946518	0.256648500979	-0.236507239309	-0.443359375	0.5048828125	0.7578125	-0.8125	-2.3125	6.875
19	01	14	15	25	34	0.163510493115	0.25622136995	-0.236141133954	-0.43798828125	0.50244140625	0.74169921875	-3.25	-3.4375	6.375
19	01	14	15	25	34	0.163871660065	0.255664202612	-0.235889745308	-0.447265625	0.47607421875	0.763671875	-0.375	-4.9375	5.25
19	01	14	15	25	34	0.164363163801	0.255364083677	-0.236993005956	-0.4326171875	0.5009765625	0.7626953125	6.6875	-3.5	7.125
19	01	14	15	25	34	0.164546788317	0.255364897002	-0.238275467949	-0.421875	0.513671875	0.75830078125	7.625	-1.875	4.4375
19	01	14	15	25	34	0.164301262761	0.255423768445	-0.238883782484	-0.4384765625	0.53125	0.78662109375	4.4375	-2.0	1.0625
19	01	14	15	25	34	0.164425483535	0.255305047374	-0.238642776771	-0.4267578125	0.4990234375	0.8056640625	1.5625	-1.0625	2.25
19	01	14	15	25	34	0.164852692687	0.254816731569	-0.238398599642	-0.4189453125	0.48193359375	0.833984375	2.375	-1.0625	4.5
19	01	14	15	25	34	0.165279501493	0.254755036644	-0.23888625142	-0.40576171875	0.50341796875	0.8076171875	5.0625	0.75	4.3125
19	01	14	15	25	34	0.165337964826	0.255605535877	-0.238699439067	-0.447265625	0.51708984375	0.7802734375	1.3125	2.8125	0.9375
19	01	14	15	25	34	0.165518713351	0.257005642302	-0.23735334669	-0.48046875	0.50146484375	0.76904296875	-4.1875	4.8125	0.875
19	01	14	15	25	34	0.165770793962	0.258177635662	-0.236205070925	-0.458984375	0.47900390625	0.77197265625	-2.625	5.0625	1.375
19	01	14	15	25	34	0.165641325811	0.25938674823	-0.236560714386	-0.43310546875	0.46728515625	0.76416015625	7.0625	5.0625	1.4375
19	01	14	15	25	34	0.165523899013	0.260614693504	-0.238276291204	-0.423828125	0.51171875	0.74853515625	11.9375	4.5	2.25
19	01	14	15	25	34	0.165710615587	0.261352801452	-0.239380123142	-0.41162109375	0.53125	0.73583984375	6.3125	3.0625	2.375
19	01	14	15	25	34	0.165769749713	0.261960149399	-0.238950136276	-0.42333984375	0.50244140625	0.74462890625	-0.3125	2.5625	0.0625
19	01	14	15	25	34	0.165772768887	0.262941490562	-0.238038953852	-0.4521484375	0.46630859375	0.74658203125	-1.0625	3.5625	0.875
19	01	14	15	25	34	0.165828909685	0.26403233835	-0.237604690984	-0.44775390625	0.4580078125	0.75390625	2.6875	4.6875	1.6875
19	01	14	15	25	34	0.16571160547	0.265382711081	-0.237733592378	-0.455078125	0.4736328125	0.74462890625	5.125	5.0	1.0625
19	01	14	15	25	34	0.16601218216	0.266412932033	-0.237177698483	-0.4482421875	0.4833984375	0.7392578125	-0.125	4.3125	2.25
19	01	14	15	25	34	0.166559171341	0.267141624389	-0.236258905189	-0.42333984375	0.455078125	0.7236328125	-2.25	4.5	2.625
19	01	14	15	25	34	0.166747413891	0.26824849343	-0.235472738943	-0.451171875	0.45556640625	0.71875	-0.5	4.1875	1.75
19	01	14	15	25	34	0.166992433228	0.269287505629	-0.235046732588	-0.46044921875	0.4794921875	0.6904296875	-1.25	2.75	2.3125
19	01	14	15	25	34	0.167417219552	0.269710788626	-0.234310866154	-0.4345703125	0.4619140625	0.69189453125	-3.0625	1.25	2.9375
19	01	14	15	25	34	0.167781617478	0.270257185228	-0.233698004118	-0.42578125	0.44482421875	0.69287109375	-0.875	2.0	2.5625
19	01	14	15	25	34	0.167966004979	0.270686494217	-0.233760828151	-0.43310546875	0.46142578125	0.6904296875	1.625	0.5	2.8125
19	01	14	15	25	34	0.168331282196	0.270685002371	-0.233759539815	-0.412109375	0.45263671875	0.68994140625	0.875	-0.875	3.8125
19	01	14	15	25	34	0.168817561794	0.27031561142	-0.233878849167	-0.40869140625	0.46044921875	0.69677734375	1.1875	-2.0625	4.6875
19	01	14	15	25	34	0.169555208649	0.269591561052	-0.234069195525	-0.3896484375	0.470703125	0.68798828125	-0.4375	-3.5	5.75
19	01	14	15	25	34	0.170223277743	0.268609768859	-0.234064636122	-0.39453125	0.4755859375	0.6962890625	-1.8125	-4.8125	4.875
19	01	14	15	25	34	0.170404282179	0.268118199002	-0.234061755787	-0.4404296875	0.49560546875	0.701171875	-1.0	-5.1875	3.5
19	01	14	15	25	34	0.170588875284	0.267815379158	-0.234002772036	-0.46533203125	0.51123046875	0.73095703125	-1.375	-4.8125	3.125
19	01	14	15	25	34	0.170588544528	0.267509692546	-0.233880251389	-0.4619140625	0.52392578125	0.74853515625	-1.0625	-4.25	2.125
19	01	14	15	25	34	0.170345405315	0.266961950143	-0.233942650869	-0.45361328125	0.53125	0.802734375	1.4375	-4.125	0.5
19	01	14	15	25	34	0.169678479308	0.266663768381	-0.2341929227	-0.443359375	0.5361328125	0.8349609375	3.9375	-2.125	-2.1875
19	01	14	15	25	34	0.169003016868	0.266596308299	-0.234126245109	-0.4404296875	0.49169921875	0.8388671875	5.25	-0.625	-2.0
19	01	14	15	25	34	0.16845231289	0.266655128629	-0.234246368431	-0.43017578125	0.4765625	0.83203125	6.8125	0.8125	-0.75
19	01	14	15	25	35	0.168396136928	0.26696799671	-0.233825879149	-0.40576171875	0.4765625	0.80078125	2.3125	3.875	-0.5
19	01	14	15	25	35	0.168268740872	0.268119179779	-0.231987480615	-0.439453125	0.474609375	0.765625	-5.625	6.6875	-3.3125
19	01	14	15	25	35	0.168455921123	0.26928533478	-0.229185501382	-0.45556640625	0.48486328125	0.755859375	-12.875	6.875	-2.8125
19	01	14	15	25	35	0.168756626128	0.270193701219	-0.225761576871	-0.44775390625	0.45361328125	0.73876953125	-15.8125	5.875	-3.0625
19	01	14	15	25	35	0.16839732039	0.271425474366	-0.223390428644	-0.4736328125	0.43603515625	0.72119140625	-8.6875	4.4375	-3.625
19	01	14	15	25	35	0.16832995787	0.272391806373	-0.222405499086	-0.45166015625	0.47802734375	0.70849609375	-4.4375	3.4375	-1.625
19	01	14	15	25	35	0.167903290822	0.273125127745	-0.221307645409	-0.43603515625	0.47607421875	0.7021484375	-5.375	2.3125	-4.25
19	01	14	15	25	35	0.167415574982	0.273919467925	-0.219660464586	-0.46240234375	0.4716796875	0.70361328125	-8.0625	1.5625	-4.6875
19	01	14	15	25	35	0.166927472567	0.274346979594	-0.217951738405	-0.46142578125	0.470703125	0.72998046875	-8.0	0.125	-4.5
19	01	14	15	25	35	0.166436801466	0.274343022585	-0.21605657396	-0.46630859375	0.44873046875	0.7490234375	-8.0	-1.3125	-3.8125
19	01	14	15	25	35	0.165706847894	0.27422499727	-0.215144250028	-0.45458984375	0.4169921875	0.74560546875	-0.875	-2.75	-2.4375
19	01	14	15	25	35	0.165099165562	0.274107339201	-0.215697024435	-0.419921875	0.4296875	0.7470703125	6.5	-1.5	-1.125
19	01	14	15	25	35	0.164486245439	0.274469256304	-0.21654812572	-0.439453125	0.453125	0.72509765625	6.9375	-0.375	-1.0625
19	01	14	15	25	35	0.164484651437	0.274405563214	-0.21666809373	-0.43994140625	0.47607421875	0.7294921875	0.1875	-1.75	1.0625
19	01	14	15	25	35	0.164729277243	0.274040183335	-0.215631173212	-0.43359375	0.4306640625	0.72314453125	-4.5	-2.0	1.4375
19	01	14	15	25	35	0.164666081593	0.27379245442	-0.215262145952	-0.44189453125	0.38916015625	0.73486328125	2.0	-2.4375	2.3125
19	01	14	15	25	35	0.164490185759	0.274170654706	-0.216309171923	-0.4501953125	0.41357421875	0.701171875	8.6875	-1.125	3.4375
19	01	14	15	25	35	0.164794128403	0.274351706361	-0.216917900869	-0.47021484375	0.4609375	0.7041015625	3.0625	-2.25	4.625
19	01	14	15	25	35	0.165397165686	0.274217514918	-0.216542119503	-0.4521484375	0.4599609375	0.7255859375	-2.8125	-1.625	3.9375
19	01	14	15	25	35	0.165706067659	0.274101638989	-0.216363907864	-0.44677734375	0.47900390625	0.76708984375	-0.4375	-0.25	2.4375
19	01	14	15	25	35	0.16564438098	0.274405724718	-0.217339587571	-0.47021484375	0.51220703125	0.79931640625	6.1875	0.5	1.5
19	01	14	15	25	35	0.165584121778	0.274590108323	-0.218683342547	-0.4609375	0.5341796875	0.79248046875	7.0	-0.125	1.75
19	01	14	15	25	35	0.165642868645	0.274220121158	-0.219412716573	-0.41943359375	0.4912109375	0.7890625	4.875	-0.6875	1.5625
19	01	14	15	25	35	0.165218624338	0.274347143111	-0.220271154502	-0.431640625	0.4765625	0.74267578125	6.4375	-0.5	-0.3125
19	01	14	15	25	35	0.164915549988	0.274594766615	-0.220396021838	-0.47802734375	0.4970703125	0.73291015625	0.8125	-2.125	-0.5
19	01	14	15	25	35	0.164733529864	0.274596573123	-0.219481946421	-0.4560546875	0.48193359375	0.73095703125	-5.125	-1.75	-1.4375
19	01	14	15	25	35	0.163996317806	0.275015782671	-0.219109334174	-0.43896484375	0.47802734375	0.72607421875	-0.625	0.4375	-4.5
19	01	14	15	25	35	0.163140362042	0.275806695124	-0.219046299801	-0.47021484375	0.5	0.72900390625	0.5625	0.8125	-4.625
19	01	14	15	25	35	0.162898083557	0.275870864622	-0.218072256481	-0.47216796875	0.4794921875	0.7392578125	-4.9375	-1.6875	-1.5625
19	01	14	15	25	35	0.163023993201	0.275144949962	-0.21673463117	-0.4384765625	0.44091796875	0.76318359375	-5.6875	-2.875	0.5
19	01	14	15	25	35	0.162777221032	0.274957398106	-0.216181821108	-0.4404296875	0.4482421875	0.77783203125	-0.0625	-0.75	-1.0625
19	01	14	15	25	35	0.16283500847	0.27574534043	-0.215994413409	-0.46923828125	0.53125	0.77197265625	-1.9375	3.5	-1.0
19	01	14	15	25	35	0.163145830669	0.276609391916	-0.213987759942	-0.4853515625	0.52880859375	0.77685546875	-12.25	4.875	-2.75
19	01	14	15	25	35	0.163264688863	0.277275320189	-0.211786344058	-0.48095703125	0.4755859375	0.783203125	-10.3125	4.1875	-2.375
19	01	14	15	25	35	0.163512327767	0.278318855774	-0.210936395955	-0.46875	0.4541015625	0.759765625	-2.125	5.4375	0.375
19	01	14	15	25	35	0.163627162824	0.279466161348	-0.211110166434	-0.453125	0.4580078125	0.72314453125	2.375	5.5	0.9375
19	01	14	15	25	35	0.163630839443	0.280815178021	-0.21135904401	-0.4462890625	0.486328125	0.70751953125	1.125	6.25	-1.25
19	01	14	15	25	35	0.163692600409	0.282159169161	-0.21056654415	-0.4599609375	0.49658203125	0.693359375	-5.625	6.0625	-2.75
19	01	14	15	25	35	0.163999083706	0.283504184523	-0.209286512106	-0.4677734375	0.48876953125	0.68798828125	-8.25	6.0625	-1.625
19	01	14	15	25	35	0.164364553358	0.284357391049	-0.208125929057	-0.46435546875	0.4638671875	0.69775390625	-7.0625	4.0625	-0.3125
19	01	14	15	25	35	0.164425606036	0.285028797398	-0.207698714678	-0.47314453125	0.45947265625	0.6953125	-2.5	1.625	-0.0625
19	01	14	15	25	35	0.164116454901	0.285632208603	-0.207754708993	-0.47314453125	0.48193359375	0.701171875	-0.6875	0.4375	-1.625
19	01	14	15	25	35	0.164245846543	0.286072197231	-0.207947082561	-0.4501953125	0.50146484375	0.71630859375	-0.8125	2.1875	-0.75
19	01	14	15	25	35	0.164425577861	0.287164938321	-0.208003849054	-0.453125	0.525390625	0.7265625	-2.125	6.0	-1.75
19	01	14	15	25	35	0.164426510415	0.28838725379	-0.207638822729	-0.46484375	0.52685546875	0.72705078125	-3.5625	6.6875	-3.4375
19	01	14	15	25	35	0.16448905673	0.289305428162	-0.206542103144	-0.490234375	0.50341796875	0.7412109375	-6.875	4.4375	-2.375
19	01	14	15	25	35	0.164971066004	0.289477530913	-0.205252569357	-0.4736328125	0.46875	0.76123046875	-6.8125	2.4375	0.4375
19	01	14	15	25	35	0.164731681498	0.290279317231	-0.20501434537	-0.47216796875	0.44775390625	0.72998046875	0.6875	3.5625	-1.5
19	01	14	15	25	35	0.164240647465	0.292105439899	-0.205621234229	-0.50927734375	0.5078125	0.69384765625	3.0	5.5625	-3.125
19	01	14	15	25	35	0.16424018127	0.293691472416	-0.20501031917	-0.515625	0.53564453125	0.6884765625	-6.5	5.8125	-3.125
19	01	14	15	25	36	0.164301441474	0.294668409894	-0.202996506071	-0.5087890625	0.47216796875	0.7060546875	-11.4375	3.6875	-3.375
19	01	14	15	25	36	0.163938643649	0.295162799958	-0.202207269699	-0.50341796875	0.45654296875	0.73291015625	-2.75	0.875	-2.6875
19	01	14	15	25	36	0.163507953819	0.295827940337	-0.203057470085	-0.48046875	0.4580078125	0.7265625	6.3125	1.9375	-0.875
19	01	14	15	25	36	0.163445104451	0.296801173617	-0.204764124509	-0.44873046875	0.4931640625	0.7060546875	8.3125	5.3125	0.4375
19	01	14	15	25	36	0.163325477814	0.298514541102	-0.205316482574	-0.4794921875	0.48876953125	0.6748046875	2.625	7.375	-1.625
19	01	14	15	25	36	0.163635110653	0.299682354833	-0.204345524232	-0.515625	0.4853515625	0.6728515625	-7.25	3.75	-0.6875
19	01	14	15	25	36	0.16460848086	0.299371375091	-0.202998816219	-0.4609375	0.439453125	0.70654296875	-8.6875	0.4375	3.0625
19	01	14	15	25	36	0.165282310942	0.29949789505	-0.203856321473	-0.439453125	0.45751953125	0.70166015625	3.5	2.25	4.25
19	01	14	15	25	36	0.165578439951	0.300274944547	-0.20598128818	-0.48388671875	0.5205078125	0.67724609375	8.0	1.75	3.5625
19	01	14	15	25	36	0.166072932403	0.300835532456	-0.206782467835	-0.50537109375	0.5322265625	0.6787109375	-0.1875	0.6875	2.875
19	01	14	15	25	36	0.166870488618	0.300842954792	-0.206299287319	-0.51806640625	0.4921875	0.69140625	-5.9375	-1.8125	4.0625
19	01	14	15	25	36	0.167481193118	0.300599444645	-0.206421791226	-0.51123046875	0.47412109375	0.7060546875	-1.4375	-3.0625	4.5
19	01	14	15	25	36	0.167537722366	0.300896528693	-0.207942083825	-0.5107421875	0.4892578125	0.7060546875	7.5	-1.625	3.8125
19	01	14	15	25	36	0.167964563381	0.301933392096	-0.209589502417	-0.52734375	0.52392578125	0.68408203125	6.0625	2.0	4.5625
19	01	14	15	25	36	0.168631951119	0.30357413133	-0.209706617461	-0.5546875	0.521484375	0.66259765625	-2.3125	4.5	3.875
19	01	14	15	25	36	0.169554423211	0.304807339639	-0.208067324956	-0.56982421875	0.48046875	0.6630859375	-10.75	3.1875	3.25
19	01	14	15	25	36	0.169981554415	0.306271971294	-0.206907529431	-0.57470703125	0.4482421875	0.64306640625	-6.125	2.5	3.0
19	01	14	15	25	36	0.170292311016	0.308479333288	-0.207280533409	-0.60546875	0.49169921875	0.634765625	1.25	4.3125	4.1875
19	01	14	15	25	36	0.170715820772	0.31091397605	-0.207947372674	-0.5986328125	0.52490234375	0.61767578125	0.6875	5.5	3.4375
19	01	14	15	25	36	0.171012472942	0.313095641039	-0.207570813874	-0.6044921875	0.5078125	0.61572265625	-4.1875	4.75	1.6875
19	01	14	15	25	36	0.171016800642	0.315178714674	-0.206721593067	-0.63623046875	0.4736328125	0.63818359375	-3.875	3.0625	1.4375
19	01	14	15	25	36	0.171081947355	0.316468033192	-0.206482421656	-0.6376953125	0.494140625	0.68408203125	-1.25	-0.0625	3.0625
19	01	14	15	25	36	0.171326157168	0.317322654477	-0.206848716296	-0.60400390625	0.5	0.7197265625	2.125	0.6875	3.9375
19	01	14	15	25	36	0.171503795482	0.318716306052	-0.207635555953	-0.611328125	0.52099609375	0.73779296875	5.4375	3.8125	3.8125
19	01	14	15	25	36	0.17247752349	0.320481060101	-0.208181469435	-0.583984375	0.54443359375	0.72900390625	1.8125	8.375	5.3125
19	01	14	15	25	36	0.173335771204	0.322197019783	-0.207392588222	-0.58251953125	0.51708984375	0.71826171875	-4.6875	8.9375	2.75
19	01	14	15	25	36	0.174432161169	0.32390184721	-0.206535491041	-0.57275390625	0.51025390625	0.671875	-6.0625	8.0625	3.625
19	01	14	15	25	36	0.176207379521	0.325620495235	-0.205687173185	-0.54150390625	0.52392578125	0.6513671875	-8.875	10.0	6.0
19	01	14	15	25	36	0.178036128847	0.327813523495	-0.204707979483	-0.55322265625	0.5322265625	0.62255859375	-10.0	11.75	5.5
19	01	14	15	25	36	0.179742268553	0.330066617431	-0.203972380816	-0.5673828125	0.53173828125	0.60595703125	-9.1875	10.8125	5.5625
19	01	14	15	25	36	0.181701021851	0.33178594383	-0.20391774068	-0.55029296875	0.54638671875	0.607421875	-6.9375	8.625	7.625
19	01	14	15	25	36	0.183654143411	0.332823544041	-0.204528093908	-0.5107421875	0.5322265625	0.60009765625	-3.8125	6.0	9.0625
19	01	14	15	25	36	0.185539932125	0.333666713463	-0.205619747148	-0.49658203125	0.55712890625	0.58837890625	-2.6875	4.5625	8.4375
19	01	14	15	25	36	0.187317284957	0.334107141693	-0.205810975847	-0.55078125	0.5732421875	0.61181640625	-7.75	0.9375	7.6875
19	01	14	15	25	36	0.189265238173	0.333670769782	-0.205378112368	-0.5498046875	0.54296875	0.63818359375	-10.4375	-2.5	9.1875
19	01	14	15	25	36	0.19042766679	0.333065313356	-0.206296639022	-0.53515625	0.53857421875	0.67236328125	-0.75	-3.8125	7.625
19	01	14	15	25	36	0.191585684525	0.33281832995	-0.208308996904	-0.52392578125	0.58544921875	0.69140625	4.6875	-1.125	7.8125
19	01	14	15	25	36	0.193111593542	0.332818432233	-0.209529741034	-0.52880859375	0.6025390625	0.71484375	0.0	2.0625	7.6875
19	01	14	15	25	36	0.194998154775	0.332564928128	-0.209340742059	-0.521484375	0.57421875	0.7314453125	-6.3125	2.875	7.5625
19	01	14	15	25	36	0.196774800839	0.332271096703	-0.208798571238	-0.501953125	0.54541015625	0.73779296875	-6.6875	3.8125	6.6875
19	01	14	15	25	36	0.198421272996	0.332756930291	-0.208858073268	-0.50927734375	0.5546875	0.69873046875	-3.9375	6.0625	6.625
19	01	14	15	25	36	0.20043440491	0.333426660786	-0.208246708146	-0.52392578125	0.5693359375	0.6787109375	-8.75	6.4375	6.9375
19	01	14	15	25	36	0.2025752425	0.333983647774	-0.207030799205	-0.52734375	0.556640625	0.66845703125	-12.5625	6.3125	7.25
19	01	14	15	25	36	0.204590693179	0.334779221983	-0.20611657842	-0.546875	0.544921875	0.6513671875	-10.3125	5.6875	7.75
19	01	14	15	25	36	0.206781095962	0.335439463816	-0.206170762149	-0.5185546875	0.568359375	0.6357421875	-7.1875	5.1875	9.625
19	01	14	15	25	36	0.209038836218	0.33598796887	-0.206719573218	-0.5048828125	0.60693359375	0.64453125	-6.3125	5.375	8.875
19	01	14	15	25	36	0.211306523544	0.336369223353	-0.206789861862	-0.50830078125	0.60400390625	0.6435546875	-8.6875	4.5625	8.625
19	01	14	15	25	36	0.213436768925	0.336603883507	-0.206967138526	-0.50927734375	0.59375	0.6767578125	-6.6875	4.4375	8.375
19	01	14	15	25	36	0.215331456895	0.337035233837	-0.207152767773	-0.50146484375	0.59228515625	0.67919921875	-5.3125	5.6875	7.1875
19	01	14	15	25	36	0.217342011161	0.337762058345	-0.207088302126	-0.50537109375	0.6123046875	0.671875	-7.875	7.75	6.5
19	01	14	15	25	37	0.219902909655	0.338551606954	-0.205499055456	-0.51416015625	0.6103515625	0.66357421875	-16.9375	9.1875	6.25
19	01	14	15	25	37	0.222779194632	0.339539906777	-0.203003726396	-0.51123046875	0.5810546875	0.6689453125	-20.3125	11.9375	6.6875
19	01	14	15	25	37	0.225279493644	0.34130667257	-0.201597986319	-0.517578125	0.53076171875	0.630859375	-11.4375	13.75	8.625
19	01	14	15	25	37	0.227230049153	0.343805228815	-0.202206057707	-0.51318359375	0.54833984375	0.58251953125	-0.875	13.875	8.875
19	01	14	15	25	37	0.229178877685	0.346057053655	-0.202934691958	-0.50732421875	0.578125	0.5654296875	-2.5	12.375	7.9375
19	01	14	15	25	37	0.231804454184	0.347584614686	-0.202386406023	-0.4892578125	0.5732421875	0.5771484375	-10.75	11.4375	8.75
19	01	14	15	25	37	0.234316072896	0.348513877633	-0.201478863409	-0.4970703125	0.53662109375	0.59326171875	-11.375	8.8125	9.5
19	01	14	15	25	37	0.236384462198	0.349114155376	-0.201350978774	-0.53271484375	0.5234375	0.60302734375	-6.0625	3.75	10.6875
19	01	14	15	25	37	0.238705987091	0.349361562288	-0.202695623403	-0.52880859375	0.58740234375	0.62548828125	-1.0625	2.1875	13.6875
19	01	14	15	25	37	0.241085362327	0.349482223971	-0.203671355465	-0.52685546875	0.611328125	0.64892578125	-3.4375	2.625	12.125
19	01	14	15	25	37	0.243344291572	0.349910414743	-0.2044653566	-0.53466796875	0.65234375	0.70361328125	-3.375	5.8125	10.125
19	01	14	15	25	37	0.245354659088	0.350210207425	-0.203973947929	-0.56396484375	0.6025390625	0.7138671875	-7.125	5.0	8.625
19	01	14	15	25	37	0.247432642404	0.350031130781	-0.204098361174	-0.49755859375	0.56396484375	0.7255859375	-2.8125	5.375	9.8125
19	01	14	15	25	37	0.249693678703	0.350767433758	-0.204772009789	-0.45751953125	0.5595703125	0.65625	-0.3125	9.75	10.25
19	01	14	15	25	37	0.252443868769	0.352115251192	-0.204530803735	-0.47021484375	0.56689453125	0.6044921875	-7.5	12.6875	10.9375
19	01	14	15	25	37	0.255190474266	0.35351906887	-0.202882835795	-0.4990234375	0.53955078125	0.56005859375	-14.875	11.375	9.375
19	01	14	15	25	37	0.257996202319	0.354615078182	-0.200867163906	-0.5498046875	0.54248046875	0.560546875	-17.8125	8.125	10.75
19	01	14	15	25	37	0.260978207301	0.355457689271	-0.199639783929	-0.54296875	0.57568359375	0.5703125	-15.3125	6.4375	12.4375
19	01	14	15	25	37	0.263973894644	0.355891740964	-0.199399471399	-0.5166015625	0.62890625	0.6103515625	-12.125	6.0	12.1875
19	01	14	15	25	37	0.266348294556	0.356616197317	-0.199578121723	-0.53955078125	0.66162109375	0.646484375	-8.125	6.6875	9.1875
19	01	14	15	25	37	0.268426612452	0.357291812027	-0.199275327344	-0.572265625	0.6337890625	0.67626953125	-7.8125	5.75	9.0625
19	01	14	15	25	37	0.270201826926	0.357420803813	-0.198974013052	-0.5634765625	0.5830078125	0.70849609375	-4.75	3.375	9.1875
19	01	14	15	25	37	0.272454463578	0.357474416034	-0.199091948968	-0.4765625	0.5400390625	0.7080078125	-1.5625	7.375	11.0625
19	01	14	15	25	37	0.275147291054	0.358948806275	-0.199036228067	-0.4794921875	0.58984375	0.65478515625	-4.4375	14.9375	10.5
19	01	14	15	25	37	0.278312583818	0.360463622813	-0.196527745591	-0.5380859375	0.60595703125	0.61083984375	-20.375	14.5	9.25
19	01	14	15	25	37	0.281974889282	0.361013305218	-0.19268284101	-0.54833984375	0.5830078125	0.60205078125	-29.6875	10.125	10.25
19	01	14	15	25	37	0.285577092807	0.361258989597	-0.190181282579	-0.5205078125	0.55810546875	0.59814453125	-22.5	8.125	12.6875
19	01	14	15	25	37	0.288633307186	0.362790521867	-0.189818055688	-0.5458984375	0.60986328125	0.576171875	-10.625	10.3125	13.8125
19	01	14	15	25	37	0.291561953415	0.364620286728	-0.189634287055	-0.5615234375	0.69287109375	0.57373046875	-12.6875	11.0	10.875
19	01	14	15	25	37	0.294917058001	0.365106341259	-0.187130732581	-0.5693359375	0.63232421875	0.603515625	-24.375	7.5625	10.5625
19	01	14	15	25	37	0.2980954094	0.364806769448	-0.184570130636	-0.56201171875	0.54833984375	0.6494140625	-20.5	4.125	12.6875
19	01	14	15	25	37	0.301085051228	0.365232707591	-0.184874644267	-0.4970703125	0.5556640625	0.6162109375	-5.375	6.6875	15.375
19	01	14	15	25	37	0.303157440271	0.366266921495	-0.185727419115	-0.5419921875	0.5712890625	0.58740234375	-1.375	4.8125	13.25
19	01	14	15	25	37	0.30492567588	0.366386875962	-0.185726347418	-0.669921875	0.6181640625	0.60791015625	-8.4375	-5.125	12.875
19	01	14	15	25	37	0.308959810737	0.36383038953	-0.184570222771	-0.61572265625	0.625	0.7265625	-19.875	-8.9375	21.1875
19	01	14	15	25	37	0.311830656647	0.361696706066	-0.185609126417	-0.5654296875	0.60009765625	0.794921875	-2.5	-7.0	19.3125
19	01	14	15	25	37	0.313112184035	0.359926422857	-0.188843878637	-0.63720703125	0.67431640625	0.869140625	12.5	-11.875	16.8125
19	01	14	15	25	37	0.314439958377	0.358017235218	-0.193717474357	-0.5146484375	0.75537109375	0.85693359375	16.75	-9.5625	13.8125
19	01	14	15	25	37	0.315430943654	0.357057085986	-0.197449516781	-0.474609375	0.7080078125	0.83984375	15.4375	-2.125	9.5625
19	01	14	15	25	37	0.317067536116	0.358448053823	-0.200616167702	-0.4814453125	0.55517578125	0.92236328125	27.9375	16.3125	16.4375
19	01	14	15	25	37	0.314628296747	0.361807282855	-0.2130683577	-0.6044921875	0.5185546875	0.57080078125	76.3125	-10.125	23.875
19	01	14	15	25	37	0.31267564846	0.361868811188	-0.235773185633	-0.486328125	0.798828125	0.45654296875	117.8125	-33.5	45.75
19	01	14	15	25	37	0.31414514231	0.359860065876	-0.267209526527	-0.71044921875	1.39306640625	0.34033203125	147.625	-50.375	88.75
19	01	14	15	25	37	0.325303715241	0.348374035008	-0.295092582212	-0.490234375	1.61572265625	0.501953125	93.3125	-71.8125	139.875
19	01	14	15	25	37	0.344657177289	0.328910488473	-0.326102939305	-0.10400390625	1.33837890625	0.6728515625	87.5625	-91.875	202.125
19	01	14	15	25	37	0.366276972857	0.306461703169	-0.362675849478	0.05517578125	1.29541015625	0.701171875	113.875	-103.0625	238.6875
19	01	14	15	25	37	0.389828422152	0.282956719132	-0.401791217007	0.2890625	1.2958984375	0.57568359375	130.125	-99.625	263.6875
19	01	14	15	25	37	0.413984900255	0.260243493246	-0.434064663219	0.29296875	1.3955078125	0.48974609375	100.8125	-79.4375	256.9375
19	01	14	15	25	37	0.437917134989	0.236505769767	-0.454762449171	0.21533203125	1.25732421875	0.43994140625	39.0	-64.125	234.5625
19	01	14	15	25	37	0.461915865011	0.214478376011	-0.466005236437	0.13623046875	1.0322265625	0.4248046875	-2.875	-38.625	212.0
19	01	14	15	25	38	0.485834612335	0.196775224895	-0.474177023019	0.134765625	0.93505859375	0.31591796875	-2.375	-11.375	200.4375
19	01	14	15	25	38	0.513425038492	0.183775890501	-0.473813430077	0.20654296875	0.84375	0.3935546875	-26.8125	41.3125	191.4375
19	01	14	15	25	38	0.532759482694	0.175775840321	-0.471604138249	0.173828125	-0.0341796875	0.0615234375	-21.625	40.3125	126.0
19	01	14	15	25	38	0.528249439007	0.187862712104	-0.472708481237	-0.5244140625	-0.63232421875	-0.00390625	67.5	14.625	-28.8125
19	01	14	15	25	38	0.499138425273	0.206723140915	-0.474541606321	-2.11328125	1.1640625	0.51513671875	54.875	-27.0	-207.9375
19	01	14	15	25	38	0.509439470311	0.173332705844	-0.452618079768	-1.66650390625	0.8125	0.93310546875	-239.0625	-61.5625	59.75
19	01	14	15	25	38	0.530491047858	0.149345558457	-0.440468694477	0.73828125	-0.34619140625	1.4384765625	-134.5625	-5.4375	142.75
19	01	14	15	25	38	0.524821971893	0.171380404358	-0.46348389982	1.505859375	0.6865234375	0.51025390625	206.125	30.1875	-29.625
19	01	14	15	25	38	0.514021563665	0.190911832242	-0.469101132549	0.0419921875	1.8857421875	0.193359375	39.5625	31.75	-59.8125
19	01	14	15	25	38	0.520871675561	0.17993082957	-0.45165812036	-0.423828125	1.2373046875	0.42529296875	-139.625	10.8125	20.8125
19	01	14	15	25	38	0.526300459709	0.165159346396	-0.434748715587	0.38623046875	0.6494140625	0.6328125	-141.625	-4.1875	9.4375
19	01	14	15	25	38	0.53117819834	0.15392754409	-0.429007417687	0.826171875	0.68701171875	0.59326171875	-63.625	5.125	1.0
19	01	14	15	25	38	0.532636729638	0.153498496051	-0.421495273849	0.18798828125	0.87353515625	0.6845703125	-41.8125	18.6875	-6.1875
19	01	14	15	25	38	0.534156028276	0.154290041074	-0.41306764161	-0.15869140625	0.90185546875	0.70556640625	-43.0625	11.625	8.5
19	01	14	15	25	38	0.538731712361	0.149467991795	-0.404216622971	0.1845703125	0.80126953125	0.55126953125	-68.1875	15.625	17.0625
19	01	14	15	25	38	0.542046055273	0.14703174723	-0.392572934075	0.07373046875	0.78857421875	0.599609375	-73.875	24.25	3.9375
19	01	14	15	25	38	0.545468546727	0.143553991485	-0.379575796363	0.08154296875	0.94189453125	0.6806640625	-89.875	23.5625	5.0
19	01	14	15	25	38	0.550734227757	0.136417045222	-0.365548851827	0.21142578125	0.7890625	0.75048828125	-97.375	21.25	12.6875
19	01	14	15	25	38	0.554121947354	0.132381375021	-0.354542834253	0.1025390625	0.73681640625	0.69580078125	-73.625	17.6875	8.5
19	01	14	15	25	38	0.558330576137	0.127742227356	-0.344653778251	0.11279296875	0.6806640625	0.6611328125	-69.1875	15.125	16.4375
19	01	14	15	25	38	0.562185111974	0.12359405621	-0.33349033241	0.0361328125	0.76611328125	0.59765625	-82.6875	17.4375	15.9375
19	01	14	15	25	38	0.56467713256	0.120540135842	-0.322864465115	0.04248046875	0.79296875	0.6669921875	-76.875	17.3125	6.9375
19	01	14	15	25	38	0.56835701528	0.115783210694	-0.310911795085	0.02734375	0.66455078125	0.71923828125	-81.0625	15.6875	13.9375
19	01	14	15	25	38	0.57233021757	0.110962603769	-0.299989657604	0.05224609375	0.57275390625	0.6591796875	-74.5	15.125	16.4375
19	01	14	15	25	38	0.575200102721	0.108887625558	-0.288576621993	-0.083984375	0.6474609375	0.7646484375	-68.875	18.0	11.4375
19	01	14	15	25	38	0.580262231311	0.104004085637	-0.278809074643	0.12890625	0.5908203125	0.67041015625	-71.0625	18.9375	24.25
19	01	14	15	25	38	0.584339850971	0.100034783345	-0.268610787981	0.0673828125	0.6123046875	0.69287109375	-71.9375	18.5	18.9375
19	01	14	15	25	38	0.587939425575	0.0975931840023	-0.258356440201	-0.05712890625	0.51904296875	0.77099609375	-60.25	16.8125	17.5625
19	01	14	15	25	38	0.592443427704	0.0939902007484	-0.251698433693	0.00048828125	0.451171875	0.56103515625	-50.0	7.875	28.9375
19	01	14	15	25	38	0.596199120995	0.0921032425861	-0.244021712299	-0.06494140625	0.51171875	0.77099609375	-46.4375	11.25	23.3125
19	01	14	15	25	38	0.599733572257	0.0919192713026	-0.240357297735	0.0732421875	0.55859375	0.7060546875	-26.8125	14.625	22.375
19	01	14	15	25	38	0.604962821706	0.0883763282718	-0.233757829614	0.0126953125	0.443359375	0.62158203125	-48.3125	9.5	34.25
19	01	14	15	25	38	0.609125707246	0.0881950548067	-0.227415068657	-0.11181640625	0.35302734375	0.77001953125	-26.0625	12.75	26.8125
19	01	14	15	25	38	0.614934516211	0.0858772073755	-0.224733388455	0.10791015625	0.46484375	0.81103515625	-21.3125	7.3125	41.1875
19	01	14	15	25	38	0.620979512669	0.0797129195543	-0.220095549704	0.23291015625	0.62451171875	0.9970703125	-50.1875	2.5625	41.5
19	01	14	15	25	38	0.626498571833	0.0729948652617	-0.216421230952	0.26708984375	0.60107421875	0.9990234375	-47.4375	-2.125	39.6875
19	01	14	15	25	38	0.631766860434	0.0672598860205	-0.213986533927	0.181640625	0.53271484375	1.0595703125	-32.9375	-9.0	41.375
19	01	14	15	25	38	0.636521201556	0.0617661766204	-0.213190963375	0.18115234375	0.4873046875	1.0498046875	-22.75	-15.1875	39.875
19	01	14	15	25	38	0.641280397638	0.0566392128113	-0.213434619829	0.1953125	0.43310546875	0.9814453125	-15.5625	-16.1875	40.625
19	01	14	15	25	38	0.645811778147	0.0542601522325	-0.213744716669	0.09326171875	0.439453125	1.00634765625	-5.3125	-12.25	40.0
19	01	14	15	25	38	0.650388257846	0.0510252049136	-0.215026072859	0.173828125	0.52392578125	1.05859375	-8.0	-15.75	42.0625
19	01	14	15	25	38	0.655036771257	0.0468144990266	-0.215822775174	0.2490234375	0.4931640625	1.04541015625	-12.4375	-13.75	41.0625
19	01	14	15	25	38	0.6600870067	0.0443720068304	-0.216489007191	0.14501953125	0.3671875	0.9814453125	0.0625	-11.0	43.3125
19	01	14	15	25	38	0.664432851969	0.0429079822647	-0.218568256743	0.1484375	0.5302734375	0.93212890625	-1.6875	-13.25	42.25
19	01	14	15	25	38	0.669178531888	0.0390008283361	-0.217586780936	0.18115234375	0.50244140625	0.93896484375	-23.5	-9.4375	42.8125
19	01	14	15	25	38	0.674518021077	0.0357065462248	-0.215643124465	0.1259765625	0.35546875	0.85302734375	-17.8125	-4.625	44.75
19	01	14	15	25	38	0.68004456809	0.0332637129428	-0.213681209198	0.0537109375	0.34326171875	0.794921875	-15.25	-4.875	47.4375
19	01	14	15	25	38	0.685471689321	0.0298455752896	-0.21020073885	0.05517578125	0.33642578125	0.85888671875	-24.6875	-4.0	45.75
19	01	14	15	25	38	0.690620836759	0.0269168174115	-0.207766091766	0.13427734375	0.36328125	0.8525390625	-21.0625	-1.5	43.6875
19	01	14	15	25	38	0.695974772113	0.0239865022749	-0.203244408589	0.0576171875	0.388671875	0.869140625	-31.4375	1.375	45.0
19	01	14	15	25	39	0.70110339752	0.0204465603003	-0.198728359217	0.1181640625	0.4189453125	0.89208984375	-36.375	2.75	43.875
19	01	14	15	25	39	0.705973228407	0.0176386498668	-0.193903081754	0.07470703125	0.3388671875	0.9130859375	-30.25	2.9375	40.3125
19	01	14	15	25	39	0.710461004485	0.0156862953739	-0.190799063576	0.07275390625	0.33544921875	0.89697265625	-20.4375	-0.5	39.0625
19	01	14	15	25	39	0.714800292457	0.0146487977278	-0.189335710631	0.08935546875	0.4697265625	1.03759765625	-16.375	-5.5	41.3125
19	01	14	15	25	39	0.719133805368	0.011963183318	-0.189762943549	0.26025390625	0.419921875	1.06103515625	-12.0625	-9.5	41.5625
19	01	14	15	25	39	0.723289398426	0.00885037660521	-0.189764281832	0.23876953125	0.31884765625	0.98583984375	-10.625	-9.625	39.0625
19	01	14	15	25	39	0.726184885173	0.0120237369624	-0.191830483619	0.0400390625	0.52001953125	1.23046875	14.5	-13.5625	32.1875
19	01	14	15	25	39	0.730763402784	0.00732411328273	-0.19390589916	0.3896484375	0.4755859375	1.1953125	-14.75	-18.875	47.875
19	01	14	15	25	39	0.735773532245	0.00238035402385	-0.192503502339	0.25537109375	0.07666015625	1.04150390625	-6.625	-10.5	42.625
19	01	14	15	25	39	0.739044656946	0.00653049618409	-0.191032271553	-0.0908203125	0.3193359375	1.0283203125	13.1875	-0.625	29.5625
19	01	14	15	25	39	0.74517674305	-0.000976560560963	-0.181823369444	0.03076171875	0.22119140625	0.9033203125	-60.9375	2.6875	52.75
19	01	14	15	25	39	0.751277431053	-0.00854487288549	-0.171019527322	-0.0947265625	-0.119140625	0.96337890625	-45.625	0.5625	47.8125
19	01	14	15	25	39	0.756521610875	-0.0116575738344	-0.166013616909	0.04638671875	0.13525390625	0.91455078125	-23.125	1.3125	45.75
19	01	14	15	25	39	0.762816258916	-0.0204467472185	-0.156677015253	0.0283203125	-0.1630859375	0.7587890625	-46.5625	2.125	52.0
19	01	14	15	25	39	0.767752331318	-0.025756537389	-0.148130607211	-0.2041015625	-0.2919921875	0.7275390625	-23.0625	-4.375	38.625
19	01	14	15	25	39	0.771364222788	-0.0247803350571	-0.148926151575	-0.04052734375	-0.0341796875	0.8671875	22.8125	-16.0625	32.0625
19	01	14	15	25	39	0.775252914653	-0.0209346362562	-0.155453406835	0.30322265625	0.18359375	0.966796875	44.625	-10.875	37.5
19	01	14	15	25	39	0.77793716704	-0.0160518966681	-0.158871053335	0.0712890625	0.263671875	0.99072265625	31.5625	-9.875	27.0625
19	01	14	15	25	39	0.78094879537	-0.0128174479897	-0.163330908668	0.22607421875	0.50830078125	0.98486328125	13.1875	-10.125	36.125
19	01	14	15	25	39	0.784006614536	-0.0113526843366	-0.168642294742	0.43896484375	0.41943359375	0.88916015625	13.5625	-4.625	35.75
19	01	14	15	25	39	0.785875704111	-0.00530997097372	-0.172543539571	0.14697265625	0.5537109375	0.93701171875	20.25	-4.0	24.5
19	01	14	15	25	39	0.789305255702	-0.00720213580056	-0.173522644754	0.32763671875	0.501953125	0.9462890625	-20.75	-5.0	40.9375
19	01	14	15	25	39	0.792927726197	-0.0107424586106	-0.174503915726	0.34912109375	0.1728515625	0.8720703125	-7.0625	-7.5	38.5
19	01	14	15	25	39	0.795964166578	-0.00653080023187	-0.177369210036	0.0947265625	0.25927734375	0.83642578125	28.0	-7.25	32.0
19	01	14	15	25	39	0.799008846264	-0.00433348316284	-0.178832474185	0.2099609375	0.47216796875	0.97998046875	2.375	-2.625	36.0
19	01	14	15	25	39	0.803211588192	-0.00921618159704	-0.176206068018	0.25439453125	0.1435546875	1.025390625	-21.8125	-4.375	41.875
19	01	14	15	25	39	0.806446483504	-0.0114134180289	-0.176022981793	0.224609375	0.017578125	0.97509765625	5.25	-8.75	31.5
19	01	14	15	25	39	0.809216066458	-0.00994887757073	-0.177187678453	0.18994140625	0.30078125	1.0517578125	8.625	-7.75	30.9375
19	01	14	15	25	39	0.813190661322	-0.0138553088734	-0.175602306734	0.28271484375	0.21337890625	1.02099609375	-19.1875	-4.5	42.8125
19	01	14	15	25	39	0.816064300753	-0.0164189451685	-0.174138477939	0.29931640625	0.06640625	1.11083984375	-3.9375	-2.375	27.625
19	01	14	15	25	39	0.819479388367	-0.0166019956529	-0.173466439873	0.2744140625	0.16650390625	1.07421875	3.4375	0.6875	34.3125
19	01	14	15	25	39	0.824037713565	-0.0208130405396	-0.169372983864	0.2294921875	-0.0263671875	1.01416015625	-13.875	3.8125	42.625
19	01	14	15	25	39	0.828077339226	-0.0224613002753	-0.166262450951	0.1787109375	-0.10107421875	0.9970703125	4.625	3.8125	35.8125
19	01	14	15	25	39	0.832163415688	-0.0216677433306	-0.164125526242	0.19189453125	0.0087890625	1.0615234375	12.8125	6.375	37.3125
19	01	14	15	25	39	0.835880970668	-0.0226441650323	-0.161744035945	0.27392578125	0.0244140625	0.9736328125	0.9375	9.3125	35.125
19	01	14	15	25	39	0.839078994673	-0.024475934885	-0.158025424981	0.1953125	-0.06298828125	1.0419921875	-2.75	6.625	28.125
19	01	14	15	25	39	0.84202114597	-0.024596587549	-0.156246312966	0.2177734375	-0.01416015625	1.03173828125	8.125	4.0625	27.375
19	01	14	15	25	39	0.844509752001	-0.0253914467211	-0.15643816814	0.384765625	0.13232421875	1.0	0.25	3.625	27.6875
19	01	14	15	25	39	0.847045612866	-0.0274658110527	-0.15515131488	0.326171875	0.12158203125	0.9765625	-10.75	3.625	28.1875
19	01	14	15	25	39	0.849709757745	-0.0280144216926	-0.15484223929	0.33984375	0.20703125	0.89208984375	-6.125	6.0	31.4375
19	01	14	15	25	39	0.852612696265	-0.0300907766668	-0.153627758358	0.35498046875	0.24365234375	0.9169921875	-18.9375	6.625	35.75
19	01	14	15	25	39	0.856147022653	-0.0322878573454	-0.151246333652	0.23876953125	0.18212890625	0.9140625	-18.375	4.6875	41.25
19	01	14	15	25	39	0.859577068953	-0.0319220909652	-0.149844614378	0.169921875	0.1962890625	0.90234375	-3.9375	2.75	39.875
19	01	14	15	25	39	0.863408503633	-0.031799507309	-0.150147385758	0.298828125	0.474609375	0.96240234375	-17.9375	1.0625	52.1875
19	01	14	15	25	39	0.867338332311	-0.035950899207	-0.149785240499	0.3623046875	0.34619140625	0.9541015625	-32.4375	-2.9375	55.8125
19	01	14	15	25	39	0.871599767961	-0.0410774960671	-0.147647047528	0.1728515625	0.0205078125	0.9560546875	-20.8125	-9.625	53.9375
19	01	14	15	25	39	0.876030778664	-0.0425411727673	-0.146422200099	0.11376953125	0.134765625	0.9013671875	-8.0	-7.0625	56.375
19	01	14	15	25	39	0.880494617147	-0.0460205837605	-0.144836664806	0.169921875	0.18701171875	0.9453125	-22.625	-7.8125	60.75
19	01	14	15	25	39	0.884461795177	-0.0493775165481	-0.143188694465	0.1826171875	0.05029296875	1.009765625	-14.375	-7.8125	52.75
19	01	14	15	25	39	0.88862084715	-0.0547491517202	-0.141359013806	0.1689453125	0.02783203125	0.87646484375	-23.9375	-10.5625	58.9375
19	01	14	15	25	40	0.892103853424	-0.0554818283226	-0.140260991733	0.01123046875	0.103515625	0.947265625	-5.375	-14.5	47.1875
19	01	14	15	25	40	0.896014075265	-0.0592663260955	-0.139101912638	0.13427734375	-0.162109375	1.00341796875	-2.25	-14.875	52.25
19	01	14	15	25	40	0.899388484531	-0.0589012478841	-0.14014224367	0.1796875	0.0361328125	0.94580078125	9.8125	-12.25	47.125
19	01	14	15	25	40	0.902792752671	-0.0599990045214	-0.140262169268	0.1572265625	-0.0537109375	0.958984375	5.6875	-12.9375	47.875
19	01	14	15	25	40	0.905729347067	-0.0556658241475	-0.142521600202	0.16796875	0.0751953125	0.99169921875	29.8125	-11.5	39.0
19	01	14	15	25	40	0.908709996313	-0.0562755653278	-0.142947260301	0.1953125	-0.14013671875	1.05224609375	14.6875	-12.625	41.25
19	01	14	15	25	40	0.910937117214	-0.0542595040002	-0.144712355438	0.1796875	-0.07568359375	1.0205078125	25.875	-14.625	30.125
19	01	14	15	25	40	0.913210646048	-0.0493165487239	-0.148254822835	0.23681640625	0.13916015625	0.99462890625	31.3125	-13.5	34.5625
19	01	14	15	25	40	0.915534734621	-0.0473026279554	-0.151429445106	0.3271484375	0.11181640625	0.966796875	18.0625	-11.5625	39.1875
19	01	14	15	25	40	0.917493113462	-0.0445562781285	-0.154848325496	0.3388671875	0.05517578125	1.044921875	25.875	-12.8125	32.625
19	01	14	15	25	40	0.91956918525	-0.0409551920419	-0.15826648728	0.30810546875	0.1318359375	1.06787109375	26.0	-13.75	35.875
19	01	14	15	25	40	0.921863838884	-0.0388178894021	-0.161008792835	0.2998046875	0.1181640625	1.04345703125	19.25	-13.625	40.6875
19	01	14	15	25	40	0.924059084814	-0.037841257106	-0.163754988412	0.3056640625	0.0341796875	1.0166015625	18.125	-15.125	39.75
19	01	14	15	25	40	0.926469476095	-0.036255541788	-0.165652424937	0.26171875	0.1455078125	0.96533203125	12.75	-11.75	44.125
19	01	14	15	25	40	0.928725001573	-0.0344853855079	-0.167360932854	0.30615234375	0.2607421875	1.0224609375	6.0	-8.6875	44.5
19	01	14	15	25	40	0.931262887635	-0.0336909892499	-0.168027705444	0.2919921875	0.18408203125	1.07421875	4.25	-7.3125	47.25
19	01	14	15	25	40	0.934048438375	-0.0327768418877	-0.168400943702	0.29736328125	0.18994140625	1.0439453125	4.625	-4.1875	51.875
19	01	14	15	25	40	0.936852120782	-0.0321052977739	-0.167972964779	0.2236328125	0.119140625	1.1025390625	6.625	-6.5625	50.3125
19	01	14	15	25	40	0.940092812517	-0.0325327534782	-0.166692213413	0.3017578125	0.1220703125	1.01708984375	-0.25	3.5625	59.25
19	01	14	15	25	40	0.943112376255	-0.0355833882576	-0.163512688065	0.23291015625	0.0263671875	1.02734375	-12.9375	5.0	53.25
19	01	14	15	25	40	0.945599476275	-0.0402824278282	-0.159786963718	0.2041015625	-0.0966796875	1.03662109375	-17.4375	3.3125	43.6875
19	01	14	15	25	40	0.947534233027	-0.0458385859961	-0.155887814426	0.14599609375	-0.24609375	1.06005859375	-14.75	-1.25	32.0625
19	01	14	15	25	40	0.948881997283	-0.0481582333627	-0.152958850199	0.10986328125	-0.2607421875	1.01953125	3.0	-2.875	17.5625
19	01	14	15	25	40	0.950011412511	-0.0441894161682	-0.153198114064	0.248046875	0.1474609375	0.87890625	15.4375	2.125	20.1875
19	01	14	15	25	40	0.951105744815	-0.0433957636247	-0.15374673498	0.29541015625	0.17236328125	0.9267578125	-2.625	-2.75	26.6875
19	01	14	15	25	40	0.951991650565	-0.0429699379367	-0.155949135551	0.39794921875	0.1513671875	0.86279296875	-0.4375	-4.6875	28.1875
19	01	14	15	25	40	0.953184426605	-0.043701098127	-0.157226297172	0.24560546875	-0.03662109375	0.94677734375	5.125	-13.25	30.3125
19	01	14	15	25	40	0.954564049484	-0.0416885507895	-0.158758302494	0.21923828125	-0.04345703125	0.94873046875	21.5625	-12.9375	30.9375
