18	12	18	11	22	14	-0.590645587033	0.273746559662	0.0807506573985	0.5400390625	-0.33203125	0.73974609375	-4.4375	4.0	2.625
18	12	18	11	22	14	-0.590970556552	0.275159602245	0.0784339150143	0.53369140625	-0.3544921875	0.77099609375	-4.3125	4.9375	2.625
18	12	18	11	22	14	-0.592349286273	0.274720673623	0.0769046986815	0.52392578125	-0.41357421875	0.79296875	10.0625	9.0	3.75
18	12	18	11	22	14	-0.595296394757	0.270456098141	0.078005618015	0.41650390625	-0.5361328125	0.75634765625	45.125	12.875	-0.8125
18	12	18	11	22	14	-0.601199735884	0.25940090127	0.0838017499866	0.12939453125	-0.53125	0.65869140625	95.1875	13.875	-0.625
18	12	18	11	22	14	-0.607970556111	0.249999738764	0.0969237268452	-0.1318359375	-0.36376953125	0.63623046875	104.5625	-14.875	14.9375
18	12	18	11	22	14	-0.613348998238	0.247378195826	0.1088268747	-0.00244140625	-0.17236328125	0.59033203125	75.125	-55.1875	16.375
18	12	18	11	22	14	-0.615559566762	0.254097617891	0.120731464854	0.27880859375	-0.19970703125	0.61767578125	39.75	-83.4375	12.875
18	12	18	11	22	14	-0.615614585809	0.263128542477	0.130435095169	0.46728515625	-0.23876953125	0.640625	20.625	-76.875	4.8125
18	12	18	11	22	14	-0.612863837278	0.270145936042	0.139040316833	0.48681640625	-0.23486328125	0.6806640625	15.6875	-64.0	-17.4375
18	12	18	11	22	14	-0.606198293724	0.275755526686	0.146544714381	0.4267578125	-0.162109375	0.72509765625	2.6875	-57.25	-44.875
18	12	18	11	22	14	-0.595649098488	0.281802632208	0.153322116549	0.49072265625	-0.10595703125	0.751953125	-13.25	-54.25	-67.875
18	12	18	11	22	14	-0.581253754984	0.287605554288	0.160160648228	0.62451171875	-0.11083984375	0.7880859375	-20.3125	-47.6875	-93.75
18	12	18	11	22	14	-0.564341138625	0.289861136419	0.168154860146	0.72314453125	-0.140625	0.80810546875	-10.0	-33.9375	-118.3125
18	12	18	11	22	14	-0.545843724303	0.286258198253	0.178224720448	0.79150390625	-0.1552734375	0.80859375	13.875	-11.9375	-142.0625
18	12	18	11	22	14	-0.527002428588	0.275037403662	0.19104906202	0.7490234375	-0.04541015625	0.7626953125	47.125	14.6875	-159.875
18	12	18	11	22	14	-0.506665083776	0.260870565963	0.205754487099	0.7587890625	0.126953125	0.724609375	59.75	21.8125	-173.0
18	12	18	11	22	14	-0.483485278034	0.245313386242	0.219127906596	0.79638671875	0.25732421875	0.69287109375	51.1875	31.625	-188.3125
18	12	18	11	22	14	-0.457891144417	0.230898720252	0.230288361488	0.72216796875	0.3369140625	0.7060546875	33.5	28.8125	-195.25
18	12	18	11	22	14	-0.430379408496	0.218760431151	0.23743807957	0.7041015625	0.4931640625	0.716796875	4.0625	26.375	-195.5
18	12	18	11	22	14	-0.402548424184	0.209422842058	0.239758940135	0.76806640625	0.55810546875	0.64306640625	-26.25	25.0625	-185.75
18	12	18	11	22	14	-0.376722328139	0.199225806715	0.23914421284	0.82958984375	0.49267578125	0.6708984375	-33.5625	38.8125	-172.5
18	12	18	11	22	14	-0.355301467873	0.185310987195	0.239817809186	0.74462890625	0.39697265625	0.666015625	-9.5	56.9375	-152.9375
18	12	18	11	22	14	-0.33905220147	0.169739724984	0.242188863264	0.705078125	0.44775390625	0.6181640625	11.3125	66.125	-124.375
18	12	18	11	22	14	-0.327650724756	0.155951490639	0.245554930271	0.75146484375	0.55126953125	0.63818359375	8.3125	78.625	-92.5625
18	12	18	11	22	14	-0.321784572838	0.137881515562	0.243108488926	0.69775390625	0.58154296875	0.68212890625	3.5625	100.0	-64.3125
18	12	18	11	22	14	-0.317877646514	0.118715826127	0.238042016398	0.62646484375	0.552734375	0.6982421875	-5.4375	112.4375	-53.1875
18	12	18	11	22	14	-0.314157669533	0.0980254939323	0.230231732947	0.67919921875	0.54052734375	0.7470703125	-16.8125	126.6875	-54.0
18	12	18	11	22	14	-0.308726410574	0.0760524135181	0.220832770553	0.74951171875	0.5869140625	0.78369140625	-25.25	136.5625	-65.375
18	12	18	11	22	14	-0.299450809682	0.0535910743785	0.21265524275	0.7255859375	0.56689453125	0.8193359375	-19.6875	132.5	-87.6875
18	12	18	11	22	14	-0.2865646042	0.0338750490587	0.206118992201	0.5556640625	0.53125	0.84033203125	-15.75	108.625	-103.625
18	12	18	11	22	14	-0.273512305599	0.0168465512933	0.198435283531	0.51708984375	0.5810546875	0.9287109375	-26.1875	95.375	-100.125
18	12	18	11	22	14	-0.261544224606	0.0053102327983	0.192572235387	0.5234375	0.5771484375	0.93994140625	-33.5625	85.4375	-93.25
18	12	18	11	22	14	-0.250802033213	-0.00720239472356	0.187811598003	0.4677734375	0.5029296875	0.978515625	-19.5	88.3125	-86.75
18	12	18	11	22	14	-0.241155525334	-0.0224614612308	0.188786140182	0.28271484375	0.4765625	0.97412109375	19.625	86.75	-77.75
18	12	18	11	22	14	-0.232733611465	-0.0379039005297	0.193120678383	0.0908203125	0.58837890625	0.95654296875	32.9375	73.875	-64.6875
18	12	18	11	22	14	-0.225771778551	-0.0502325422404	0.195620046027	-0.00439453125	0.61279296875	0.982421875	18.5	56.3125	-51.75
18	12	18	11	22	15	-0.219855298137	-0.0579851563661	0.197149531645	0.03369140625	0.5283203125	0.986328125	13.3125	37.375	-43.25
18	12	18	11	22	15	-0.214546389004	-0.0638450989754	0.1999584553	0.0546875	0.447265625	0.96875	23.1875	28.5625	-38.0
18	12	18	11	22	15	-0.208863746471	-0.0703740209472	0.205018505084	-0.0009765625	0.48046875	0.9443359375	35.6875	26.25	-37.8125
18	12	18	11	22	15	-0.204715687186	-0.0775771134209	0.21045309762	-0.052734375	0.52490234375	0.93212890625	35.8125	28.9375	-28.75
18	12	18	11	22	15	-0.202212644454	-0.083009114536	0.214908156089	-0.0732421875	0.5556640625	0.9375	27.1875	22.0	-17.375
18	12	18	11	22	15	-0.199771173117	-0.0862440169917	0.219913087913	-0.0576171875	0.6103515625	0.92529296875	24.375	10.625	-15.3125
18	12	18	11	22	15	-0.197022955986	-0.088928886887	0.224733123897	-0.06005859375	0.65576171875	0.9326171875	21.3125	7.6875	-16.875
18	12	18	11	22	15	-0.195506605942	-0.0914358088359	0.22767394323	-0.09228515625	0.634765625	0.92138671875	11.4375	8.375	-10.0625
18	12	18	11	22	15	-0.19470641057	-0.0925313223898	0.227544043449	-0.08837890625	0.5927734375	0.94873046875	-4.6875	5.4375	-6.75
18	12	18	11	22	15	-0.193791248712	-0.0924704698577	0.225530287871	-0.07568359375	0.5400390625	0.96435546875	-13.4375	1.5	-7.6875
18	12	18	11	22	15	-0.192143003518	-0.092653455953	0.224553402142	-0.08642578125	0.49658203125	0.947265625	-5.0625	0.375	-10.625
18	12	18	11	22	15	-0.190743088701	-0.0936319673814	0.224741136831	-0.0966796875	0.453125	0.9248046875	4.5625	3.375	-9.0625
18	12	18	11	22	15	-0.18982766721	-0.094486568759	0.225412725082	-0.099609375	0.49072265625	0.91796875	4.75	2.6875	-5.5
18	12	18	11	22	15	-0.18902662745	-0.0957035039851	0.226502361791	-0.09423828125	0.5673828125	0.90380859375	2.625	4.75	-5.75
18	12	18	11	22	15	-0.188488112897	-0.0969908067981	0.225660800965	-0.11376953125	0.58056640625	0.88671875	-10.0625	6.3125	-5.75
18	12	18	11	22	15	-0.188904559469	-0.0972904257815	0.221253320864	-0.09765625	0.5087890625	0.9072265625	-27.625	6.875	-2.125
18	12	18	11	22	15	-0.189581777297	-0.0972934169387	0.214668097474	-0.07275390625	0.47705078125	0.94140625	-38.5	9.375	-2.75
18	12	18	11	22	15	-0.189639162658	-0.098207084878	0.208499317553	-0.091796875	0.48388671875	0.93212890625	-35.875	12.5625	-6.75
18	12	18	11	22	15	-0.189886545936	-0.100345059955	0.202338122719	-0.15087890625	0.45947265625	0.92529296875	-34.375	15.9375	-4.75
18	12	18	11	22	15	-0.19189845847	-0.102052869771	0.194889242332	-0.18359375	0.44140625	0.96484375	-41.4375	15.8125	5.1875
18	12	18	11	22	15	-0.195192373728	-0.102051797646	0.187013581333	-0.13916015625	0.4736328125	0.98486328125	-48.625	11.375	12.125
18	12	18	11	22	15	-0.197449590337	-0.101562942294	0.178162396969	-0.1220703125	0.47900390625	0.919921875	-58.125	9.125	5.5625
18	12	18	11	22	15	-0.199778502685	-0.10175092086	0.167672333295	-0.19287109375	0.44091796875	0.9150390625	-65.4375	9.9375	5.6875
18	12	18	11	22	15	-0.202889395051	-0.101688848422	0.15705006422	-0.2158203125	0.39453125	0.9296875	-64.875	8.75	11.25
18	12	18	11	22	15	-0.206116782669	-0.100464383853	0.146790305691	-0.15625	0.3505859375	0.939453125	-62.5625	6.0625	12.0625
18	12	18	11	22	15	-0.208685043109	-0.0991238695553	0.138065389738	-0.11669921875	0.2890625	0.9052734375	-51.625	5.1875	9.0
18	12	18	11	22	15	-0.210031911706	-0.098881632364	0.131659062351	-0.14794921875	0.26318359375	0.88671875	-35.8125	5.5625	3.4375
18	12	18	11	22	15	-0.210941378047	-0.099794315135	0.12695545901	-0.2021484375	0.291015625	0.86865234375	-27.6875	6.1875	2.5
18	12	18	11	22	15	-0.21222397005	-0.100832326294	0.122500289874	-0.22900390625	0.322265625	0.83544921875	-29.5625	5.0	5.0625
18	12	18	11	22	15	-0.213682224905	-0.101134374941	0.116942343022	-0.21826171875	0.26953125	0.8251953125	-33.875	3.25	5.4375
18	12	18	11	22	15	-0.214848689964	-0.101076542778	0.111452757919	-0.2119140625	0.220703125	0.80615234375	-31.625	0.9375	4.5625
18	12	18	11	22	15	-0.215698216073	-0.101318347108	0.107604967441	-0.2431640625	0.181640625	0.7763671875	-19.9375	-1.6875	4.25
18	12	18	11	22	15	-0.216617370228	-0.102357658459	0.106263973392	-0.28759765625	0.17626953125	0.75146484375	-5.3125	-3.125	6.875
18	12	18	11	22	15	-0.217598977864	-0.103763888462	0.107670293675	-0.328125	0.16552734375	0.734375	11.3125	-7.1875	10.3125
18	12	18	11	22	15	-0.218997767428	-0.10583671369	0.112733800569	-0.37841796875	0.22412109375	0.70947265625	28.4375	-10.9375	15.0
18	12	18	11	22	15	-0.221683888159	-0.109438108885	0.1218895167	-0.43896484375	0.3154296875	0.708984375	48.0625	-10.0625	26.0625
18	12	18	11	22	15	-0.228403529648	-0.115422521262	0.133489716553	-0.46923828125	0.4326171875	0.6640625	56.0	1.625	49.9375
18	12	18	11	22	15	-0.244392124299	-0.124576504919	0.140079901415	-0.4248046875	0.62060546875	0.67333984375	17.125	37.6875	95.375
18	12	18	11	22	15	-0.266066601178	-0.132026166173	0.130927474083	-0.4052734375	0.66455078125	0.64306640625	-57.4375	70.25	113.75
18	12	18	11	22	15	-0.282780934415	-0.135927723061	0.108766592948	-0.64404296875	0.20947265625	0.87158203125	-123.875	62.0	77.5
18	12	18	11	22	15	-0.29717937315	-0.136962520712	0.0810544685855	-0.828125	-0.17333984375	0.91259765625	-151.625	50.4375	62.625
18	12	18	11	22	15	-0.306333297531	-0.134337435319	0.0609736928139	-0.265625	-0.50732421875	1.46728515625	-106.1875	26.5	39.25
18	12	18	11	22	15	-0.294319349275	-0.13562372337	0.0648210595044	0.08154296875	-1.01171875	1.81103515625	31.0625	-6.75	-68.0625
18	12	18	11	22	15	-0.278563125873	-0.141722957554	0.087585031908	0.48046875	-0.3427734375	1.64453125	157.625	1.0	-73.8125
18	12	18	11	22	15	-0.278631132884	-0.158145293604	0.124697350379	0.4111328125	0.73876953125	0.9013671875	223.9375	45.5	28.25
18	12	18	11	22	15	-0.280951421177	-0.180424158375	0.157230254389	-0.9013671875	0.6376953125	0.361328125	208.625	66.125	44.625
18	12	18	11	22	15	-0.270762513591	-0.189033251711	0.146856313728	-2.18115234375	0.69384765625	0.390625	-33.75	50.0	-77.5625
18	12	18	11	22	15	-0.285473146529	-0.180427329728	0.114140428482	-0.02392578125	0.34814453125	0.69873046875	-207.625	18.25	45.75
18	12	18	11	22	15	-0.294567160655	-0.181342526794	0.077822861549	-0.0693359375	0.13623046875	0.744140625	-201.875	72.125	8.8125
18	12	18	11	22	15	-0.292786322956	-0.191101517026	0.0488892734392	-0.8486328125	-0.09912109375	0.78271484375	-132.5625	90.75	-41.0625
18	12	18	11	22	15	-0.294804680333	-0.203799757274	0.0360113377633	-0.51171875	0.25146484375	1.04248046875	-51.625	86.625	-2.0
18	12	18	11	22	16	-0.2946107601	-0.2124590959	0.0416861713587	0.013671875	0.4375	1.2294921875	34.875	72.125	-4.0
18	12	18	11	22	16	-0.285957490567	-0.205755112209	0.0625017012466	0.46630859375	0.80224609375	1.642578125	85.6875	-4.875	-51.1875
18	12	18	11	22	16	-0.273631157021	-0.207283383726	0.0880771268305	0.21826171875	0.490234375	1.22265625	151.9375	-29.125	-42.1875
18	12	18	11	22	16	-0.277839755814	-0.210760254136	0.106265161439	-0.30322265625	0.677734375	1.0810546875	81.1875	3.4375	39.3125
18	12	18	11	22	16	-0.284299060836	-0.218503786559	0.101500501969	-0.76708984375	0.53857421875	0.56640625	-40.0625	22.75	33.25
18	12	18	11	22	16	-0.291927525504	-0.215512459242	0.0808095429162	-0.7275390625	0.083984375	0.625	-122.875	14.3125	18.8125
18	12	18	11	22	16	-0.296687525521	-0.210385085471	0.0565177224095	-0.50390625	-0.25341796875	0.76123046875	-137.4375	10.75	-1.0625
18	12	18	11	22	16	-0.298401302438	-0.210327446963	0.040039119329	-0.5078125	-0.1513671875	0.80908203125	-69.0625	16.625	-0.4375
18	12	18	11	22	16	-0.297785061696	-0.214107398326	0.0391838511189	-0.5400390625	0.00048828125	0.85302734375	14.875	10.0	3.5625
18	12	18	11	22	16	-0.296264245598	-0.219543158512	0.0515746369037	-0.44091796875	0.22021484375	0.76171875	75.5625	1.5625	9.4375
18	12	18	11	22	16	-0.295104495106	-0.226989372761	0.0657347551664	-0.50830078125	0.48193359375	0.6435546875	71.625	3.875	9.0
18	12	18	11	22	16	-0.295175344346	-0.232917517375	0.0714744268465	-0.5908203125	0.52587890625	0.60595703125	19.9375	4.0	5.875
18	12	18	11	22	16	-0.294622044349	-0.241154277444	0.0588999943643	-1.173828125	0.03662109375	0.3583984375	-47.8125	4.375	-1.3125
18	12	18	11	22	16	-0.293218393803	-0.249028111307	0.0408943221999	-1.7822265625	-0.27197265625	0.2841796875	-79.5625	72.3125	-33.9375
18	12	18	11	22	16	-0.307750122992	-0.254403513017	0.0204474992468	-0.494140625	0.009765625	0.64697265625	-116.625	71.75	57.25
18	12	18	11	22	16	-0.313294727437	-0.256653872759	0.0111084434821	-0.02587890625	0.3564453125	1.01513671875	-61.625	63.9375	7.8125
18	12	18	11	22	16	-0.304876525642	-0.256413670515	0.0076905790252	-0.25732421875	-0.072265625	0.93701171875	9.5625	14.625	-48.875
18	12	18	11	22	16	-0.289744854544	-0.262461106918	0.0248422489571	-0.06396484375	0.0712890625	1.384765625	126.4375	7.125	-59.8125
18	12	18	11	22	16	-0.27661829325	-0.267645899361	0.054444730269	-0.103515625	0.67236328125	1.12548828125	179.4375	-17.875	-32.375
18	12	18	11	22	16	-0.277712293878	-0.265993445433	0.0786749773205	-0.3662109375	0.830078125	0.990234375	94.625	-34.9375	27.0625
18	12	18	11	22	16	-0.283936269845	-0.262390804828	0.0749513627191	-0.7431640625	0.54150390625	0.8779296875	-49.1875	-26.6875	28.25
18	12	18	11	22	16	-0.288818681617	-0.255676554796	0.060058660759	-0.76904296875	0.2001953125	0.8798828125	-93.5625	-31.0625	11.75
18	12	18	11	22	16	-0.294628730561	-0.246714176285	0.0441912577017	-0.578125	-0.00732421875	0.830078125	-93.75	-31.4375	17.5625
18	12	18	11	22	16	-0.297065441575	-0.241094821085	0.0320442483721	-0.55615234375	-0.08740234375	0.81640625	-60.5625	-20.0625	6.0625
18	12	18	11	22	16	-0.29676010403	-0.239873963151	0.027954777385	-0.59033203125	-0.0166015625	0.7958984375	-11.625	-13.125	0.4375
18	12	18	11	22	16	-0.295603898501	-0.24097546795	0.0302745268752	-0.55712890625	0.10400390625	0.7685546875	19.9375	-9.8125	1.5625
18	12	18	11	22	16	-0.294750911827	-0.243601343778	0.0355849620201	-0.51025390625	0.23681640625	0.7802734375	30.375	-2.5625	3.5625
18	12	18	11	22	16	-0.293582782369	-0.24609683545	0.0396123130473	-0.47607421875	0.306640625	0.7958984375	20.75	1.5	-2.5
18	12	18	11	22	16	-0.291500975351	-0.247373001067	0.0404048671864	-0.47265625	0.29833984375	0.81005859375	3.1875	0.375	-12.3125
18	12	18	11	22	16	-0.289547044302	-0.24731126128	0.0380854459622	-0.43896484375	0.23779296875	0.87646484375	-11.1875	1.9375	-15.6875
18	12	18	11	22	16	-0.288817630972	-0.246886584379	0.0357054763564	-0.369140625	0.22265625	0.93798828125	-12.3125	6.875	-9.375
18	12	18	11	22	16	-0.289376473027	-0.247627156944	0.0347300597242	-0.353515625	0.22119140625	0.9228515625	-4.9375	12.875	0.4375
18	12	18	11	22	16	-0.291196731203	-0.248655519372	0.0341794528346	-0.37060546875	0.22705078125	0.93603515625	-3.8125	13.8125	8.25
18	12	18	11	22	16	-0.29265929669	-0.24859255796	0.0338740166138	-0.35107421875	0.1904296875	0.958984375	-1.5625	9.1875	7.1875
18	12	18	11	22	16	-0.292972431886	-0.247927920483	0.0336918296669	-0.37939453125	0.16796875	0.94677734375	0.875	2.375	1.6875
18	12	18	11	22	16	-0.293164610108	-0.246348608452	0.0327773049402	-0.43212890625	0.16845703125	0.95166015625	-4.5625	-4.6875	0.625
18	12	18	11	22	16	-0.293766446086	-0.24341171556	0.0311283788705	-0.443359375	0.1396484375	0.9619140625	-9.875	-11.75	2.1875
18	12	18	11	22	16	-0.293942216895	-0.238583913173	0.0294186354948	-0.39794921875	0.12158203125	0.9814453125	-11.5625	-19.75	-1.0
18	12	18	11	22	16	-0.292479696245	-0.234130240984	0.0296019725957	-0.4345703125	0.1240234375	0.98779296875	0.625	-24.6875	-7.3125
18	12	18	11	22	16	-0.289793278783	-0.229490886315	0.0329587975027	-0.45556640625	0.1728515625	1.01318359375	16.1875	-32.875	-10.75
18	12	18	11	22	16	-0.287357367808	-0.22430720618	0.0390019876867	-0.4052734375	0.27294921875	0.9853515625	23.1875	-38.4375	-9.0
18	12	18	11	22	16	-0.286015728199	-0.21905899456	0.0446785132398	-0.3525390625	0.30712890625	0.95703125	17.75	-36.1875	-4.0625
18	12	18	11	22	16	-0.285154217861	-0.213926698117	0.0474239784414	-0.3388671875	0.25830078125	0.943359375	4.4375	-30.4375	-3.8125
18	12	18	11	22	16	-0.284428868592	-0.210391912025	0.0502328237879	-0.33984375	0.25	0.896484375	7.375	-23.5625	-2.4375
18	12	18	11	22	16	-0.284309654311	-0.207769442523	0.0535903556214	-0.3662109375	0.2861328125	0.90869140625	9.0625	-20.5625	1.9375
18	12	18	11	22	16	-0.285221188393	-0.204470571607	0.0562751841854	-0.35107421875	0.31298828125	0.90380859375	2.0	-22.1875	6.1875
18	12	18	11	22	16	-0.28729272181	-0.200439621505	0.0543213346953	-0.3271484375	0.2138671875	0.984375	-18.4375	-15.375	9.5
18	12	18	11	22	16	-0.290904280293	-0.195808000667	0.0524311323482	-0.35498046875	0.15283203125	1.0751953125	-15.875	-18.1875	20.125
18	12	18	11	22	16	-0.295171158491	-0.188052592909	0.0550546701734	-0.36474609375	0.19384765625	1.17822265625	1.375	-41.875	29.25
18	12	18	11	22	16	-0.300784836777	-0.175722310284	0.0628669606087	-0.2890625	0.3486328125	1.20703125	11.1875	-71.75	39.5
18	12	18	11	22	17	-0.308243012722	-0.158150028904	0.0697666858498	-0.1455078125	0.35888671875	1.19384765625	-1.9375	-100.75	51.875
18	12	18	11	22	17	-0.317933309749	-0.135986833197	0.0772707948056	0.02294921875	0.27783203125	1.2138671875	-7.625	-123.3125	67.0625
18	12	18	11	22	17	-0.329352081393	-0.11004851793	0.087587145441	0.216796875	0.25341796875	1.1767578125	0.375	-145.0625	81.625
18	12	18	11	22	17	-0.340330386879	-0.0808101564254	0.0990595799686	0.31689453125	0.32861328125	1.1875	-0.375	-164.4375	82.8125
18	12	18	11	22	17	-0.351997873589	-0.0495006546698	0.109072342657	0.38818359375	0.37841796875	1.20654296875	-12.5625	-171.75	89.5625
18	12	18	11	22	17	-0.3629888673	-0.0172735580034	0.11529947374	0.36474609375	0.3798828125	1.13525390625	-34.5	-171.0	86.6875
18	12	18	11	22	17	-0.372013586696	0.0144044637343	0.119264076851	0.3671875	0.31640625	1.07666015625	-44.6875	-165.8125	77.0625
18	12	18	11	22	17	-0.380673182301	0.0439449561097	0.124205535671	0.3876953125	0.29541015625	1.09912109375	-33.875	-157.75	75.6875
18	12	18	11	22	17	-0.390138513677	0.0706180006766	0.131104118802	0.3798828125	0.3525390625	1.05712890625	-17.625	-148.0	81.5625
18	12	18	11	22	17	-0.400092242047	0.0948502431946	0.136598998886	0.37939453125	0.39892578125	1.0078125	-19.5625	-132.5625	85.0625
18	12	18	11	22	17	-0.409850721525	0.116577048118	0.138671755667	0.30712890625	0.390625	0.9794921875	-31.875	-114.1875	84.1875
18	12	18	11	22	17	-0.419689424565	0.136661521466	0.139713364286	0.20166015625	0.396484375	0.9169921875	-33.375	-105.0625	85.4375
18	12	18	11	22	17	-0.430977459405	0.153262200902	0.141726336318	0.20263671875	0.375	0.8896484375	-30.8125	-98.375	98.125
18	12	18	11	22	17	-0.444356684582	0.171944063251	0.141974402244	0.2705078125	0.29345703125	0.83984375	-28.1875	-94.8125	108.9375
18	12	18	11	22	17	-0.458701893468	0.188180696948	0.142463103041	0.32470703125	0.20703125	0.8369140625	-17.8125	-82.8125	113.375
18	12	18	11	22	17	-0.474011717285	0.20209281431	0.144107863058	0.31982421875	0.197265625	0.82275390625	-4.625	-74.75	117.0
18	12	18	11	22	17	-0.489224539415	0.214916981071	0.144905683914	0.34619140625	0.2080078125	0.794921875	-6.125	-67.4375	117.875
18	12	18	11	22	17	-0.50417739715	0.227490212976	0.144111723326	0.375	0.1669921875	0.78369140625	-13.0625	-62.0	118.4375
18	12	18	11	22	17	-0.518376329668	0.240053468101	0.141847002255	0.4013671875	0.10107421875	0.8017578125	-20.0	-58.25	116.125
18	12	18	11	22	17	-0.531872939426	0.251653905124	0.139712779245	0.41845703125	0.05908203125	0.78271484375	-17.625	-54.4375	111.5
18	12	18	11	22	17	-0.544949901204	0.261549095728	0.138007585867	0.40966796875	-0.01318359375	0.76708984375	-10.125	-48.1875	106.25
18	12	18	11	22	17	-0.55830927757	0.268991908413	0.137517306479	0.39501953125	-0.01220703125	0.76708984375	3.0	-41.3125	104.25
18	12	18	11	22	17	-0.571301064961	0.274602937101	0.136111257998	0.37841796875	-0.05810546875	0.75048828125	4.125	-29.5	100.25
18	12	18	11	22	17	-0.583808057292	0.277408010496	0.133668546311	0.35791015625	-0.06005859375	0.7060546875	5.0625	-18.5	94.5
18	12	18	11	22	17	-0.59530767816	0.279250756442	0.13037805809	0.35400390625	-0.1103515625	0.6962890625	4.625	-10.5625	86.0625
18	12	18	11	22	17	-0.605542583697	0.280401434281	0.126101298046	0.34130859375	-0.1455078125	0.72900390625	0.75	-5.0	76.4375
18	12	18	11	22	17	-0.614616407049	0.280636170766	0.121702593412	0.31201171875	-0.1884765625	0.7392578125	2.1875	-1.375	65.8125
18	12	18	11	22	17	-0.622565150264	0.281191926203	0.117982199555	0.28662109375	-0.20849609375	0.70751953125	2.9375	-4.875	57.625
18	12	18	11	22	17	-0.630265179687	0.282233797296	0.114199704745	0.30908203125	-0.23583984375	0.77734375	0.625	-8.4375	56.6875
18	12	18	11	22	17	-0.638573302417	0.283274583877	0.111332221718	0.34375	-0.2734375	0.78955078125	7.0	-10.625	60.75
18	12	18	11	22	17	-0.646590751369	0.284722093179	0.109799581057	0.416015625	-0.30126953125	0.79931640625	11.6875	-14.125	58.6875
18	12	18	11	22	17	-0.654106661607	0.285397289323	0.109862087421	0.44482421875	-0.2880859375	0.83203125	18.1875	-16.1875	53.4375
18	12	18	11	22	17	-0.661626253724	0.286196079678	0.111206921982	0.44921875	-0.2646484375	0.8095703125	21.75	-21.0625	54.5
18	12	18	11	22	17	-0.668596011235	0.287360783357	0.113101005004	0.45849609375	-0.25537109375	0.80126953125	20.75	-24.4375	51.4375
18	12	18	11	22	17	-0.674207809657	0.290105895283	0.114199059557	0.455078125	-0.26318359375	0.76318359375	9.5625	-25.6875	45.75
18	12	18	11	22	17	-0.680171775265	0.292539780944	0.114013000376	0.45849609375	-0.3046875	0.7509765625	8.625	-19.4375	48.625
18	12	18	11	22	17	-0.685869642619	0.293769741917	0.113650375951	0.46435546875	-0.33251953125	0.72265625	13.4375	-11.5625	43.6875
18	12	18	11	22	17	-0.689952719405	0.294560493971	0.112550673618	0.4248046875	-0.3095703125	0.67041015625	7.625	-4.875	31.3125
18	12	18	11	22	17	-0.692156218673	0.296028012395	0.109194662717	0.33251953125	-0.267578125	0.69677734375	-11.125	-2.5625	20.5625
18	12	18	11	22	17	-0.689995205677	0.300961199398	0.105467643999	0.36865234375	-0.31689453125	0.75390625	-34.6875	-11.6875	-5.9375
18	12	18	11	22	17	-0.686583645233	0.30804406236	0.101135132025	0.3466796875	-0.4658203125	0.74609375	-40.0	-18.75	-15.25
18	12	18	11	22	17	-0.687038268095	0.3093991632	0.10120019976	0.44287109375	-0.609375	0.82177734375	13.3125	-13.75	-7.375
18	12	18	11	22	17	-0.68822719934	0.305722777713	0.10668864353	0.5771484375	-0.4287109375	0.72412109375	46.5625	-3.625	-10.6875
18	12	18	11	22	17	-0.688831079838	0.299738563981	0.111875542207	0.57080078125	-0.1357421875	0.74560546875	36.6875	7.8125	-9.9375
18	12	18	11	22	17	-0.68751746634	0.294563147422	0.117739807579	0.6806640625	-0.107421875	0.80419921875	29.875	7.4375	-21.125
18	12	18	11	22	17	-0.683790980504	0.292852729131	0.121584542816	0.70166015625	-0.10400390625	0.86962890625	3.5625	1.1875	-29.4375
18	12	18	11	22	17	-0.681933730172	0.291620814711	0.125791230456	0.677734375	-0.16455078125	0.93798828125	10.125	-9.0625	-16.6875
18	12	18	11	22	17	-0.681885530232	0.290466634298	0.13171401488	0.701171875	-0.20166015625	0.8935546875	24.375	-15.8125	-5.4375
18	12	18	11	22	17	-0.683307850442	0.287727843411	0.138614750188	0.662109375	-0.16015625	0.845703125	36.875	-15.0	1.625
18	12	18	11	22	17	-0.684534198538	0.285105594416	0.144475474627	0.58056640625	-0.19580078125	0.79736328125	34.9375	-14.125	-1.375
18	12	18	11	22	18	-0.685070056535	0.284184442554	0.147646513432	0.54638671875	-0.22412109375	0.806640625	18.4375	-12.125	-1.75
18	12	18	11	22	18	-0.685071291789	0.28516153557	0.148989577981	0.5927734375	-0.23876953125	0.81689453125	3.875	-10.0625	-0.125
18	12	18	11	22	18	-0.685058403623	0.286376873646	0.148376423664	0.58349609375	-0.27587890625	0.83349609375	-3.1875	-4.3125	0.3125
18	12	18	11	22	18	-0.685428034769	0.286805550791	0.147705774189	0.57275390625	-0.27685546875	0.84033203125	0.25	-1.5	1.375
18	12	18	11	22	18	-0.686158246463	0.285522885336	0.147888403414	0.572265625	-0.23681640625	0.8271484375	8.75	2.625	0.6875
18	12	18	11	22	18	-0.686894548713	0.284120679248	0.148499594546	0.595703125	-0.21875	0.82568359375	10.1875	3.0	1.1875
18	12	18	11	22	18	-0.687944577201	0.281806415841	0.149600936804	0.61865234375	-0.17431640625	0.80029296875	14.0	6.8125	3.125
18	12	18	11	22	18	-0.688896834598	0.27996542751	0.150633240701	0.6337890625	-0.14306640625	0.7939453125	10.4375	6.75	4.4375
18	12	18	11	22	18	-0.688918084452	0.278875407802	0.151675506323	0.642578125	-0.12744140625	0.7939453125	4.8125	4.1875	0.25
18	12	18	11	22	18	-0.688770855224	0.277888675572	0.152158240325	0.6162109375	-0.13671875	0.79150390625	2.25	5.0625	-1.6875
18	12	18	11	22	18	-0.689157819324	0.2760049295	0.151918679683	0.59423828125	-0.15673828125	0.77734375	5.6875	11.625	-0.4375
18	12	18	11	22	18	-0.68946538051	0.27386961423	0.15149195064	0.57275390625	-0.14501953125	0.75146484375	5.4375	13.4375	-1.0625
18	12	18	11	22	18	-0.688920249327	0.272650549636	0.151675982952	0.5869140625	-0.1669921875	0.7958984375	3.0	6.5	-6.9375
18	12	18	11	22	18	-0.688422755635	0.272768977297	0.151124633651	0.59228515625	-0.197265625	0.822265625	-2.9375	3.1875	-3.8125
18	12	18	11	22	18	-0.688721398427	0.271972930821	0.150695952917	0.55126953125	-0.19287109375	0.80419921875	3.0	4.25	0.0
18	12	18	11	22	18	-0.688866975973	0.269967981103	0.1516776923	0.580078125	-0.21435546875	0.833984375	13.375	4.5625	-6.0625
18	12	18	11	22	18	-0.689044367182	0.266364568906	0.152775095319	0.5771484375	-0.1220703125	0.82080078125	14.75	11.5	-6.125
18	12	18	11	22	18	-0.688556020243	0.263739966623	0.15375167228	0.5966796875	-0.0751953125	0.837890625	7.0625	8.9375	-7.0625
18	12	18	11	22	18	-0.687752854311	0.263309000133	0.152895003554	0.6201171875	-0.15234375	0.86572265625	-5.0625	7.625	-5.9375
18	12	18	11	22	18	-0.687799371023	0.262387922267	0.151426944672	0.576171875	-0.16064453125	0.88916015625	-3.25	8.5625	-0.6875
18	12	18	11	22	18	-0.688247629948	0.259893438127	0.15094327677	0.52685546875	-0.15625	0.8662109375	7.375	9.625	-2.4375
18	12	18	11	22	18	-0.689207006122	0.255919675582	0.150756403217	0.4736328125	-0.1044921875	0.82666015625	13.0625	13.125	-0.75
18	12	18	11	22	18	-0.690008099057	0.252565547448	0.150574965093	0.4541015625	-0.064453125	0.79931640625	8.75	10.6875	0.5625
18	12	18	11	22	18	-0.690508551808	0.249335051192	0.150394508234	0.435546875	-0.04296875	0.830078125	6.125	8.5625	-0.625
18	12	18	11	22	18	-0.691911904308	0.246832369533	0.150760621352	0.4560546875	-0.017578125	0.810546875	6.6875	4.5	8.75
18	12	18	11	22	18	-0.693484762447	0.244385934592	0.151856195121	0.48046875	-0.02099609375	0.7978515625	10.0625	3.3125	10.0625
18	12	18	11	22	18	-0.69464159072	0.240783856901	0.154174910654	0.4755859375	-0.0390625	0.81982421875	19.6875	1.9375	2.6875
18	12	18	11	22	18	-0.694938478553	0.236386503376	0.158567553775	0.48779296875	0.0068359375	0.814453125	27.3125	-1.9375	-5.25
18	12	18	11	22	18	-0.694821823178	0.231505549483	0.163634689735	0.48828125	0.078125	0.8642578125	26.75	-4.6875	-7.875
18	12	18	11	22	18	-0.694349601633	0.22821494027	0.16864345546	0.5166015625	0.06494140625	0.85693359375	21.375	-9.3125	-7.125
18	12	18	11	22	18	-0.693372099036	0.224613496871	0.173831314969	0.45751953125	-0.04931640625	0.85791015625	30.0	-12.1875	-16.75
18	12	18	11	22	18	-0.691844693361	0.219669082612	0.180300769668	0.40869140625	-0.0419921875	0.89794921875	38.75	-16.6875	-25.0625
18	12	18	11	22	18	-0.689960763482	0.216558810053	0.187078002483	0.544921875	0.00048828125	0.93603515625	31.25	-19.5625	-21.3125
18	12	18	11	22	18	-0.688368906685	0.213871665989	0.191227148842	0.55517578125	-0.02783203125	0.89306640625	21.9375	-7.9375	-19.0625
18	12	18	11	22	18	-0.687006302017	0.209471004666	0.193174746436	0.46875	-0.01025390625	0.9130859375	19.375	2.9375	-20.5
18	12	18	11	22	18	-0.685671079453	0.206665682306	0.193298941484	0.48876953125	0.0302734375	0.88671875	4.125	6.5	-15.25
18	12	18	11	22	18	-0.684235028964	0.204599091623	0.191353864032	0.4892578125	0.0751953125	0.85009765625	-9.625	13.9375	-12.25
18	12	18	11	22	18	-0.682366314388	0.203184030465	0.18823056472	0.43798828125	0.064453125	0.8623046875	-17.5	13.3125	-14.4375
18	12	18	11	22	18	-0.680058182428	0.203187371146	0.185303952778	0.466796875	0.0556640625	0.84912109375	-22.375	8.625	-14.8125
18	12	18	11	22	18	-0.679100665039	0.202277512488	0.182318325227	0.49462890625	0.0673828125	0.8212890625	-16.9375	16.25	-5.8125
18	12	18	11	22	18	-0.678148364467	0.20049656892	0.179256749747	0.50146484375	0.138671875	0.79541015625	-18.5625	21.6875	-4.875
18	12	18	11	22	18	-0.67652044	0.200197315337	0.175355758221	0.484375	0.11572265625	0.8330078125	-27.5625	17.0625	-7.6875
18	12	18	11	22	18	-0.674864527219	0.200805308361	0.170715029631	0.4794921875	0.05419921875	0.8349609375	-30.375	16.125	-7.5625
18	12	18	11	22	18	-0.674385602604	0.200991201862	0.165102095669	0.46044921875	0.04296875	0.87744140625	-30.6875	19.6875	0.8125
18	12	18	11	22	18	-0.673626788585	0.202020899721	0.158748145067	0.4384765625	0.01416015625	0.86474609375	-35.75	18.75	0.1875
18	12	18	11	22	18	-0.673409942711	0.202395302278	0.151430260842	0.3828125	-0.05517578125	0.85107421875	-32.9375	22.875	1.25
18	12	18	11	22	18	-0.672601652672	0.20330636162	0.144163802506	0.3154296875	-0.10302734375	0.88916015625	-33.1875	15.6875	-3.9375
18	12	18	11	22	18	-0.672297279684	0.203733846535	0.138670850607	0.34521484375	-0.13671875	0.9306640625	-21.8125	11.125	-2.0
18	12	18	11	22	18	-0.673015126613	0.203137524158	0.134529778619	0.36962890625	-0.04443359375	0.9013671875	-16.5	12.5625	6.8125
18	12	18	11	22	18	-0.67406038711	0.200924193622	0.131284307558	0.30712890625	0.0068359375	0.8642578125	-9.375	13.875	7.375
18	12	18	11	22	19	-0.675067954891	0.198980247102	0.128543681103	0.27392578125	0.0205078125	0.87060546875	-9.0625	8.5625	7.625
18	12	18	11	22	19	-0.675997877236	0.198129942168	0.126532153455	0.2998046875	0.052734375	0.88623046875	-12.375	2.5	10.25
18	12	18	11	22	19	-0.676593511537	0.197881476265	0.124820363653	0.32763671875	0.01513671875	0.935546875	-12.25	-1.1875	7.75
18	12	18	11	22	19	-0.677123950285	0.197448709138	0.123413072605	0.31201171875	0.005859375	0.93310546875	-9.9375	-1.75	6.0625
18	12	18	11	22	19	-0.678475365214	0.195314966596	0.122438069685	0.2958984375	0.06591796875	0.93994140625	-4.1875	1.9375	11.25
18	12	18	11	22	19	-0.679929053239	0.194518302753	0.120910184422	0.34228515625	0.0263671875	0.93115234375	-8.6875	2.1875	13.6875
18	12	18	11	22	19	-0.681038518953	0.193727931453	0.119019995694	0.33984375	0.03857421875	0.92919921875	-11.875	3.75	11.5
18	12	18	11	22	19	-0.682134811909	0.192750692198	0.116456086357	0.29638671875	0.01904296875	0.9482421875	-12.6875	4.5625	10.8125
18	12	18	11	22	19	-0.682827089137	0.192817625332	0.113957108735	0.298828125	-0.03857421875	0.94287109375	-13.9375	0.3125	7.625
18	12	18	11	22	19	-0.683247665014	0.192510553462	0.112735254358	0.2998046875	-0.0517578125	0.951171875	-6.9375	-3.0625	3.8125
18	12	18	11	22	19	-0.683882520316	0.191462692211	0.113156465209	0.31494140625	0.00830078125	0.92724609375	-0.875	-4.875	5.6875
18	12	18	11	22	19	-0.684655238977	0.19080255657	0.113468314991	0.314453125	0.03125	0.95068359375	-3.6875	-7.0625	8.0625
18	12	18	11	22	19	-0.685068536723	0.191409028079	0.113771182506	0.35791015625	-0.00927734375	0.9453125	-7.0625	-9.3125	6.3125
18	12	18	11	22	19	-0.685495232302	0.191103692666	0.114320414042	0.390625	-0.03759765625	0.9755859375	-0.5625	-5.4375	4.25
18	12	18	11	22	19	-0.68585911035	0.189210931929	0.115662811615	0.3564453125	-0.02685546875	0.9599609375	8.4375	-3.5	0.8125
18	12	18	11	22	19	-0.686582744919	0.186217793115	0.117004100099	0.330078125	0.0185546875	1.00048828125	10.1875	-1.5	2.5625
18	12	18	11	22	19	-0.687012224216	0.185485976314	0.117797938232	0.3896484375	0.00634765625	0.98828125	-0.1875	-4.625	4.4375
18	12	18	11	22	19	-0.687091911626	0.18561308548	0.117740099274	0.37451171875	-0.05078125	1.00146484375	-4.0	-6.125	1.875
18	12	18	11	22	19	-0.688221020648	0.184201050046	0.117490729403	0.32275390625	-0.02880859375	0.98388671875	1.6875	-1.625	7.75
18	12	18	11	22	19	-0.690074467796	0.182986312971	0.11664004139	0.32421875	-0.033203125	0.943359375	0.1875	1.125	13.9375
18	12	18	11	22	19	-0.690985862691	0.181825535285	0.116334162555	0.2978515625	-0.06396484375	0.95458984375	2.875	-3.0625	5.1875
18	12	18	11	22	19	-0.691786255028	0.179141755647	0.11786123685	0.25439453125	-0.078125	0.9345703125	16.75	-5.875	0.5625
18	12	18	11	22	19	-0.692917814344	0.174740042497	0.121152282346	0.2431640625	-0.01806640625	0.86181640625	28.75	-5.0	1.1875
18	12	18	11	22	19	-0.693293285482	0.168455803145	0.128661171388	0.27392578125	-0.0029296875	0.80810546875	51.875	-10.3125	-8.9375
18	12	18	11	22	19	-0.693055858049	0.160461809847	0.139953948261	0.328125	-0.00830078125	0.8564453125	74.8125	-17.8125	-17.125
18	12	18	11	22	19	-0.69434381772	0.15252858654	0.150697511072	0.44140625	0.1474609375	0.947265625	66.9375	-11.625	0.375
18	12	18	11	22	19	-0.695739311962	0.147582915723	0.157409569747	0.4697265625	0.267578125	0.97216796875	32.1875	-6.4375	10.25
18	12	18	11	22	19	-0.69476332465	0.146789580584	0.161865267238	0.42578125	0.18798828125	1.029296875	8.9375	-19.3125	-3.6875
18	12	18	11	22	19	-0.694950145226	0.145996903863	0.163819268381	0.3916015625	0.06201171875	1.0732421875	9.125	-12.4375	1.6875
18	12	18	11	22	19	-0.696897013932	0.143065913527	0.163512620452	0.30126953125	0.06787109375	0.9951171875	10.5	3.0625	11.6875
18	12	18	11	22	19	-0.697334454819	0.140260356864	0.163270867977	0.29736328125	0.08056640625	1.04541015625	7.3125	0.625	0.0
18	12	18	11	22	19	-0.696635776194	0.14056003089	0.161494503575	0.31787109375	0.05419921875	1.0576171875	-11.5	-4.6875	-4.125
18	12	18	11	22	19	-0.697504536351	0.141478431507	0.15734745316	0.2666015625	0.03271484375	1.02587890625	-19.875	1.0	8.5625
18	12	18	11	22	19	-0.69855846232	0.142580390387	0.153688965323	0.3583984375	-0.0185546875	1.0234375	-15.5	4.375	9.25
18	12	18	11	22	19	-0.699391857173	0.141782641087	0.150144337957	0.369140625	0.02734375	0.95703125	-11.5625	14.375	5.6875
18	12	18	11	22	19	-0.699963447104	0.140566429951	0.145388291856	0.255859375	0.10400390625	0.9345703125	-20.4375	15.375	5.25
18	12	18	11	22	19	-0.699584856691	0.142700174049	0.140502908751	0.29638671875	0.06005859375	0.9541015625	-33.125	4.8125	2.25
18	12	18	11	22	19	-0.699767112305	0.145446579034	0.135192686765	0.35009765625	0.06591796875	0.96923828125	-37.5	6.6875	8.3125
18	12	18	11	22	19	-0.700263175919	0.147096160896	0.129762007496	0.30322265625	0.04931640625	0.92236328125	-32.875	10.625	8.625
18	12	18	11	22	19	-0.700314270433	0.146849933298	0.125548758435	0.2763671875	0.0458984375	0.9345703125	-21.25	11.9375	2.6875
18	12	18	11	22	19	-0.700974241533	0.146420305219	0.121701579244	0.2919921875	0.1025390625	0.9111328125	-22.25	12.75	8.4375
18	12	18	11	22	19	-0.70154212242	0.147034537403	0.118225777895	0.3076171875	0.1005859375	0.93603515625	-25.125	7.8125	9.6875
18	12	18	11	22	19	-0.702765860335	0.147401385505	0.114319997951	0.31005859375	0.0732421875	0.9521484375	-23.5625	10.625	13.9375
18	12	18	11	22	19	-0.704900717887	0.148377664316	0.108948634637	0.3427734375	-0.0107421875	0.93408203125	-25.6875	16.75	21.0625
18	12	18	11	22	19	-0.706426661762	0.149903566726	0.102539899063	0.36865234375	-0.11279296875	0.97265625	-26.8125	20.25	15.0
18	12	18	11	22	19	-0.709226745437	0.149779899596	0.0936276959983	0.30810546875	-0.0693359375	0.98828125	-32.5	33.8125	25.0
18	12	18	11	22	19	-0.712694749121	0.150204828088	0.0824570185888	0.291015625	-0.07275390625	0.9404296875	-43.3125	41.5	33.0625
18	12	18	11	22	19	-0.715598990274	0.151127865909	0.0687888145717	0.19091796875	-0.05810546875	0.998046875	-58.4375	43.375	31.125
18	12	18	11	22	19	-0.719809373097	0.152470432799	0.0531632293706	0.12451171875	-0.080078125	1.00634765625	-66.5	46.0625	44.25
18	12	18	11	22	19	-0.72434435586	0.154109327481	0.0397327414615	0.1640625	-0.09130859375	0.9921875	-59.0625	38.9375	47.75
18	12	18	11	22	20	-0.728714977979	0.155032753502	0.0292364917038	0.185546875	-0.07177734375	0.98876953125	-47.6875	32.0625	45.8125
18	12	18	11	22	20	-0.732918082448	0.155275116735	0.0200807835714	0.1484375	-0.0849609375	0.93408203125	-39.125	28.5625	43.375
18	12	18	11	22	20	-0.737048995715	0.15447755947	0.0126340793403	0.10888671875	-0.0546875	0.93994140625	-31.0625	23.5625	40.75
18	12	18	11	22	20	-0.740551406686	0.155153851133	0.00561532427389	0.1064453125	-0.09619140625	0.912109375	-33.625	17.375	36.4375
18	12	18	11	22	20	-0.743678499729	0.155889271857	-6.10373029981e-05	0.1318359375	-0.14208984375	0.96923828125	-27.6875	13.0625	32.75
18	12	18	11	22	20	-0.747012935396	0.155701446049	-0.00439455276971	0.12255859375	-0.13720703125	0.94677734375	-19.375	11.0	32.5
18	12	18	11	22	20	-0.7499933253	0.154966882563	-0.00683587666289	0.115234375	-0.21142578125	1.0087890625	-6.0	4.375	26.8125
18	12	18	11	22	20	-0.753001103177	0.153932786108	-0.00738535571731	0.17529296875	-0.20458984375	1.005859375	1.25	1.875	25.875
18	12	18	11	22	20	-0.755564502488	0.151491323627	-0.0071412106625	0.13330078125	-0.15966796875	0.97998046875	7.75	1.875	20.0625
18	12	18	11	22	20	-0.757543213752	0.149653235588	-0.00750707503154	0.103515625	-0.2138671875	1.0576171875	5.125	0.3125	14.875
18	12	18	11	22	20	-0.759891117776	0.14849920398	-0.00762942889333	0.15673828125	-0.12890625	1.01806640625	-1.6875	0.125	20.625
18	12	18	11	22	20	-0.762421932482	0.147467087413	-0.0101932961912	0.09228515625	-0.21044921875	1.01220703125	-5.6875	6.375	22.875
18	12	18	11	22	20	-0.764514536527	0.146237971381	-0.0124509791994	0.1142578125	-0.29052734375	0.99755859375	1.625	8.5	18.1875
18	12	18	11	22	20	-0.767315618903	0.141903341867	-0.0133663792984	0.125	-0.1728515625	0.98193359375	13.25	14.8125	21.8125
18	12	18	11	22	20	-0.769537066656	0.137330139592	-0.0150757975463	0.11376953125	-0.18115234375	1.00830078125	11.5	19.5625	17.25
18	12	18	11	22	20	-0.771385354453	0.13324372755	-0.0170903544269	0.09228515625	-0.173828125	0.94921875	8.75	18.9375	14.875
18	12	18	11	22	20	-0.773587106751	0.128239428064	-0.0198371318995	0.0751953125	-0.21923828125	0.9599609375	13.5625	25.0625	17.375
18	12	18	11	22	20	-0.77540262867	0.122438418853	-0.0220950686066	0.07470703125	-0.14892578125	0.91015625	15.1875	26.8125	13.875
18	12	18	11	22	20	-0.776903753648	0.11620903032	-0.0239864227499	0.06396484375	-0.1630859375	0.96240234375	18.6875	27.1875	10.5
18	12	18	11	22	20	-0.777743366294	0.112788961854	-0.0244131952066	0.0498046875	-0.1572265625	1.00634765625	10.375	9.875	5.25
18	12	18	11	22	20	-0.779477156549	0.109862883235	-0.0251463932737	0.03125	-0.21142578125	1.0712890625	10.6875	7.0625	13.75
18	12	18	11	22	20	-0.781529469784	0.107845573847	-0.0243522263525	0.068359375	-0.2470703125	1.03369140625	15.1875	-0.5	16.0625
18	12	18	11	22	20	-0.783678511234	0.104429434013	-0.0236812509625	0.04931640625	-0.2744140625	1.06591796875	23.25	4.1875	16.0625
18	12	18	11	22	20	-0.786499222673	0.0983886967988	-0.0234375059372	-0.03125	-0.24853515625	1.056640625	32.5	9.875	20.4375
18	12	18	11	22	20	-0.790469231241	0.0897220114218	-0.0242310466221	-0.13134765625	-0.283203125	1.04248046875	45.3125	16.8125	29.4375
18	12	18	11	22	20	-0.796078608489	0.0751340003872	-0.0239256930559	-0.26708984375	-0.19921875	0.8916015625	73.625	23.875	41.875
18	12	18	11	22	20	-0.801811649064	0.0541376975504	-0.0233762549739	-0.53515625	-0.03173828125	0.7412109375	96.125	28.0625	42.0
18	12	18	11	22	20	-0.807357426844	0.0333855845542	-0.0228877407822	-0.7060546875	-0.03271484375	0.76904296875	96.0625	16.6875	43.9375
18	12	18	11	22	20	-0.811704492811	0.0182494656253	-0.0162963455584	-0.55908203125	-0.11279296875	0.8876953125	97.3125	-20.0625	36.8125
18	12	18	11	22	20	-0.815204703702	0.00817890313688	0.000122073181147	-0.166015625	-0.09228515625	1.0087890625	103.3125	-46.5	31.3125
18	12	18	11	22	20	-0.816125003326	0.00189200382165	0.0173942286829	-0.08837890625	-0.02783203125	1.14208984375	89.875	-68.375	9.25
18	12	18	11	22	20	-0.815610571911	-0.000732419880486	0.0354613292135	0.15380859375	0.109375	1.083984375	67.5625	-69.375	-1.625
18	12	18	11	22	20	-0.813473262375	0.00195311707653	0.0460813560244	0.330078125	0.0703125	1.16015625	21.0625	-42.1875	-18.0625
18	12	18	11	22	20	-0.809022674807	0.00781251621088	0.0581666246013	0.44287109375	0.119140625	1.2890625	8.3125	-55.0625	-37.9375
18	12	18	11	22	20	-0.800473517161	0.0156249500872	0.0752561072558	0.58056640625	0.1435546875	1.29296875	16.625	-100.9375	-71.375
18	12	18	11	22	20	-0.787113783616	0.0250245542248	0.100220287895	0.66845703125	0.17236328125	1.24853515625	33.8125	-144.0	-106.875
18	12	18	11	22	20	-0.771615945572	0.0339359647	0.124452215869	0.796875	0.16943359375	1.111328125	32.8125	-138.1875	-119.8125
18	12	18	11	22	20	-0.757016365283	0.0441892968205	0.143981424309	0.82568359375	0.2587890625	1.0234375	10.3125	-122.3125	-106.25
18	12	18	11	22	20	-0.744632398689	0.0566408906544	0.160340107488	0.7431640625	0.34228515625	1.07861328125	-8.875	-117.875	-80.9375
18	12	18	11	22	20	-0.73552178719	0.0697619618918	0.172848535501	0.66552734375	0.3759765625	1.04833984375	-22.0	-103.625	-50.125
18	12	18	11	22	20	-0.729453012991	0.0828882262272	0.183782363159	0.705078125	0.32568359375	0.9111328125	-32.75	-78.5625	-21.125
18	12	18	11	22	20	-0.725461120047	0.0936275751432	0.191100350569	0.67333984375	0.2724609375	0.85107421875	-30.8125	-55.375	-9.0
18	12	18	11	22	20	-0.721991713798	0.1014413922	0.198610282923	0.68212890625	0.22998046875	0.77880859375	-15.0	-43.6875	-8.9375
18	12	18	11	22	20	-0.719350642749	0.107847665513	0.20379363619	0.806640625	0.20556640625	0.82470703125	-15.25	-22.8125	-6.9375
18	12	18	11	22	20	-0.717725224354	0.113405346275	0.206424586169	0.7939453125	0.251953125	0.75244140625	-24.3125	-7.5	0.25
18	12	18	11	22	20	-0.717359497272	0.117677963987	0.206851981303	0.6728515625	0.2041015625	0.70166015625	-23.5625	1.0625	7.0625
18	12	18	11	22	20	-0.718242863599	0.120968504049	0.207575117191	0.65771484375	0.26416015625	0.62939453125	-20.1875	5.25	18.0
18	12	18	11	22	20	-0.718643263255	0.121889807773	0.207279813319	0.7041015625	0.2265625	0.6044921875	-14.1875	22.25	7.5625
18	12	18	11	22	20	-0.719879513943	0.120305453789	0.203255789506	0.71044921875	0.3154296875	0.57763671875	-24.0	50.125	10.0
18	12	18	11	22	20	-0.722401731006	0.116697542217	0.190854191691	0.63720703125	0.2919921875	0.49560546875	-46.9375	93.9375	12.1875
18	12	18	11	22	21	-0.729563526045	0.109864832835	0.160097475848	0.599609375	0.4345703125	0.5537109375	-90.375	167.625	36.3125
18	12	18	11	22	21	-0.739561715434	0.108947566398	0.13030983432	0.095703125	0.962890625	0.634765625	-113.3125	132.3125	80.0625
18	12	18	11	22	21	-0.751819028388	0.118162172346	0.0965560726506	-0.48486328125	0.0947265625	0.71240234375	-152.25	100.0	115.75
18	12	18	11	22	21	-0.762690547749	0.12866130559	0.0850214415025	-0.2802734375	-0.67919921875	0.95751953125	-63.0625	-1.375	107.4375
18	12	18	11	22	21	-0.773325949233	0.127198995912	0.087830784605	0.33740234375	-0.3623046875	0.64404296875	50.8125	-1.875	88.0
18	12	18	11	22	21	-0.784164028357	0.119016178027	0.084104765806	0.3359375	-0.03369140625	0.41748046875	36.375	56.6875	90.125
18	12	18	11	22	21	-0.792522055376	0.111508494045	0.0647567116484	-0.26708984375	-0.07666015625	0.70849609375	-23.3125	82.25	67.375
18	12	18	11	22	21	-0.799784038843	0.112729023179	0.0418690362215	-0.3037109375	-0.30908203125	1.01611328125	-64.1875	62.3125	69.0625
18	12	18	11	22	21	-0.809284742335	0.117678632116	0.0263678262832	0.046875	-0.43896484375	1.14794921875	-48.5625	37.3125	98.875
18	12	18	11	22	21	-0.818554013197	0.118104691338	0.0189822010368	0.3037109375	-0.548828125	1.04150390625	6.875	34.6875	93.3125
18	12	18	11	22	21	-0.825436739449	0.110839479358	0.0157470185432	0.31884765625	-0.43115234375	1.0087890625	47.0	45.1875	62.9375
18	12	18	11	22	21	-0.830735302387	0.101011455841	0.0120847542335	0.1572265625	-0.11767578125	1.0048828125	35.9375	46.4375	47.0
18	12	18	11	22	21	-0.83558202046	0.0996106543017	0.00573737837277	0.1435546875	-0.04638671875	1.0166015625	-18.4375	32.1875	53.75
18	12	18	11	22	21	-0.839920365893	0.104860343624	-0.00158694350071	0.19189453125	-0.27978515625	0.99951171875	-38.375	20.375	55.0625
18	12	18	11	22	21	-0.844384413997	0.106570419751	-0.00744650126555	0.17724609375	-0.3466796875	0.94189453125	-12.25	24.1875	53.0
18	12	18	11	22	21	-0.848768572409	0.103456258466	-0.010376143917	0.15283203125	-0.2841796875	0.93701171875	16.0	23.8125	46.9375
18	12	18	11	22	21	-0.852665451175	0.100830588786	-0.0111084546968	0.1728515625	-0.1962890625	0.99755859375	13.0625	13.875	42.1875
18	12	18	11	22	21	-0.856460853885	0.100038436397	-0.0114748175977	0.22314453125	-0.20947265625	1.0166015625	5.875	9.875	43.3125
18	12	18	11	22	21	-0.859620477601	0.100586093943	-0.0118408387287	0.2333984375	-0.2919921875	1.041015625	4.25	6.8125	37.8125
18	12	18	11	22	21	-0.862036958315	0.100155950764	-0.00994845824167	0.22412109375	-0.369140625	1.06591796875	20.1875	-1.1875	26.5625
18	12	18	11	22	21	-0.86417877994	0.0980204195624	-0.00500477858289	0.31787109375	-0.345703125	1.05810546875	36.75	-4.8125	21.1875
18	12	18	11	22	21	-0.865984969379	0.0971089714042	-0.000854510119207	0.30224609375	-0.28515625	1.04052734375	24.0625	-5.625	19.1875
18	12	18	11	22	21	-0.868015486694	0.0963105356492	0.000671366218087	0.1875	-0.21533203125	0.9716796875	12.9375	-0.5625	22.5625
18	12	18	11	22	21	-0.869879897436	0.097534947804	0.000366213821542	0.197265625	-0.26171875	1.017578125	-0.1875	2.8125	24.0625
18	12	18	11	22	21	-0.871751500458	0.099546782696	0.000122068403061	0.236328125	-0.3125	0.9697265625	0.125	3.375	24.625
18	12	18	11	22	21	-0.874332354117	0.0999760136854	-0.00140381459998	0.1689453125	-0.23193359375	0.876953125	0.125	9.4375	32.625
18	12	18	11	22	21	-0.876714639501	0.101257977369	-0.00366213299708	0.16552734375	-0.19482421875	0.86279296875	-8.8125	11.25	32.125
18	12	18	11	22	21	-0.87922961175	0.103083355147	-0.00659147563994	0.14306640625	-0.18896484375	0.8681640625	-14.375	11.625	35.25
18	12	18	11	22	21	-0.881524604362	0.105712152237	-0.00811761908053	0.169921875	-0.232421875	0.9365234375	-13.0	3.625	32.9375
18	12	18	11	22	21	-0.883528395911	0.107847103867	-0.00683580963955	0.21533203125	-0.2646484375	0.978515625	-1.8125	-5.8125	27.6875
18	12	18	11	22	21	-0.885396563511	0.108278884852	-0.00335701164988	0.2568359375	-0.27880859375	1.05517578125	12.3125	-10.1875	23.0625
18	12	18	11	22	21	-0.886571977203	0.108700584565	0.00201410403743	0.29931640625	-0.30908203125	1.1064453125	19.0625	-17.125	13.875
18	12	18	11	22	21	-0.888186751961	0.106872938612	0.00604250195465	0.23388671875	-0.30810546875	1.0322265625	28.1875	-9.1875	16.4375
18	12	18	11	22	21	-0.889959398598	0.105042186749	0.00659183972626	0.1005859375	-0.23583984375	1.00634765625	15.375	-0.5625	19.8125
18	12	18	11	22	21	-0.891200045946	0.107417619563	0.0067746339611	0.18798828125	-0.26220703125	1.0615234375	-6.625	-3.75	19.0625
18	12	18	11	22	21	-0.892540291798	0.111758276296	0.00726337240812	0.30517578125	-0.2919921875	1.015625	-13.9375	-2.75	24.5625
18	12	18	11	22	21	-0.893732246185	0.115538833711	0.00714106896153	0.2587890625	-0.28466796875	0.93408203125	-12.3125	-0.4375	22.0625
18	12	18	11	22	21	-0.89481410033	0.118161114401	0.00640853151454	0.18896484375	-0.244140625	0.85693359375	-10.3125	1.1875	19.125
18	12	18	11	22	21	-0.89579704374	0.121762969426	0.00567616849955	0.18310546875	-0.2724609375	0.8916015625	-14.375	-1.5	19.0625
18	12	18	11	22	21	-0.896771808311	0.124997526946	0.00592029302431	0.18994140625	-0.2470703125	0.86181640625	-11.875	-5.5	18.875
18	12	18	11	22	21	-0.897879605736	0.127684327048	0.00695794134008	0.19873046875	-0.30419921875	0.87255859375	-3.25	-7.9375	18.625
18	12	18	11	22	21	-0.89908810248	0.128231898942	0.00994850048905	0.23828125	-0.24267578125	0.86328125	8.1875	-10.3125	16.6875
18	12	18	11	22	21	-0.900185598278	0.128048639581	0.0125729360123	0.19287109375	-0.23779296875	0.9013671875	10.1875	-9.75	14.0
18	12	18	11	22	21	-0.901070665461	0.12872438078	0.0142213279857	0.18359375	-0.271484375	0.97119140625	4.8125	-8.0625	12.5625
18	12	18	11	22	21	-0.902033987368	0.130614570199	0.015685955393	0.1982421875	-0.29052734375	1.03076171875	-1.75	-10.3125	15.9375
18	12	18	11	22	21	-0.903045629663	0.1332352399	0.0169671995841	0.20849609375	-0.32666015625	1.06884765625	-4.625	-11.5625	17.75
18	12	18	11	22	21	-0.903791789774	0.135373459597	0.0186153765452	0.25732421875	-0.353515625	1.0849609375	-0.0625	-8.5625	13.8125
18	12	18	11	22	21	-0.904459491536	0.13708185559	0.0200801115268	0.28662109375	-0.28369140625	1.10986328125	-3.75	-5.4375	13.375
18	12	18	11	22	21	-0.905131169873	0.1387908483	0.0196528817734	0.26953125	-0.25146484375	1.0927734375	-10.1875	3.6875	14.75
18	12	18	11	22	22	-0.905481573499	0.141595932227	0.0184318842813	0.20703125	-0.30859375	1.0419921875	-13.75	1.6875	11.375
18	12	18	11	22	22	-0.905996233644	0.143431093308	0.0183103523372	0.2021484375	-0.34228515625	1.0029296875	-3.5625	-1.75	10.875
18	12	18	11	22	22	-0.906707225081	0.145136630401	0.0187981842572	0.24658203125	-0.32666015625	0.9931640625	-2.1875	-1.6875	14.0
18	12	18	11	22	22	-0.906845608942	0.14819095023	0.0201412741251	0.2939453125	-0.3359375	0.96826171875	-7.3125	-5.8125	9.0
18	12	18	11	22	22	-0.907160630553	0.150206708726	0.0218504679902	0.26171875	-0.34423828125	0.94482421875	-0.1875	-8.0	8.5625
18	12	18	11	22	22	-0.907757296878	0.152523733268	0.0246576983755	0.208984375	-0.337890625	0.91552734375	1.0625	-18.25	11.8125
18	12	18	11	22	22	-0.908519994306	0.154543004742	0.0302738271532	0.27978515625	-0.33544921875	0.90625	9.0	-28.4375	13.5
18	12	18	11	22	22	-0.90934718143	0.156003181135	0.0369866697058	0.30615234375	-0.21875	0.86328125	7.6875	-31.6875	15.25
18	12	18	11	22	22	-0.909016558333	0.159732514145	0.0446787162224	0.2998046875	-0.24853515625	0.88134765625	-2.0	-42.6875	3.0
18	12	18	11	22	22	-0.907652557525	0.163268817926	0.0557250208473	0.33203125	-0.337890625	0.88427734375	11.125	-57.5625	-13.0625
18	12	18	11	22	22	-0.906174969031	0.164243068745	0.0693959008411	0.31787109375	-0.3251953125	0.90625	29.0625	-68.0	-20.375
18	12	18	11	22	22	-0.90421652188	0.165157604334	0.0849591224068	0.3408203125	-0.25	0.95556640625	27.625	-79.125	-23.5625
18	12	18	11	22	22	-0.901238467931	0.167418198397	0.100951403627	0.3427734375	-0.2451171875	0.93505859375	20.875	-85.375	-31.5
18	12	18	11	22	22	-0.897012798089	0.170284119662	0.116208230766	0.35107421875	-0.294921875	0.9560546875	17.125	-84.0625	-46.375
18	12	18	11	22	22	-0.892318437483	0.173886130533	0.129880549587	0.349609375	-0.34716796875	0.9658203125	12.1875	-79.4375	-50.0625
18	12	18	11	22	22	-0.887016671013	0.178587406549	0.14166143903	0.37744140625	-0.3876953125	1.02880859375	3.125	-74.25	-54.75
18	12	18	11	22	22	-0.881525771787	0.183043397465	0.151915643978	0.38134765625	-0.3603515625	1.00439453125	-1.375	-66.1875	-56.8125
18	12	18	11	22	22	-0.87672846832	0.187137947916	0.160403955357	0.3427734375	-0.310546875	0.9228515625	-4.125	-58.4375	-47.5625
18	12	18	11	22	22	-0.872075918212	0.191285409272	0.167908794163	0.3095703125	-0.3955078125	0.85888671875	-0.0625	-54.8125	-48.25
18	12	18	11	22	22	-0.868457672315	0.191647838293	0.176145115068	0.3251953125	-0.3671875	0.7724609375	22.3125	-46.9375	-45.0
18	12	18	11	22	22	-0.864967553218	0.1905467613	0.184626506385	0.31298828125	-0.1884765625	0.69189453125	21.0	-43.1875	-41.3125
18	12	18	11	22	22	-0.860397829678	0.190548487214	0.193295022103	0.373046875	-0.16357421875	0.736328125	11.8125	-45.5	-48.875
18	12	18	11	22	22	-0.85573783768	0.19013005452	0.20300884794	0.509765625	-0.09228515625	0.6904296875	13.875	-41.25	-45.0
18	12	18	11	22	22	-0.852413324508	0.189025065588	0.211180731977	0.5126953125	-0.08203125	0.6357421875	17.3125	-30.9375	-32.0
18	12	18	11	22	22	-0.84938579407	0.187321428715	0.219731881191	0.49609375	-0.12744140625	0.62353515625	25.75	-33.25	-30.9375
18	12	18	11	22	22	-0.845680888146	0.184443392319	0.230218555867	0.494140625	-0.09228515625	0.65966796875	33.0625	-42.0	-38.625
18	12	18	11	22	22	-0.841560796216	0.181398222103	0.242189820089	0.5224609375	-0.072265625	0.69189453125	37.0	-50.625	-39.875
18	12	18	11	22	22	-0.837458079986	0.178953945814	0.253782573907	0.53515625	-0.06201171875	0.6845703125	34.5625	-51.0	-36.5625
18	12	18	11	22	22	-0.833687312971	0.175966068035	0.265200334934	0.548828125	-0.08837890625	0.66455078125	39.875	-48.1875	-35.0
18	12	18	11	22	22	-0.830198599465	0.17040982868	0.2772211468	0.56640625	0.00537109375	0.669921875	50.25	-44.625	-34.625
18	12	18	11	22	22	-0.825691648141	0.163880993144	0.289248427006	0.52392578125	0.03662109375	0.60107421875	50.4375	-42.3125	-46.625
18	12	18	11	22	22	-0.820737706753	0.157836521876	0.30023118759	0.5068359375	-0.037109375	0.767578125	48.9375	-47.6875	-54.625
18	12	18	11	22	22	-0.816722859688	0.151186198599	0.312199194926	0.7080078125	0.009765625	0.66162109375	58.3125	-36.75	-40.875
18	12	18	11	22	22	-0.812893040272	0.144597057547	0.318980254427	0.4287109375	0.09228515625	0.62548828125	35.5	-23.5	-45.25
18	12	18	11	22	22	-0.807019653751	0.137331282782	0.326970525272	0.3642578125	-0.025390625	0.82373046875	43.8125	-41.6875	-70.9375
18	12	18	11	22	22	-0.800493957907	0.131594736809	0.337226772202	0.70947265625	0.056640625	0.7509765625	42.0	-38.25	-64.75
18	12	18	11	22	22	-0.796873382123	0.125732166603	0.34185721609	0.62744140625	0.1767578125	0.62939453125	24.9375	-6.1875	-41.875
18	12	18	11	22	22	-0.793285761525	0.119142402593	0.343449948457	0.4228515625	0.08154296875	0.7177734375	22.1875	-2.8125	-53.8125
18	12	18	11	22	22	-0.78834587836	0.113161447699	0.346686635885	0.59130859375	0.14453125	0.74072265625	19.9375	-6.75	-60.1875
18	12	18	11	22	22	-0.784779172376	0.108213833615	0.347956607693	0.71337890625	0.2685546875	0.6708984375	6.5625	11.125	-43.8125
18	12	18	11	22	22	-0.783517327313	0.103150602412	0.344791569837	0.669921875	0.17626953125	0.703125	2.625	32.5	-36.125
18	12	18	11	22	22	-0.784048183037	0.0964343865171	0.339473454309	0.70068359375	0.162109375	0.77197265625	9.0625	49.625	-29.1875
18	12	18	11	22	22	-0.785755021781	0.088621740844	0.33336911053	0.7734375	0.302734375	0.77001953125	7.5	63.0625	-17.4375
18	12	18	11	22	22	-0.788019989627	0.0809931474119	0.326108806799	0.7978515625	0.36865234375	0.79443359375	0.8125	70.875	-11.375
18	12	18	11	22	22	-0.789075367919	0.0744641049552	0.320989121278	0.822265625	0.32421875	0.8427734375	5.1875	56.3125	-17.625
18	12	18	11	22	22	-0.789071337716	0.0667121729675	0.317447403114	0.7119140625	0.2412109375	0.79541015625	17.75	48.0	-28.625
18	12	18	11	22	22	-0.789169562339	0.0567005818571	0.312799227145	0.47314453125	0.23681640625	0.771484375	24.125	49.3125	-32.3125
18	12	18	11	22	22	-0.789486444754	0.0468748039869	0.30676141255	0.45166015625	0.27880859375	0.78466796875	17.125	54.9375	-30.375
18	12	18	11	22	22	-0.790173497609	0.039490364047	0.299260053976	0.5751953125	0.29052734375	0.79931640625	1.375	62.6875	-26.125
18	12	18	11	22	22	-0.791875490569	0.0333254214468	0.289918959473	0.60302734375	0.2578125	0.78173828125	-6.1875	72.5625	-19.375
18	12	18	11	22	22	-0.793458667322	0.0255127479185	0.280457121257	0.4697265625	0.20263671875	0.77734375	3.625	72.0625	-22.4375
18	12	18	11	22	23	-0.794678751276	0.0151977733539	0.271484722402	0.35009765625	0.1640625	0.75244140625	18.8125	72.5625	-27.25
18	12	18	11	22	23	-0.796204323661	0.00292969011389	0.261108631401	0.27783203125	0.1826171875	0.74072265625	22.3125	82.9375	-27.8125
18	12	18	11	22	23	-0.798190090727	-0.00903288984766	0.250113395917	0.3056640625	0.2744140625	0.765625	15.4375	88.5	-20.0
18	12	18	11	22	23	-0.799440419806	-0.0183716266882	0.240418064866	0.3408203125	0.34326171875	0.79541015625	4.125	76.0625	-18.5625
18	12	18	11	22	23	-0.798396549884	-0.02655014901	0.232481649607	0.31591796875	0.35986328125	0.90869140625	2.6875	58.3125	-34.125
18	12	18	11	22	23	-0.794559090227	-0.0359498620482	0.226685547788	0.333984375	0.31201171875	0.96435546875	17.1875	49.4375	-59.8125
18	12	18	11	22	23	-0.789368938782	-0.0469971455086	0.223266958793	0.3408203125	0.28564453125	0.9755859375	34.5	43.4375	-69.3125
18	12	18	11	22	23	-0.783998746216	-0.0616456779819	0.222168582034	0.36474609375	0.359375	0.92333984375	56.3125	49.25	-67.25
18	12	18	11	22	23	-0.779167909528	-0.0774529278702	0.218931168062	0.3154296875	0.42333984375	0.9326171875	52.625	61.9375	-64.4375
18	12	18	11	22	23	-0.774237592299	-0.0910041978808	0.211793807275	0.22021484375	0.42236328125	0.99462890625	30.625	66.25	-68.5
18	12	18	11	22	23	-0.76896232417	-0.102841615702	0.20360808901	0.2197265625	0.39892578125	1.0537109375	22.5625	65.5	-71.9375
18	12	18	11	22	23	-0.763297238807	-0.113707240996	0.19628689589	0.2548828125	0.423828125	1.0625	21.25	62.0625	-72.875
18	12	18	11	22	23	-0.757980829198	-0.12389895187	0.188045650597	0.27734375	0.41015625	1.04345703125	15.9375	68.5625	-71.625
18	12	18	11	22	23	-0.752067562201	-0.134031842769	0.17815981286	0.3095703125	0.40234375	1.02490234375	10.0	78.8125	-80.0625
18	12	18	11	22	23	-0.744343746892	-0.143863731974	0.165775942317	0.30712890625	0.38330078125	1.09326171875	1.75	86.625	-99.625
18	12	18	11	22	23	-0.733525967562	-0.15600702056	0.153077311254	0.169921875	0.4619140625	1.1123046875	3.5625	79.375	-117.1875
18	12	18	11	22	23	-0.722036938779	-0.16601356496	0.13873118866	0.06298828125	0.45361328125	1.09814453125	-11.5625	76.3125	-121.6875
18	12	18	11	22	23	-0.712685295211	-0.172113773443	0.121456173458	-0.00244140625	0.2724609375	1.0224609375	-37.3125	76.5625	-106.3125
18	12	18	11	22	23	-0.704923067542	-0.17597135715	0.106144360071	-0.06591796875	0.13671875	0.998046875	-23.4375	64.0	-86.6875
18	12	18	11	22	23	-0.696229287862	-0.186462739933	0.0996705906091	-0.1064453125	0.12841796875	0.88232421875	37.875	54.625	-73.875
18	12	18	11	22	23	-0.687293498288	-0.201226060195	0.0994228850646	-0.16650390625	0.29150390625	0.830078125	70.5	46.5	-61.3125
18	12	18	11	22	23	-0.67993286404	-0.214905171839	0.100403012688	-0.25048828125	0.5439453125	0.73583984375	52.875	35.375	-46.25
18	12	18	11	22	23	-0.675716557303	-0.22228883585	0.0997309054858	-0.2900390625	0.6484375	0.68603515625	10.9375	17.625	-28.125
18	12	18	11	22	23	-0.674633857902	-0.221012322398	0.0960710840802	-0.25	0.5751953125	0.7373046875	-32.5625	-0.1875	-15.625
18	12	18	11	22	23	-0.6750554043	-0.21557827197	0.0921029480188	-0.2119140625	0.46923828125	0.78125	-45.0625	-11.875	-6.875
18	12	18	11	22	23	-0.676342117477	-0.210269704423	0.0888076690668	-0.23095703125	0.39697265625	0.810546875	-37.4375	-13.5	2.5625
18	12	18	11	22	23	-0.678280155172	-0.207152240318	0.0857539474505	-0.2724609375	0.3447265625	0.8232421875	-25.0625	-6.1875	11.0
18	12	18	11	22	23	-0.680056334286	-0.207764473336	0.0835574512329	-0.314453125	0.36376953125	0.841796875	-7.0	4.375	15.125
18	12	18	11	22	23	-0.681500735167	-0.211847488068	0.0815408366634	-0.3466796875	0.4169921875	0.85546875	4.9375	16.75	15.125
18	12	18	11	22	23	-0.682739178967	-0.217590306903	0.078186026127	-0.3642578125	0.45849609375	0.91064453125	6.0	29.25	12.25
18	12	18	11	22	23	-0.684138439413	-0.223936473745	0.0721430667665	-0.39453125	0.45703125	0.96044921875	-0.6875	42.375	10.5625
18	12	18	11	22	23	-0.685805023861	-0.229924130018	0.0642713323359	-0.3896484375	0.447265625	0.99169921875	-8.625	50.4375	9.125
18	12	18	11	22	23	-0.687863758637	-0.23406898974	0.0548093749118	-0.33837890625	0.42529296875	1.048828125	-19.6875	54.8125	6.4375
18	12	18	11	22	23	-0.689182812735	-0.238394267317	0.043943643745	-0.33984375	0.35546875	1.06201171875	-19.8125	61.5625	-0.0625
18	12	18	11	22	23	-0.68958555579	-0.244449473441	0.0326542991988	-0.3671875	0.287109375	1.0517578125	-9.9375	69.8125	-3.9375
18	12	18	11	22	23	-0.691205261803	-0.251092136605	0.0216058863292	-0.34814453125	0.26123046875	1.03466796875	-7.0	76.3125	7.3125
18	12	18	11	22	23	-0.693840236747	-0.256650087572	0.0126951767455	-0.322265625	0.28662109375	0.9873046875	-7.25	66.5625	16.375
18	12	18	11	22	23	-0.695620737514	-0.258423989	0.00622561333916	-0.29345703125	0.2763671875	1.00048828125	-11.125	42.3125	7.75
18	12	18	11	22	23	-0.696466829721	-0.257017072996	0.00244138753736	-0.24951171875	0.2373046875	1.01513671875	-10.25	19.25	-0.25
18	12	18	11	22	23	-0.695299678662	-0.25622086122	0.00134274867719	-0.28759765625	0.19287109375	0.9677734375	6.8125	4.6875	-9.5625
18	12	18	11	22	23	-0.692684552419	-0.257017768106	0.00280760326119	-0.2861328125	0.205078125	0.89404296875	22.6875	-1.9375	-15.4375
18	12	18	11	22	23	-0.691328450486	-0.260003460675	0.00543199718313	-0.279296875	0.267578125	0.81787109375	28.75	3.25	-1.4375
18	12	18	11	22	23	-0.691218230183	-0.264158278166	0.00659175000969	-0.2939453125	0.359375	0.751953125	19.25	14.25	6.0625
18	12	18	11	22	23	-0.691988150343	-0.267628156575	0.00573706880686	-0.31201171875	0.38525390625	0.71240234375	4.6875	18.9375	8.875
18	12	18	11	22	23	-0.693299509827	-0.270752410035	0.00286865718478	-0.34326171875	0.40966796875	0.70751953125	-6.1875	24.3125	9.625
18	12	18	11	22	23	-0.695370439567	-0.27355835251	-0.00140380234443	-0.35009765625	0.4638671875	0.68212890625	-17.875	29.5	11.875
18	12	18	11	22	23	-0.697845137291	-0.276843234454	-0.00616427836858	-0.32421875	0.55615234375	0.6904296875	-23.9375	36.6875	11.8125
18	12	18	11	22	23	-0.701655727059	-0.281492363709	-0.0101317719808	-0.2900390625	0.63720703125	0.75048828125	-20.3125	45.9375	23.1875
18	12	18	11	22	23	-0.707702848949	-0.287048425926	-0.012573245958	-0.296875	0.66650390625	0.83984375	-13.375	50.1875	45.4375
18	12	18	11	22	24	-0.713535656872	-0.291737271392	-0.0148309951775	-0.43310546875	0.5498046875	0.9140625	-6.125	40.25	50.125
18	12	18	11	22	24	-0.72069178858	-0.292292765541	-0.0164792329706	-0.35009765625	0.361328125	1.0166015625	-9.0625	29.75	57.5625
18	12	18	11	22	24	-0.730443471289	-0.289784893188	-0.0194085080105	-0.2607421875	0.2939453125	1.09619140625	-24.9375	34.1875	71.375
18	12	18	11	22	24	-0.740077619633	-0.287156952035	-0.0274035008424	-0.44677734375	0.25048828125	1.02978515625	-42.6875	42.8125	70.5
18	12	18	11	22	24	-0.74364614662	-0.280026963287	-0.0437618423446	-0.94189453125	-0.0263671875	1.05615234375	-64.3125	22.0625	17.875
18	12	18	11	22	24	-0.743851840243	-0.266241218277	-0.0550549240912	-0.90771484375	-0.14208984375	1.1689453125	-61.5	-28.875	-16.5
18	12	18	11	22	24	-0.746262701003	-0.256953134148	-0.0573109246947	-0.48388671875	0.0302734375	1.01171875	-30.5	-25.875	8.4375
18	12	18	11	22	24	-0.747442883129	-0.254030481756	-0.0605473901735	-0.45654296875	0.23486328125	0.90673828125	-20.4375	1.9375	3.6875
18	12	18	11	22	24	-0.747860881849	-0.257567364841	-0.0649411554956	-0.58837890625	0.26513671875	0.79248046875	-0.5625	22.0625	11.6875
18	12	18	11	22	24	-0.747060438421	-0.267696657101	-0.0628653800305	-0.544921875	0.4365234375	0.69580078125	40.0625	19.125	17.1875
18	12	18	11	22	24	-0.745583823881	-0.273856795821	-0.0609723510197	-0.4716796875	0.5341796875	0.69482421875	19.75	7.4375	-1.6875
18	12	18	11	22	24	-0.744315331733	-0.274655103961	-0.0630486049758	-0.4833984375	0.4912109375	0.66748046875	-14.875	2.1875	-14.8125
18	12	18	11	22	24	-0.742393683296	-0.27153152721	-0.0686610402588	-0.548828125	0.3193359375	0.6689453125	-32.6875	-3.4375	-27.4375
18	12	18	11	22	24	-0.740167767281	-0.267515075781	-0.0743402606208	-0.5498046875	0.166015625	0.74169921875	-26.0625	-4.5625	-27.6875
18	12	18	11	22	24	-0.736798909795	-0.267388669965	-0.0770245381181	-0.53857421875	0.13720703125	0.80224609375	5.625	-0.6875	-25.0625
18	12	18	11	22	24	-0.732088069207	-0.270436201305	-0.0775726499343	-0.51904296875	0.1728515625	0.8251953125	26.9375	4.0	-28.4375
18	12	18	11	22	24	-0.727183989584	-0.274235157395	-0.0792248462716	-0.52392578125	0.18994140625	0.8427734375	25.9375	12.5625	-29.8125
18	12	18	11	22	24	-0.724057450286	-0.276488261805	-0.082702338796	-0.5126953125	0.20849609375	0.85888671875	8.625	19.0625	-20.9375
18	12	18	11	22	24	-0.722331523788	-0.278556913779	-0.0875830787188	-0.4892578125	0.25634765625	0.84423828125	-3.75	27.1875	-13.125
18	12	18	11	22	24	-0.721101464267	-0.279834973649	-0.0947227653442	-0.5263671875	0.271484375	0.83251953125	-17.5625	33.0625	-13.3125
18	12	18	11	22	24	-0.719830352734	-0.27996115211	-0.1016819881	-0.521484375	0.2490234375	0.83837890625	-20.375	28.875	-15.5
18	12	18	11	22	24	-0.718304362734	-0.28032729527	-0.10717499031	-0.4921875	0.279296875	0.8330078125	-16.0	24.9375	-17.5
18	12	18	11	22	24	-0.716727438682	-0.280148083416	-0.11230337113	-0.48291015625	0.2939453125	0.7978515625	-18.25	20.6875	-20.125
18	12	18	11	22	24	-0.715385916193	-0.279904428945	-0.11724736328	-0.5078125	0.2919921875	0.814453125	-18.6875	19.75	-17.5625
18	12	18	11	22	24	-0.714283308404	-0.279902866986	-0.120664624516	-0.53662109375	0.27685546875	0.828125	-11.625	13.8125	-12.875
18	12	18	11	22	24	-0.713672996922	-0.280818392101	-0.121824279642	-0.5322265625	0.28466796875	0.80029296875	-1.6875	7.625	-5.0625
18	12	18	11	22	24	-0.71396695629	-0.281912580877	-0.122981998369	-0.56787109375	0.30224609375	0.80517578125	-4.1875	7.875	2.875
18	12	18	11	22	24	-0.714231385606	-0.282164732153	-0.124511367855	-0.6103515625	0.2529296875	0.79150390625	-6.0625	2.9375	2.6875
18	12	18	11	22	24	-0.714335887251	-0.281364357504	-0.126705511102	-0.6318359375	0.21533203125	0.8251953125	-9.9375	1.5	-0.25
18	12	18	11	22	24	-0.714631528535	-0.279895822859	-0.129511324925	-0.64453125	0.193359375	0.82763671875	-13.8125	0.875	0.0
18	12	18	11	22	24	-0.715022688174	-0.277586272797	-0.133055865149	-0.65185546875	0.14990234375	0.82666015625	-18.25	0.3125	-0.5
18	12	18	11	22	24	-0.71519014022	-0.275810227313	-0.13616565991	-0.63525390625	0.11962890625	0.8203125	-12.5625	1.1875	0.0625
18	12	18	11	22	24	-0.715141829957	-0.275693065283	-0.137999119018	-0.6181640625	0.15087890625	0.8212890625	-3.0	3.6875	1.75
18	12	18	11	22	24	-0.714885181942	-0.27684787717	-0.138729105998	-0.5947265625	0.20263671875	0.80224609375	2.875	4.8125	1.9375
18	12	18	11	22	24	-0.714726448355	-0.277467671582	-0.13958833368	-0.580078125	0.20458984375	0.779296875	-0.1875	3.4375	0.75
18	12	18	11	22	24	-0.714852193193	-0.277408061651	-0.140687696833	-0.58740234375	0.19140625	0.77978515625	-3.375	1.5625	1.9375
18	12	18	11	22	24	-0.715519893354	-0.277040415929	-0.140748005977	-0.55810546875	0.208984375	0.7978515625	-2.6875	-1.4375	5.0625
18	12	18	11	22	24	-0.716102925304	-0.276785712627	-0.140559536093	-0.5546875	0.2421875	0.79345703125	-3.125	-2.375	3.5625
18	12	18	11	22	24	-0.716426928949	-0.276548851173	-0.140929441041	-0.560546875	0.2158203125	0.787109375	-3.4375	-0.375	2.0625
18	12	18	11	22	24	-0.71673047444	-0.275571667555	-0.141844641284	-0.57958984375	0.20556640625	0.79833984375	-7.4375	-2.0625	0.25
18	12	18	11	22	24	-0.716961104215	-0.274345804328	-0.143367807423	-0.5908203125	0.18701171875	0.77880859375	-9.6875	-1.75	-0.5
18	12	18	11	22	24	-0.717163912812	-0.273193674361	-0.145263839361	-0.626953125	0.1748046875	0.79931640625	-10.0625	-1.0	-0.0625
18	12	18	11	22	24	-0.717575232755	-0.271844865756	-0.146603360473	-0.603515625	0.1728515625	0.8154296875	-9.25	-2.25	1.125
18	12	18	11	22	24	-0.71782961379	-0.270628050977	-0.147826147828	-0.60693359375	0.1748046875	0.82470703125	-8.0	-2.125	-0.125
18	12	18	11	22	24	-0.71799593844	-0.269523126841	-0.149348526127	-0.61328125	0.16259765625	0.83837890625	-7.8125	-0.125	-0.125
18	12	18	11	22	24	-0.718438257723	-0.269040509731	-0.15032821585	-0.57080078125	0.177734375	0.8359375	-4.9375	2.6875	3.0
18	12	18	11	22	24	-0.718481524574	-0.268667658102	-0.151606193259	-0.57373046875	0.17578125	0.8193359375	-5.3125	3.375	-0.375
18	12	18	11	22	24	-0.718678868864	-0.268306777709	-0.153257124392	-0.599609375	0.17333984375	0.822265625	-6.75	4.0625	1.3125
18	12	18	11	22	24	-0.719280277273	-0.267571042475	-0.154475891538	-0.56884765625	0.1943359375	0.8125	-8.9375	2.1875	2.375
18	12	18	11	22	24	-0.719802237303	-0.266484912072	-0.156009032354	-0.56005859375	0.16650390625	0.80517578125	-9.875	2.375	1.75
18	12	18	11	22	25	-0.720121453741	-0.265857195736	-0.157463628329	-0.5615234375	0.15283203125	0.7900390625	-7.0625	3.1875	1.5625
18	12	18	11	22	25	-0.720192052667	-0.265738660789	-0.158747417711	-0.56982421875	0.14990234375	0.771484375	-4.0625	3.25	1.375
18	12	18	11	22	25	-0.720195414182	-0.265739901131	-0.159907795352	-0.5966796875	0.1484375	0.76123046875	-3.0625	1.375	1.1875
18	12	18	11	22	25	-0.720684989669	-0.265313147874	-0.161006690612	-0.60888671875	0.16650390625	0.78125	-6.375	-0.375	3.4375
18	12	18	11	22	25	-0.721425290033	-0.264156400614	-0.161679830228	-0.568359375	0.1689453125	0.80615234375	-8.3125	-1.75	3.5
18	12	18	11	22	25	-0.721729325554	-0.263057369398	-0.162350951879	-0.57666015625	0.1630859375	0.830078125	-6.0625	-1.25	0.0625
18	12	18	11	22	25	-0.721658922682	-0.262809820794	-0.163325378645	-0.62060546875	0.16748046875	0.82421875	-4.0625	0.75	-0.625
18	12	18	11	22	25	-0.721797374911	-0.262571647799	-0.164427712499	-0.6220703125	0.18115234375	0.8115234375	-5.625	0.8125	0.625
18	12	18	11	22	25	-0.721904620025	-0.262077987689	-0.16570604019	-0.62939453125	0.16064453125	0.80322265625	-6.625	-0.1875	0.125
18	12	18	11	22	25	-0.722351500737	-0.261413728573	-0.166565039756	-0.60302734375	0.162109375	0.8154296875	-6.125	-0.5625	2.5
18	12	18	11	22	25	-0.722893429285	-0.26080071119	-0.167234717683	-0.5888671875	0.16845703125	0.81884765625	-6.125	0.125	2.9375
18	12	18	11	22	25	-0.723070985548	-0.260493539826	-0.168087912062	-0.59814453125	0.18212890625	0.82421875	-5.5	1.375	0.25
18	12	18	11	22	25	-0.723140821746	-0.260252571229	-0.16924962008	-0.61767578125	0.173828125	0.80517578125	-6.0	1.4375	0.0
18	12	18	11	22	25	-0.723370001449	-0.259758920534	-0.170405758019	-0.6083984375	0.14990234375	0.802734375	-5.875	0.8125	1.0625
18	12	18	11	22	25	-0.723807188453	-0.259091113499	-0.171079479655	-0.5771484375	0.13134765625	0.77587890625	-4.8125	-1.3125	2.9375
18	12	18	11	22	25	-0.72435186787	-0.258723253109	-0.17132252217	-0.57763671875	0.1240234375	0.7646484375	-2.0	-2.125	5.0625
18	12	18	11	22	25	-0.7248542015	-0.258423096089	-0.171142740064	-0.57861328125	0.14404296875	0.76123046875	-1.375	-4.375	4.5
18	12	18	11	22	25	-0.725407261201	-0.257936145211	-0.170838445444	-0.5830078125	0.17333984375	0.791015625	-2.75	-4.875	3.1875
18	12	18	11	22	25	-0.725962310368	-0.257144712761	-0.170534613685	-0.56298828125	0.18896484375	0.81298828125	-4.625	-4.0	1.625
18	12	18	11	22	25	-0.726058974767	-0.256342274212	-0.170528646226	-0.5673828125	0.17578125	0.83056640625	-4.125	-2.625	-1.8125
18	12	18	11	22	25	-0.726176412746	-0.255669271558	-0.170832726448	-0.5810546875	0.16650390625	0.8251953125	-4.0625	-2.0	-1.25
18	12	18	11	22	25	-0.72659238093	-0.254688786696	-0.171440403027	-0.58203125	0.15673828125	0.82861328125	-6.8125	-1.1875	1.125
18	12	18	11	22	25	-0.727112587033	-0.253479272555	-0.172241393487	-0.5732421875	0.13330078125	0.82763671875	-7.5	-1.0625	2.0
18	12	18	11	22	25	-0.727523190181	-0.252557966524	-0.173213994441	-0.58251953125	0.12744140625	0.822265625	-6.4375	0.125	1.875
18	12	18	11	22	25	-0.727906404202	-0.252014551648	-0.174072536038	-0.58154296875	0.14208984375	0.82177734375	-5.625	1.1875	2.1875
18	12	18	11	22	25	-0.727962292324	-0.251951734947	-0.174803723083	-0.57861328125	0.1484375	0.814453125	-3.25	2.5625	0.4375
18	12	18	11	22	25	-0.727904789407	-0.252258133039	-0.175659062881	-0.6044921875	0.1513671875	0.80712890625	-1.75	2.5625	0.5
18	12	18	11	22	25	-0.72806992213	-0.252496040561	-0.1763871301	-0.60986328125	0.1572265625	0.81494140625	-2.875	2.25	2.0625
18	12	18	11	22	25	-0.728652113207	-0.252263292334	-0.176761310089	-0.56591796875	0.14990234375	0.8271484375	-3.5	1.75	4.125
18	12	18	11	22	25	-0.729053090523	-0.252132132018	-0.177060110139	-0.5419921875	0.1357421875	0.822265625	-1.5625	3.0625	3.1875
18	12	18	11	22	25	-0.728986974131	-0.25249657669	-0.177669213136	-0.5732421875	0.1298828125	0.8037109375	0.125	3.5	1.25
18	12	18	11	22	25	-0.729111621838	-0.252985741882	-0.178341215387	-0.59912109375	0.14013671875	0.7841796875	-0.625	2.5	3.0625
18	12	18	11	22	25	-0.729712475995	-0.252799353929	-0.178888195646	-0.59912109375	0.1337890625	0.767578125	-3.8125	-1.0	5.25
18	12	18	11	22	25	-0.73034955418	-0.252259293618	-0.179260959437	-0.6015625	0.130859375	0.77783203125	-4.8125	-3.1875	4.875
18	12	18	11	22	25	-0.730945711889	-0.251949223337	-0.179379546363	-0.60107421875	0.1494140625	0.79638671875	-3.125	-2.625	4.5
18	12	18	11	22	25	-0.731257938304	-0.252439932629	-0.179259207478	-0.5986328125	0.14990234375	0.8017578125	1.25	-0.25	4.25
18	12	18	11	22	25	-0.73107265789	-0.253781942854	-0.178953500829	-0.591796875	0.14404296875	0.79638671875	7.25	2.125	2.875
18	12	18	11	22	25	-0.730895888543	-0.25543209132	-0.178344700319	-0.5888671875	0.14892578125	0.79052734375	9.125	2.3125	3.75
18	12	18	11	22	25	-0.730786887211	-0.256718420413	-0.1777375274	-0.62451171875	0.14404296875	0.7998046875	8.3125	-0.875	4.0
18	12	18	11	22	25	-0.731609277335	-0.256951285358	-0.176814221777	-0.56201171875	0.17822265625	0.818359375	1.25	-1.875	6.875
18	12	18	11	22	25	-0.732224787219	-0.256769999152	-0.176815471249	-0.56005859375	0.18310546875	0.814453125	-3.6875	0.875	3.8125
18	12	18	11	22	25	-0.731916983472	-0.256708041401	-0.177974476635	-0.634765625	0.150390625	0.81103515625	-3.125	1.25	-1.8125
18	12	18	11	22	25	-0.732204289822	-0.256457649898	-0.17906871604	-0.66845703125	0.1494140625	0.80615234375	-5.4375	-1.0	2.75
18	12	18	11	22	25	-0.73337772616	-0.255363882012	-0.179499325286	-0.61328125	0.14892578125	0.83154296875	-8.0	-2.8125	7.75
18	12	18	11	22	25	-0.734576253927	-0.254501743011	-0.179371851968	-0.55615234375	0.162109375	0.83984375	-6.125	-1.0625	7.4375
18	12	18	11	22	25	-0.734736084357	-0.255186207734	-0.179075898945	-0.58935546875	0.18408203125	0.8212890625	2.0625	0.875	2.5
18	12	18	11	22	25	-0.73447766995	-0.256462952396	-0.179377586171	-0.6552734375	0.2001953125	0.80126953125	2.125	1.75	0.8125
18	12	18	11	22	25	-0.73466535867	-0.256891791529	-0.18023318137	-0.677734375	0.19482421875	0.80322265625	-4.3125	-0.0625	2.0625
18	12	18	11	22	25	-0.735445878305	-0.256154883921	-0.180779310501	-0.5791015625	0.1923828125	0.8486328125	-8.1875	1.5	3.25
18	12	18	11	22	25	-0.735661674034	-0.255433842681	-0.181641843684	-0.54150390625	0.17724609375	0.82275390625	-7.4375	4.0625	-1.5
18	12	18	11	22	26	-0.73448860461	-0.254879874759	-0.183957840643	-0.646484375	0.13330078125	0.833984375	-6.0625	4.9375	-10.5
18	12	18	11	22	26	-0.734285707055	-0.253530282363	-0.186272128496	-0.6201171875	0.1123046875	0.79248046875	-11.375	2.5	-4.125
18	12	18	11	22	26	-0.734204643062	-0.25214060857	-0.188357762781	-0.599609375	0.10107421875	0.78515625	-10.8125	2.1875	-3.0
18	12	18	11	22	26	-0.73401072639	-0.251160330874	-0.190247084164	-0.6240234375	0.1171875	0.806640625	-9.25	2.625	-3.5
18	12	18	11	22	26	-0.734255690994	-0.249573692475	-0.193482172939	-0.6318359375	0.1279296875	0.83203125	-18.125	7.375	-2.0
18	12	18	11	22	26	-0.732767266271	-0.250237030794	-0.196222452196	-0.6826171875	0.142578125	0.79443359375	-4.5	9.0625	-10.8125
18	12	18	11	22	26	-0.730700257605	-0.251155325764	-0.198971169378	-0.69580078125	0.10205078125	0.82373046875	0.1875	10.5625	-13.375
18	12	18	11	22	26	-0.728060493579	-0.253957558369	-0.200126612327	-0.72802734375	0.080078125	0.81689453125	16.4375	9.1875	-11.0
18	12	18	11	22	26	-0.725101256975	-0.258179993014	-0.198548349237	-0.63232421875	0.11962890625	0.78759765625	30.5625	6.25	-11.9375
18	12	18	11	22	26	-0.721731898525	-0.26214279105	-0.197812522885	-0.55224609375	0.1103515625	0.7294921875	27.8125	11.25	-16.125
18	12	18	11	22	26	-0.718132006626	-0.265255966411	-0.199033526569	-0.54931640625	0.095703125	0.75146484375	18.6875	18.5	-20.0625
18	12	18	11	22	26	-0.714423323864	-0.268801394131	-0.200624473775	-0.591796875	0.18505859375	0.712890625	14.125	18.625	-23.25
18	12	18	11	22	26	-0.712310005216	-0.269641470572	-0.205191177923	-0.607421875	0.255859375	0.697265625	-16.4375	20.75	-21.3125
18	12	18	11	22	26	-0.712035807876	-0.268432494689	-0.212097071179	-0.625	0.17431640625	0.74072265625	-33.5	25.75	-9.4375
18	12	18	11	22	26	-0.710451905094	-0.26971537531	-0.217469084008	-0.580078125	0.10400390625	0.7646484375	-11.0625	32.625	-9.75
18	12	18	11	22	26	-0.707675934157	-0.275502299852	-0.219840337631	-0.6220703125	0.1728515625	0.7333984375	16.125	34.25	-8.0
18	12	18	11	22	26	-0.705489541904	-0.281609892408	-0.22197988268	-0.61376953125	0.2490234375	0.748046875	12.8125	37.125	-5.5
18	12	18	11	22	26	-0.704203262704	-0.287223136964	-0.223077043264	-0.685546875	0.27392578125	0.7275390625	11.4375	26.875	0.6875
18	12	18	11	22	26	-0.704039017953	-0.290343615813	-0.223510263003	-0.76953125	0.22021484375	0.68994140625	4.9375	8.0625	6.0
18	12	18	11	22	26	-0.705375129911	-0.290340875053	-0.223630222029	-0.77490234375	0.10107421875	0.775390625	-2.375	-2.0625	13.6875
18	12	18	11	22	26	-0.707622421567	-0.290275335257	-0.220086808019	-0.669921875	0.13720703125	0.8251953125	7.875	-11.5	19.0625
18	12	18	11	22	26	-0.708969727511	-0.290277205926	-0.215693785901	-0.61767578125	0.16064453125	0.78125	12.8125	-15.4375	10.875
18	12	18	11	22	26	-0.709926538949	-0.290208106319	-0.214223018545	-0.71728515625	0.1240234375	0.72314453125	3.75	-10.5	9.8125
18	12	18	11	22	26	-0.710607001389	-0.289479430352	-0.214652995266	-0.765625	0.0966796875	0.689453125	-3.9375	-8.75	6.875
18	12	18	11	22	26	-0.711465425226	-0.288809675918	-0.215447623835	-0.72509765625	0.111328125	0.69970703125	-6.625	-3.6875	7.5
18	12	18	11	22	26	-0.712234482866	-0.288824541342	-0.215702859067	-0.70263671875	0.16943359375	0.6787109375	-5.0	-3.6875	5.9375
18	12	18	11	22	26	-0.713232894116	-0.288564532208	-0.217094763338	-0.70556640625	0.16015625	0.646484375	-10.6875	-0.875	7.25
18	12	18	11	22	26	-0.714773198283	-0.287654861541	-0.217587435051	-0.6748046875	0.15869140625	0.7099609375	-10.8125	-2.8125	9.5625
18	12	18	11	22	26	-0.715912394567	-0.287585609821	-0.216665728961	-0.6435546875	0.162109375	0.734375	-0.9375	-3.625	8.8125
18	12	18	11	22	26	-0.716654709785	-0.288566127394	-0.214898759424	-0.64208984375	0.19677734375	0.74560546875	5.6875	-2.625	7.6875
18	12	18	11	22	26	-0.717163959566	-0.289734239665	-0.213440201413	-0.66015625	0.1953125	0.75146484375	6.4375	-1.625	6.625
18	12	18	11	22	26	-0.717702261264	-0.290584272972	-0.212887616914	-0.701171875	0.16455078125	0.73095703125	3.25	-1.6875	7.5625
18	12	18	11	22	26	-0.718784720721	-0.290333609278	-0.212516633909	-0.6845703125	0.1728515625	0.716796875	-3.6875	-4.6875	8.3125
18	12	18	11	22	26	-0.719851216591	-0.28949078517	-0.212891389136	-0.6884765625	0.1279296875	0.7060546875	-6.25	-4.5	8.4375
18	12	18	11	22	26	-0.721002379644	-0.288571848892	-0.212644738058	-0.67138671875	0.12451171875	0.716796875	-4.25	-6.875	8.6875
18	12	18	11	22	26	-0.7218595566	-0.288206715673	-0.212096217061	-0.67431640625	0.12109375	0.74462890625	0.25	-4.4375	8.5625
18	12	18	11	22	26	-0.723019479286	-0.288511993803	-0.210448350885	-0.64697265625	0.1884765625	0.76171875	3.0	-4.9375	10.125
18	12	18	11	22	26	-0.723564325708	-0.289914006505	-0.209226360905	-0.6826171875	0.1943359375	0.75732421875	6.9375	-0.75	8.4375
18	12	18	11	22	26	-0.724123768397	-0.291504982962	-0.207459262372	-0.71484375	0.1611328125	0.7275390625	11.125	-5.75	11.875
18	12	18	11	22	26	-0.725203985888	-0.293511695685	-0.204341267863	-0.68798828125	0.185546875	0.76171875	15.875	-6.875	17.125
18	12	18	11	22	26	-0.726431200363	-0.295589506248	-0.200803112855	-0.66845703125	0.19287109375	0.74462890625	16.9375	-8.5	18.375
18	12	18	11	22	26	-0.727721784366	-0.297363124501	-0.196838275147	-0.64013671875	0.23388671875	0.75634765625	15.625	-9.9375	16.375
18	12	18	11	22	26	-0.729410323445	-0.297110656391	-0.194635555306	-0.65234375	0.22412109375	0.77197265625	1.3125	-10.125	13.875
18	12	18	11	22	26	-0.73238586985	-0.293991894589	-0.192617483771	-0.6005859375	0.22509765625	0.845703125	-12.8125	-14.0625	14.8125
18	12	18	11	22	26	-0.735973327908	-0.289005946894	-0.190981965751	-0.54541015625	0.2197265625	0.86328125	-22.5	-16.6875	13.625
18	12	18	11	22	26	-0.740725407394	-0.281922433813	-0.18914865174	-0.48779296875	0.25	0.9248046875	-34.25	-20.3125	15.5
18	12	18	11	22	26	-0.745114229926	-0.27386365905	-0.187682360503	-0.521484375	0.26123046875	0.87841796875	-40.625	-27.5	9.5
18	12	18	11	22	26	-0.74937028879	-0.265129869238	-0.183650040639	-0.5234375	0.3154296875	0.9619140625	-35.8125	-40.0625	5.1875
18	12	18	11	22	26	-0.754496942237	-0.255364439922	-0.176753206982	-0.515625	0.302734375	0.8525390625	-33.3125	-62.8125	12.375
18	12	18	11	22	26	-0.756212165345	-0.248286609251	-0.172848494936	-0.65185546875	0.0712890625	0.73193359375	-13.4375	-54.1875	0.6875
18	12	18	11	22	26	-0.756853578987	-0.245957577882	-0.169729038236	-0.6435546875	0.056640625	0.7021484375	5.875	-34.0	5.3125
18	12	18	11	22	27	-0.757716070269	-0.245227802686	-0.166679225768	-0.689453125	0.21728515625	0.6611328125	1.375	-31.4375	6.5625
18	12	18	11	22	27	-0.758126514296	-0.240725462715	-0.163331982309	-0.677734375	0.2021484375	0.765625	-9.1875	-44.25	-7.5
18	12	18	11	22	27	-0.758467830912	-0.234492106411	-0.158565979296	-0.55859375	0.130859375	0.90380859375	-5.4375	-46.875	-10.875
18	12	18	11	22	27	-0.759524175185	-0.229493000538	-0.151794971367	-0.48681640625	0.16455078125	0.96142578125	3.3125	-45.75	-2.4375
18	12	18	11	22	27	-0.76047477989	-0.226128335433	-0.141353097129	-0.37646484375	0.22900390625	0.9677734375	19.875	-50.875	-0.5625
18	12	18	11	22	27	-0.759122317212	-0.225087884377	-0.131219889211	-0.4091796875	0.1552734375	0.978515625	38.5	-44.75	-11.5625
18	12	18	11	22	27	-0.757128062839	-0.225826185611	-0.123349924627	-0.458984375	0.19189453125	0.935546875	36.4375	-33.25	-13.0
18	12	18	11	22	27	-0.755130313356	-0.226014189327	-0.118713907168	-0.48291015625	0.220703125	0.88134765625	20.8125	-23.875	-15.875
18	12	18	11	22	27	-0.750773125621	-0.222650220492	-0.118466030146	-0.58349609375	0.05615234375	0.7392578125	2.4375	-30.875	-40.125
18	12	18	11	22	27	-0.737665009462	-0.220518259075	-0.129149359591	-1.1650390625	-0.49169921875	0.6552734375	16.8125	-21.5625	-93.4375
18	12	18	11	22	27	-0.729498859226	-0.220522036344	-0.136903107534	-0.8310546875	-0.33642578125	0.7421875	16.3125	3.0	-52.4375
18	12	18	11	22	27	-0.726927830832	-0.225951874873	-0.144103829437	-0.6044921875	0.0322265625	0.564453125	3.25	35.6875	-6.625
18	12	18	11	22	27	-0.723249932022	-0.231928248243	-0.152401272596	-0.6787109375	0.25439453125	0.60400390625	-9.375	40.6875	-22.1875
18	12	18	11	22	27	-0.72224630587	-0.233709211964	-0.1616249656	-0.74169921875	0.25439453125	0.5751953125	-36.125	25.4375	-9.125
18	12	18	11	22	27	-0.723784870639	-0.231679515047	-0.169060130843	-0.69140625	0.2490234375	0.62060546875	-49.5	8.8125	2.6875
18	12	18	11	22	27	-0.726244524745	-0.230281586004	-0.174069197796	-0.62646484375	0.15869140625	0.64501953125	-34.5	6.0625	15.625
18	12	18	11	22	27	-0.728347096905	-0.236515964176	-0.173404349477	-0.51953125	0.2158203125	0.7138671875	14.9375	20.5	30.125
18	12	18	11	22	27	-0.734103573925	-0.253957845951	-0.168755934644	-0.41455078125	0.57666015625	0.7529296875	44.4375	59.1875	79.0
18	12	18	11	22	27	-0.745001517165	-0.268434923193	-0.174073761015	-0.4296875	0.9384765625	0.7119140625	-4.6875	94.3125	126.375
18	12	18	11	22	27	-0.760967955836	-0.264458947116	-0.191096460517	-0.67431640625	0.75830078125	0.759765625	-131.125	79.5	123.0625
18	12	18	11	22	27	-0.780153147296	-0.242371158497	-0.213318357831	-0.75048828125	0.173828125	0.92822265625	-224.5	42.0625	112.75
18	12	18	11	22	27	-0.799599721349	-0.219598488468	-0.233575157133	-0.20947265625	-0.15966796875	1.04296875	-221.4375	43.875	130.75
18	12	18	11	22	27	-0.813174249422	-0.207459226434	-0.244751838188	-0.28466796875	-0.33544921875	0.83935546875	-129.0625	30.5625	114.875
18	12	18	11	22	27	-0.812374829216	-0.193114497343	-0.253294931724	-0.9248046875	-1.11962890625	0.8828125	-18.5625	-16.875	6.25
18	12	18	11	22	27	-0.803156735186	-0.19091680733	-0.246336392067	-0.55615234375	-0.77783203125	1.6484375	60.25	-37.75	-102.3125
18	12	18	11	22	27	-0.799100860861	-0.204642571333	-0.226248139556	-0.162109375	0.3056640625	1.20654296875	138.25	-48.1875	-20.5
18	12	18	11	22	27	-0.801240008626	-0.22081705905	-0.204521272769	-0.20751953125	0.95166015625	0.61181640625	86.4375	-41.0	21.75
18	12	18	11	22	27	-0.799406277365	-0.231680121307	-0.198356268242	-0.85693359375	0.404296875	0.52490234375	54.125	-23.0625	6.375
18	12	18	11	22	27	-0.799303654616	-0.224239586672	-0.192135606653	-0.4853515625	0.36865234375	0.73876953125	-22.4375	-58.125	-35.625
18	12	18	11	22	27	-0.799673003967	-0.21410875423	-0.192807740767	-0.794921875	-0.02490234375	0.48974609375	-39.0	-60.4375	-17.5
18	12	18	11	22	27	-0.792105085237	-0.206296439213	-0.208554713843	-1.50634765625	-0.38330078125	0.42529296875	-40.0	-25.0625	-63.125
18	12	18	11	22	27	-0.79197521144	-0.200679292171	-0.220454258918	-1.17236328125	-0.30810546875	0.564453125	-43.75	-5.625	9.3125
18	12	18	11	22	27	-0.797219244574	-0.199274294406	-0.223016316006	-0.8291015625	0.07470703125	0.8359375	-29.875	-4.3125	51.1875
18	12	18	11	22	27	-0.803500607178	-0.191277698663	-0.218437422946	-0.43212890625	0.16455078125	1.0146484375	-40.0625	-33.625	31.4375
18	12	18	11	22	27	-0.808157318555	-0.178647871868	-0.214353032457	-0.16650390625	0.04736328125	0.9931640625	-50.625	-33.875	6.1875
18	12	18	11	22	27	-0.810255023375	-0.170766311796	-0.213061184589	-0.31982421875	0.013671875	0.9892578125	-32.125	-14.75	-1.3125
18	12	18	11	22	27	-0.809512460389	-0.168457693634	-0.213623886855	-0.5869140625	-0.0068359375	0.93505859375	-5.625	-5.875	-11.125
18	12	18	11	22	27	-0.808430719422	-0.166800630845	-0.213429127723	-0.591796875	-0.00341796875	0.89892578125	-0.4375	-9.5	-13.5625
18	12	18	11	22	27	-0.808196178033	-0.165398855344	-0.212699266006	-0.5244140625	-0.0244140625	0.85107421875	1.375	-9.0625	-4.5625
18	12	18	11	22	27	-0.807537562695	-0.165218364614	-0.212763656833	-0.5615234375	-0.04296875	0.80517578125	5.875	-4.6875	-3.75
18	12	18	11	22	27	-0.806966370709	-0.165885236393	-0.212940982257	-0.58642578125	-0.02099609375	0.8203125	7.5625	-2.5	-1.25
18	12	18	11	22	27	-0.806243444161	-0.167901265321	-0.212577283574	-0.58056640625	0.03466796875	0.818359375	12.3125	-0.125	-1.75
18	12	18	11	22	27	-0.805449999606	-0.169854311503	-0.213126574117	-0.578125	0.04345703125	0.8134765625	8.9375	4.3125	-1.75
18	12	18	11	22	27	-0.805589983357	-0.169674987024	-0.214962339676	-0.55419921875	0.06005859375	0.83447265625	-8.75	6.125	2.25
18	12	18	11	22	27	-0.806061019805	-0.165887321256	-0.217948353277	-0.564453125	0.01611328125	0.86865234375	-26.125	0.875	-1.875
18	12	18	11	22	27	-0.806306364671	-0.160516670887	-0.221183427868	-0.53857421875	-0.0517578125	0.87939453125	-30.4375	-1.25	-5.875
18	12	18	11	22	27	-0.805858478297	-0.157228769226	-0.225222887595	-0.5625	-0.1123046875	0.84375	-19.0	7.0	-4.375
18	12	18	11	22	27	-0.804895267025	-0.157341522474	-0.22905459032	-0.6357421875	-0.09912109375	0.8369140625	-3.9375	13.0625	-1.125
18	12	18	11	22	27	-0.804000943056	-0.159420820106	-0.231135775552	-0.6337890625	-0.05615234375	0.82275390625	8.0625	10.875	1.8125
18	12	18	11	22	28	-0.803012016425	-0.162103816647	-0.232169773541	-0.6259765625	-0.01025390625	0.80810546875	12.125	7.9375	-0.5
18	12	18	11	22	28	-0.802104389059	-0.164607787041	-0.233392724377	-0.6396484375	-0.00732421875	0.783203125	10.125	6.75	0.25
18	12	18	11	22	28	-0.801487370631	-0.166315343053	-0.234855574337	-0.64208984375	0.0068359375	0.7587890625	4.125	4.375	0.875
18	12	18	11	22	28	-0.800697751454	-0.166743368929	-0.236687695719	-0.66162109375	-0.00341796875	0.75048828125	-1.1875	1.3125	-3.5
18	12	18	11	22	28	-0.800169615177	-0.166808814514	-0.238525008094	-0.65185546875	0.0146484375	0.78955078125	-4.75	1.875	-2.9375
18	12	18	11	22	28	-0.800364019124	-0.167116348994	-0.239382878289	-0.640625	0.0302734375	0.82763671875	-3.375	0.6875	3.1875
18	12	18	11	22	28	-0.800204130358	-0.167291550706	-0.239981896161	-0.671875	-0.02978515625	0.82763671875	1.625	-3.3125	1.6875
18	12	18	11	22	28	-0.799324099212	-0.168031402347	-0.240480830093	-0.6826171875	-0.0859375	0.8154296875	9.875	-2.625	-2.25
18	12	18	11	22	28	-0.798315026479	-0.170343825604	-0.240654139863	-0.6533203125	-0.02978515625	0.828125	14.875	3.3125	-1.25
18	12	18	11	22	28	-0.797532212018	-0.173153660786	-0.2409625142	-0.6533203125	0.02783203125	0.796875	12.5	4.5625	0.75
18	12	18	11	22	28	-0.796334359394	-0.175172806888	-0.242495317688	-0.73779296875	-0.0126953125	0.78125	8.3125	3.0625	-2.875
18	12	18	11	22	28	-0.796175141831	-0.176080129106	-0.243338466116	-0.68212890625	-0.03662109375	0.7939453125	4.625	0.125	4.6875
18	12	18	11	22	28	-0.796008828812	-0.177487630286	-0.243099460601	-0.62548828125	-0.033203125	0.7958984375	10.375	-0.5625	4.6875
18	12	18	11	22	28	-0.795300388747	-0.179385099196	-0.24359507686	-0.69189453125	-0.0029296875	0.75927734375	10.1875	-0.3125	0.625
18	12	18	11	22	28	-0.795831155741	-0.181150921868	-0.241758356307	-0.56591796875	0.1650390625	0.93603515625	4.75	1.9375	3.125
18	12	18	11	22	28	-0.79990323803	-0.179560150029	-0.234307075446	-0.26708984375	0.3017578125	1.08056640625	-6.75	-14.625	16.5625
18	12	18	11	22	28	-0.80378235404	-0.176149736028	-0.222598089846	-0.0380859375	0.2763671875	1.3232421875	4.0	-21.0	7.25
18	12	18	11	22	28	-0.807191754644	-0.171265033159	-0.211060044428	0.17919921875	0.26806640625	0.85205078125	-2.3125	-31.9375	-0.25
18	12	18	11	22	28	-0.800686214759	-0.175895851127	-0.21269848757	-0.8662109375	-0.57080078125	0.74072265625	69.125	-2.5	-26.9375
18	12	18	11	22	28	-0.794829113692	-0.186882188906	-0.215323436467	-0.93603515625	0.2724609375	0.8388671875	40.625	25.25	-31.625
18	12	18	11	22	28	-0.795530221702	-0.194396482747	-0.211913528445	-0.47216796875	0.056640625	0.7646484375	41.9375	10.875	26.5
18	12	18	11	22	28	-0.793927073136	-0.187312591286	-0.221796662344	-1.1572265625	-0.16845703125	0.73193359375	-46.5625	-15.25	-16.8125
18	12	18	11	22	28	-0.788306817091	-0.182367665645	-0.236626318509	-1.56298828125	-0.751953125	0.46728515625	-12.875	-16.5	-21.75
18	12	18	11	22	28	-0.786303083752	-0.18261420683	-0.245418357507	-1.146484375	-0.458984375	0.48828125	1.75	-1.5625	10.3125
18	12	18	11	22	28	-0.784885611736	-0.186761273088	-0.252738049627	-1.078125	-0.17822265625	0.5419921875	4.8125	12.5	15.5625
18	12	18	11	22	28	-0.786552372885	-0.185422992847	-0.256833427881	-0.76318359375	0.18359375	0.7490234375	-35.5	4.625	9.9375
18	12	18	11	22	28	-0.790365801101	-0.181021232901	-0.259203363496	-0.55029296875	0.16748046875	0.82177734375	-47.5	1.125	20.0
18	12	18	11	22	28	-0.793055454436	-0.175529281742	-0.261279852273	-0.53857421875	0.06689453125	0.8134765625	-42.375	-4.0	9.5
18	12	18	11	22	28	-0.793997440078	-0.173643071491	-0.261105469187	-0.53759765625	-0.03466796875	0.79345703125	-7.9375	-4.3125	5.0625
18	12	18	11	22	28	-0.793254976396	-0.177730129358	-0.258294611073	-0.52685546875	-0.03271484375	0.76318359375	32.0625	1.5625	3.4375
18	12	18	11	22	28	-0.7915453414	-0.185908482528	-0.253411693846	-0.568359375	0.01025390625	0.736328125	57.5	1.375	2.6875
18	12	18	11	22	28	-0.789335445578	-0.194938329326	-0.246999191855	-0.6142578125	0.033203125	0.73193359375	67.75	-6.0625	-0.1875
18	12	18	11	22	28	-0.787031154585	-0.203120564751	-0.239923960347	-0.640625	0.03564453125	0.751953125	67.3125	-12.875	-2.625
18	12	18	11	22	28	-0.785246046478	-0.209830243105	-0.232595420731	-0.58740234375	0.10302734375	0.81884765625	57.875	-13.125	-3.1875
18	12	18	11	22	28	-0.783096176454	-0.216434843469	-0.226322729719	-0.54833984375	0.13818359375	0.830078125	53.5625	-5.75	-6.8125
18	12	18	11	22	28	-0.780425903398	-0.223501967486	-0.220389296721	-0.58544921875	0.18212890625	0.8525390625	54.0625	-3.625	-10.125
18	12	18	11	22	28	-0.778779859532	-0.229178555842	-0.213981362658	-0.56787109375	0.27001953125	0.943359375	43.375	-5.6875	-7.4375
18	12	18	11	22	28	-0.777990057213	-0.231010619483	-0.20891660515	-0.49853515625	0.2021484375	0.97265625	25.1875	-7.6875	-7.375
18	12	18	11	22	28	-0.776074864229	-0.231815362512	-0.204471159667	-0.5009765625	0.09033203125	0.96533203125	29.0625	-9.875	-16.1875
18	12	18	11	22	28	-0.773361008464	-0.234431349815	-0.197872021896	-0.52685546875	0.06103515625	0.966796875	48.1875	-16.3125	-16.5625
18	12	18	11	22	28	-0.770118637671	-0.238640345007	-0.188959209243	-0.54296875	0.12060546875	0.892578125	60.8125	-26.5625	-18.0
18	12	18	11	22	28	-0.7663261997	-0.244435841812	-0.177910231931	-0.56640625	0.15771484375	0.87109375	74.5625	-33.25	-17.625
18	12	18	11	22	28	-0.76406665324	-0.250172474769	-0.163445203081	-0.6591796875	0.314453125	0.90185546875	74.4375	-53.5625	-5.5625
18	12	18	11	22	28	-0.764494111845	-0.252796951242	-0.145745803855	-0.57568359375	0.40478515625	0.9208984375	62.375	-73.9375	9.875
18	12	18	11	22	28	-0.76834668173	-0.248221936182	-0.127071077239	-0.48388671875	0.39111328125	1.00537109375	35.0	-100.6875	28.9375
18	12	18	11	22	28	-0.772769649884	-0.242127572948	-0.104675772021	-0.37158203125	0.27197265625	1.1025390625	42.625	-120.8125	36.5
18	12	18	11	22	28	-0.776273021213	-0.239247601475	-0.0772061775167	-0.1787109375	0.32666015625	1.11083984375	74.125	-129.5625	42.75
18	12	18	11	22	28	-0.780025976979	-0.238524375433	-0.0476682541487	-0.06884765625	0.451171875	1.1396484375	88.0625	-127.375	57.375
18	12	18	11	22	28	-0.784046738737	-0.235104159864	-0.0186764986808	-0.03662109375	0.60009765625	1.13818359375	71.9375	-133.6875	59.9375
18	12	18	11	22	28	-0.789365273303	-0.225280076066	0.00781247622228	-0.01416015625	0.66259765625	1.0986328125	32.3125	-143.1875	63.125
18	12	18	11	22	28	-0.796087670041	-0.210267731603	0.0316774898989	0.02978515625	0.55615234375	1.12646484375	-0.1875	-147.0	71.5625
18	12	18	11	22	29	-0.803301664754	-0.194523395302	0.0558484175404	0.1767578125	0.46630859375	1.1611328125	-0.5	-147.0625	82.6875
18	12	18	11	22	29	-0.810042731658	-0.181270864453	0.0821517116344	0.30712890625	0.43505859375	1.0986328125	18.875	-145.8125	92.25
18	12	18	11	22	29	-0.816650776992	-0.169677814652	0.109191946191	0.35400390625	0.47265625	1.03076171875	29.3125	-142.125	102.1875
18	12	18	11	22	29	-0.823472276767	-0.156125265637	0.135190564263	0.35009765625	0.5126953125	0.99658203125	17.0	-142.9375	110.5
18	12	18	11	22	29	-0.83062758684	-0.14025881362	0.159362820871	0.3251953125	0.51220703125	0.9697265625	1.0	-141.1875	118.75
18	12	18	11	22	29	-0.837577044955	-0.123533916708	0.18206604424	0.2958984375	0.4873046875	0.92529296875	-6.125	-137.875	123.5625
18	12	18	11	22	29	-0.843955027136	-0.10461697523	0.202580945618	0.28271484375	0.48193359375	0.849609375	-23.625	-134.875	122.3125
18	12	18	11	22	29	-0.850473196179	-0.0849008336361	0.219301721966	0.30419921875	0.40478515625	0.82275390625	-36.625	-118.625	123.9375
18	12	18	11	22	29	-0.857376621428	-0.065491928155	0.231327500193	0.34326171875	0.28466796875	0.7919921875	-46.0	-94.1875	123.75
18	12	18	11	22	29	-0.863311318027	-0.0496808351272	0.240591955861	0.34375	0.1923828125	0.7666015625	-35.875	-73.4375	109.375
18	12	18	11	22	29	-0.867984342506	-0.0391847231481	0.245728497499	0.27099609375	0.23193359375	0.7548828125	-24.25	-46.4375	83.75
18	12	18	11	22	29	-0.872327546157	-0.0347905612447	0.244327397654	0.0927734375	0.21630859375	0.71142578125	-15.5625	-10.1875	59.25
18	12	18	11	22	29	-0.876578636034	-0.0332638460269	0.238278999796	-0.08935546875	0.166015625	0.66455078125	-13.9375	10.0625	43.625
18	12	18	11	22	29	-0.881238681403	-0.0319828971502	0.228702129049	-0.20458984375	0.099609375	0.63427734375	-19.25	22.875	39.0
18	12	18	11	22	29	-0.886730098653	-0.0328373343251	0.216433434046	-0.20263671875	-0.0458984375	0.58154296875	-6.5	45.0625	38.1875
18	12	18	11	22	29	-0.893619253058	-0.0382081587606	0.202454413113	-0.12353515625	-0.00146484375	0.671875	14.875	70.625	51.4375
18	12	18	11	22	29	-0.898207995562	-0.0436989145085	0.194631059173	0.21337890625	0.2373046875	0.70849609375	13.5	57.4375	40.25
18	12	18	11	22	29	-0.90035840948	-0.0400376299226	0.187676390262	0.2998046875	0.41357421875	0.80224609375	-48.25	32.375	17.375
18	12	18	11	22	29	-0.900214075763	-0.030029515579	0.179139488261	0.1044921875	-0.3974609375	0.8486328125	-38.8125	9.25	-28.1875
18	12	18	11	22	29	-0.898234645566	-0.0368033900439	0.17205432261	-0.3896484375	-0.2587890625	1.03857421875	43.6875	2.3125	-48.5625
18	12	18	11	22	29	-0.897552437402	-0.0514508843145	0.17186914618	-0.09326171875	0.30029296875	0.9580078125	70.625	9.9375	-9.1875
18	12	18	11	22	29	-0.899252985084	-0.0578627455277	0.17126884383	0.400390625	0.4072265625	0.9453125	24.5	29.6875	20.8125
18	12	18	11	22	29	-0.899679661794	-0.0586561841916	0.171451843282	0.6240234375	0.318359375	0.96484375	0.9375	25.125	1.4375
18	12	18	11	22	29	-0.899163616189	-0.060607485126	0.171385516852	0.3212890625	0.16259765625	0.9873046875	15.625	6.8125	-10.3125
18	12	18	11	22	29	-0.897341635078	-0.0661623134556	0.172607954292	0.16845703125	0.29541015625	1.00830078125	27.9375	-3.6875	-20.625
18	12	18	11	22	29	-0.896301838828	-0.0700073686848	0.174499622554	0.32958984375	0.45556640625	0.974609375	12.1875	2.0	-7.75
18	12	18	11	22	29	-0.896663161432	-0.0686031851779	0.173766252848	0.35205078125	0.30810546875	0.94873046875	-11.6875	6.625	2.0
18	12	18	11	22	29	-0.896509884168	-0.0671360114769	0.174736728053	0.46630859375	0.3369140625	1.00146484375	-9.1875	3.75	-1.75
18	12	18	11	22	29	-0.896697408148	-0.0649391534352	0.176690647739	0.50732421875	0.3349609375	1.0302734375	-9.0625	-0.5625	4.9375
18	12	18	11	22	29	-0.896789205009	-0.0623168705039	0.178100517268	0.41015625	0.26513671875	1.0283203125	-8.875	-5.625	3.0625
18	12	18	11	22	29	-0.896696429463	-0.0610940053017	0.180108301344	0.36279296875	0.28125	1.01708984375	-1.6875	-9.0	3.3125
18	12	18	11	22	29	-0.897260855344	-0.0594471174141	0.181209950311	0.3701171875	0.25048828125	0.9111328125	-4.5625	-1.875	9.625
18	12	18	11	22	29	-0.897670639739	-0.0594459615927	0.178643048852	0.13525390625	0.22998046875	0.95458984375	-4.6875	4.0625	0.8125
18	12	18	11	22	29	-0.898060606828	-0.0593865006418	0.175840193576	0.15234375	0.24755859375	0.98876953125	-6.4375	5.8125	0.25
18	12	18	11	22	29	-0.899318519038	-0.0550515985187	0.174431783333	0.32763671875	0.21875	0.94580078125	-22.8125	2.75	13.5
18	12	18	11	22	29	-0.899818928665	-0.0526109961683	0.173701734449	0.32861328125	0.16748046875	1.0625	-7.75	0.0625	3.625
18	12	18	11	22	29	-0.900492229161	-0.0509631971906	0.177058964132	0.537109375	0.22998046875	0.96630859375	2.1875	-3.25	14.1875
18	12	18	11	22	29	-0.900923330043	-0.0498037692104	0.178036268121	0.34375	0.22314453125	0.912109375	-2.5625	-2.25	8.0625
18	12	18	11	22	29	-0.900986701749	-0.0503532061335	0.175656396669	0.111328125	0.2275390625	0.9111328125	-3.4375	2.875	-2.9375
18	12	18	11	22	29	-0.901582205694	-0.0483993155372	0.173700443908	0.21875	0.21630859375	0.85693359375	-15.25	4.0625	4.9375
18	12	18	11	22	29	-0.90191963703	-0.046264809154	0.171936632436	0.24169921875	0.2060546875	0.896484375	-15.125	3.125	1.25
18	12	18	11	22	29	-0.902393654708	-0.045592699362	0.170896329603	0.30224609375	0.19091796875	0.88232421875	-4.625	7.5625	3.4375
18	12	18	11	22	29	-0.90262274717	-0.0459581397403	0.171564848353	0.37646484375	0.2021484375	0.875	4.0625	5.75	2.625
18	12	18	11	22	29	-0.902264480534	-0.0475454258497	0.172726001482	0.37548828125	0.2138671875	0.923828125	11.1875	4.0625	-4.375
18	12	18	11	22	29	-0.901838437368	-0.0474234208064	0.174007944297	0.36962890625	0.228515625	0.873046875	0.5625	-0.1875	-4.125
18	12	18	11	22	29	-0.90147151471	-0.0458365001724	0.175228484681	0.39404296875	0.19873046875	0.90771484375	-4.8125	-2.1875	-3.625
18	12	18	11	22	29	-0.901265639994	-0.0448618613975	0.177311166476	0.4375	0.212890625	0.90869140625	0.0	-2.5	0.375
18	12	18	11	22	29	-0.901010688724	-0.0449223592264	0.179933580162	0.416015625	0.23583984375	0.8623046875	4.8125	-3.8125	1.625
18	12	18	11	22	29	-0.900395223666	-0.0462038492621	0.181885694585	0.34716796875	0.16943359375	0.8916015625	13.875	-3.5	-6.4375
18	12	18	11	22	30	-0.899557074492	-0.0483376893275	0.184317956779	0.35986328125	0.1953125	0.8876953125	17.6875	-3.5625	-7.875
18	12	18	11	22	30	-0.898743593156	-0.0492554213702	0.187072944857	0.4111328125	0.24072265625	0.87646484375	9.6875	-4.875	-5.9375
18	12	18	11	22	30	-0.898155160199	-0.0492566234646	0.188969648384	0.41845703125	0.20703125	0.89990234375	5.375	-2.375	-5.875
18	12	18	11	22	30	-0.897700590226	-0.0487058111912	0.1912832234	0.4326171875	0.1767578125	0.8564453125	5.5	-4.0	-3.1875
18	12	18	11	22	30	-0.896918671227	-0.0496219720795	0.192811574169	0.3701171875	0.1845703125	0.86669921875	10.0	-1.5625	-9.5625
18	12	18	11	22	30	-0.896298087498	-0.0502927902008	0.194152142753	0.3837890625	0.2109375	0.9013671875	7.6875	-0.75	-6.9375
18	12	18	11	22	30	-0.895825532942	-0.0498664209589	0.196169739243	0.44287109375	0.19775390625	0.87548828125	4.625	-2.5625	-4.25
18	12	18	11	22	30	-0.89527958581	-0.0504769714661	0.198245711393	0.39404296875	0.17431640625	0.86572265625	11.5625	-4.0	-4.75
18	12	18	11	22	30	-0.894296757495	-0.0524908006719	0.200685758848	0.36083984375	0.2109375	0.859375	17.25	-5.125	-9.4375
18	12	18	11	22	30	-0.893515961669	-0.0530982846074	0.203543424328	0.43701171875	0.25830078125	0.84228515625	8.1875	-5.25	-4.6875
18	12	18	11	22	30	-0.893101587176	-0.0526107816679	0.204522887899	0.38427734375	0.21044921875	0.876953125	1.375	-2.25	-4.8125
18	12	18	11	22	30	-0.892684399287	-0.0518789648157	0.205806905128	0.39892578125	0.203125	0.8525390625	1.0625	-2.5625	-4.0
18	12	18	11	22	30	-0.892097881244	-0.0515751717058	0.207338293828	0.41943359375	0.216796875	0.87646484375	3.625	-2.9375	-6.125
18	12	18	11	22	30	-0.891756029035	-0.0509016855941	0.208184232088	0.38427734375	0.1943359375	0.8916015625	1.4375	-2.625	-4.375
18	12	18	11	22	30	-0.891269430119	-0.0502304143661	0.209954587387	0.45751953125	0.2353515625	0.8466796875	0.9375	-2.0	-3.875
18	12	18	11	22	30	-0.890979449582	-0.0494988583101	0.210995749911	0.4375	0.22509765625	0.88134765625	-0.25	-0.1875	-3.0625
18	12	18	11	22	30	-0.89069709447	-0.0485845876241	0.210879083217	0.35791015625	0.189453125	0.8818359375	-1.875	-0.125	-5.5
18	12	18	11	22	30	-0.89036153227	-0.0474232869875	0.211543259586	0.44091796875	0.208984375	0.869140625	-2.9375	0.625	-4.9375
18	12	18	11	22	30	-0.890258288276	-0.0457153063155	0.211181521831	0.4228515625	0.21044921875	0.9287109375	-7.25	2.625	-3.6875
18	12	18	11	22	30	-0.890488229074	-0.0430290748113	0.211483325136	0.48828125	0.197265625	0.9072265625	-9.625	2.0	1.75
18	12	18	11	22	30	-0.890666197114	-0.0408926438749	0.211970376384	0.4501953125	0.24755859375	0.88671875	-9.9375	0.0625	3.5625
18	12	18	11	22	30	-0.891058928178	-0.0385745080217	0.212342900961	0.443359375	0.25390625	0.8984375	-11.3125	-0.1875	6.9375
18	12	18	11	22	30	-0.891568183554	-0.0350328681106	0.21337091797	0.50927734375	0.2646484375	0.86083984375	-17.0625	-1.5	10.875
18	12	18	11	22	30	-0.892160095173	-0.0313113586115	0.213259038964	0.4296875	0.2314453125	0.92041015625	-18.5	-2.5625	9.875
18	12	18	11	22	30	-0.892861200337	-0.0273430731937	0.213617759326	0.46142578125	0.19873046875	0.92919921875	-16.1875	-3.75	11.875
18	12	18	11	22	30	-0.893716247324	-0.023497968669	0.214777537003	0.4892578125	0.25341796875	0.88330078125	-17.4375	-4.875	17.6875
18	12	18	11	22	30	-0.894805312277	-0.0197136699997	0.214531114703	0.361328125	0.2138671875	0.92529296875	-17.9375	-6.3125	18.5625
18	12	18	11	22	30	-0.895740025485	-0.0153806545668	0.214962957874	0.443359375	0.205078125	0.90576171875	-19.625	-6.0625	17.8125
18	12	18	11	22	30	-0.896783973365	-0.0116576423408	0.216551387566	0.58056640625	0.29443359375	0.91064453125	-18.375	-2.1875	23.5
18	12	18	11	22	30	-0.898256035875	-0.0066528441877	0.21746865909	0.42578125	0.1982421875	0.90087890625	-20.625	-11.25	29.5
18	12	18	11	22	30	-0.899758273768	-0.00213617823782	0.218927752544	0.43115234375	0.1728515625	0.8583984375	-15.3125	-11.625	30.8125
18	12	18	11	22	30	-0.901166548032	0.00231929081105	0.220759864831	0.458984375	0.220703125	0.8681640625	-18.0	-12.5	32.4375
18	12	18	11	22	30	-0.902752758642	0.00769027432823	0.219905225433	0.33642578125	0.15087890625	0.83740234375	-26.125	-7.3125	28.8125
18	12	18	11	22	30	-0.904033543242	0.0130612461689	0.219294661144	0.4228515625	0.04541015625	0.8720703125	-19.6875	-4.75	21.875
18	12	18	11	22	30	-0.905222117748	0.0153810244537	0.219606849144	0.46630859375	0.12255859375	0.8427734375	-7.375	-0.125	21.125
18	12	18	11	22	30	-0.906688232054	0.0169069431356	0.218874722326	0.36767578125	0.13427734375	0.8388671875	-6.0	1.4375	22.8125
18	12	18	11	22	30	-0.908057345112	0.0194697064855	0.219598758416	0.4833984375	0.16552734375	0.86474609375	-9.8125	-2.125	27.375
18	12	18	11	22	30	-0.909483829914	0.0216674558499	0.220458733887	0.45947265625	0.123046875	0.8486328125	-5.1875	-3.3125	27.875
18	12	18	11	22	30	-0.910784382418	0.0231327758301	0.220646397429	0.43310546875	0.09326171875	0.82275390625	-2.1875	0.4375	22.75
18	12	18	11	22	30	-0.911994903107	0.023864944928	0.221132213489	0.474609375	0.17431640625	0.8232421875	-3.125	3.0	23.25
18	12	18	11	22	30	-0.913573555102	0.0260619927865	0.220519859339	0.48779296875	0.1767578125	0.83056640625	-12.375	6.75	28.5
18	12	18	11	22	30	-0.915320801076	0.029784393607	0.220026104413	0.52392578125	0.1357421875	0.84765625	-17.5	4.625	33.25
18	12	18	11	22	30	-0.917112641804	0.0335082417377	0.220336525816	0.46142578125	0.09912109375	0.8427734375	-13.0	-3.4375	36.875
18	12	18	11	22	30	-0.919196914651	0.0359499988532	0.219972488739	0.46533203125	0.056640625	0.8427734375	-4.8125	2.875	37.1875
18	12	18	11	22	30	-0.921390089418	0.0371095107556	0.219971507834	0.53173828125	0.13623046875	0.84228515625	-2.3125	7.5625	40.9375
18	12	18	11	22	30	-0.924023886014	0.0392461429888	0.218325744123	0.45166015625	0.1298828125	0.8046875	-9.625	10.875	45.5
18	12	18	11	22	30	-0.926597009868	0.0432721169804	0.215628193641	0.42431640625	0.04541015625	0.8427734375	-17.4375	10.6875	43.875
18	12	18	11	22	30	-0.929233324282	0.0464464078672	0.21282342212	0.42919921875	0.03955078125	0.85986328125	-13.125	12.6875	44.125
18	12	18	11	22	30	-0.931782490526	0.0507179701072	0.209829580299	0.427734375	0.00537109375	0.81396484375	-18.0625	13.25	44.8125
18	12	18	11	22	30	-0.934225667254	0.0551160183934	0.205265968834	0.33447265625	-0.01123046875	0.8427734375	-22.3125	15.0	38.75
18	12	18	11	22	31	-0.936462796555	0.0595703375766	0.201477135595	0.30029296875	-0.0341796875	0.869140625	-20.5625	8.1875	39.0625
18	12	18	11	22	31	-0.938964577908	0.0650634581416	0.197509709706	0.35498046875	-0.02392578125	0.8515625	-26.375	11.5625	47.9375
18	12	18	11	22	31	-0.941472510986	0.0703739257807	0.19281112883	0.294921875	-0.0126953125	0.88330078125	-28.4375	11.25	47.75
18	12	18	11	22	31	-0.944172650405	0.0761685499487	0.188712465097	0.34912109375	-0.072265625	0.9072265625	-25.625	9.9375	56.25
18	12	18	11	22	31	-0.946783415574	0.0807500295774	0.18579220713	0.3388671875	-0.08349609375	0.86279296875	-16.5625	6.0625	57.5625
18	12	18	11	22	31	-0.949244009999	0.0839201770558	0.182488239561	0.349609375	-0.1455078125	0.88720703125	-7.3125	10.6875	50.0
18	12	18	11	22	31	-0.95135650088	0.0881959417317	0.178833293615	0.4443359375	-0.14501953125	0.896484375	-15.6875	17.6875	47.0
18	12	18	11	22	31	-0.953553798435	0.0927125532754	0.172973914406	0.35498046875	-0.072265625	0.9072265625	-26.625	24.125	45.8125
18	12	18	11	22	31	-0.955566682132	0.0991821575411	0.166259813626	0.26220703125	-0.1494140625	0.982421875	-35.0625	18.8125	44.875
18	12	18	11	22	31	-0.957299084651	0.105891865596	0.161248593028	0.3232421875	-0.20166015625	0.9658203125	-31.6875	13.6875	47.5625
18	12	18	11	22	31	-0.959486673555	0.110590283855	0.155876150643	0.3466796875	-0.19384765625	0.90869140625	-20.0	21.3125	54.8125
18	12	18	11	22	31	-0.961605981509	0.115356096798	0.1487422264	0.33984375	-0.20751953125	0.90087890625	-23.625	31.8125	50.3125
18	12	18	11	22	31	-0.963517699644	0.12030238097	0.140444332122	0.34326171875	-0.12451171875	0.875	-33.0625	40.5625	47.6875
18	12	18	11	22	31	-0.965553581386	0.126828087365	0.129208402768	0.2646484375	-0.1513671875	0.90478515625	-44.5625	50.4375	52.3125
18	12	18	11	22	31	-0.967289455156	0.134094834236	0.117737339664	0.21533203125	-0.27490234375	0.87841796875	-41.625	49.125	50.125
18	12	18	11	22	31	-0.969410895842	0.137205546424	0.106932436537	0.23046875	-0.22412109375	0.845703125	-20.6875	52.8125	51.9375
18	12	18	11	22	31	-0.971560986805	0.139465815734	0.0948489617725	0.15283203125	-0.21826171875	0.84228515625	-18.5625	57.25	50.625
18	12	18	11	22	31	-0.973479609233	0.141536000866	0.0831272243119	0.12890625	-0.18896484375	0.86865234375	-19.9375	54.5625	49.8125
18	12	18	11	22	31	-0.975273809657	0.144286080858	0.0695185474185	0.09814453125	-0.23779296875	0.86376953125	-22.875	64.125	52.1875
18	12	18	11	22	31	-0.976677049757	0.147764975469	0.0549922523329	0.05712890625	-0.41455078125	0.90087890625	-17.875	67.6875	47.8125
18	12	18	11	22	31	-0.97825191665	0.147641089742	0.0413199742683	0.04052734375	-0.37646484375	0.92919921875	-0.625	66.8125	44.125
18	12	18	11	22	31	-0.979418544624	0.148801795463	0.0285030510587	0.025390625	-0.400390625	1.0087890625	-7.4375	60.9375	45.375
18	12	18	11	22	31	-0.980201307385	0.151546690301	0.0151973926238	0.07080078125	-0.50439453125	0.9921875	-10.5	66.6875	49.4375
18	12	18	11	22	31	-0.98085276703	0.154290074983	0.00134271426014	0.03759765625	-0.42724609375	1.0	-16.9375	69.0625	55.5
18	12	18	11	22	31	-0.980836179514	0.159485061423	-0.0125732578083	-0.04052734375	-0.51171875	1.015625	-27.0	64.75	53.875
18	12	18	11	22	31	-0.98027032356	0.166135098732	-0.0237423047049	0.02197265625	-0.54736328125	0.97314453125	-31.75	54.5625	48.3125
18	12	18	11	22	31	-0.97991996839	0.171203706717	-0.0352173043763	0.046875	-0.4287109375	0.92626953125	-30.9375	59.0625	59.75
18	12	18	11	22	31	-0.978686132177	0.179135877639	-0.0484612902369	-0.11572265625	-0.37255859375	0.869140625	-52.3125	58.4375	54.25
18	12	18	11	22	31	-0.976964390194	0.188288570235	-0.0607894379105	-0.14794921875	-0.4619140625	0.8505859375	-54.3125	52.8125	53.0
18	12	18	11	22	31	-0.975096860729	0.196716148105	-0.0722045309365	-0.15869140625	-0.56396484375	0.8369140625	-43.75	49.3125	49.5625
18	12	18	11	22	31	-0.97400030609	0.200683858029	-0.0795899485613	-0.2333984375	-0.67041015625	0.82275390625	-8.75	27.9375	27.625
18	12	18	11	22	31	-0.974662765323	0.195616141453	-0.0844719936882	-0.40771484375	-0.64501953125	0.76513671875	47.125	9.5625	6.3125
18	12	18	11	22	31	-0.978055569371	0.177484280545	-0.0820284982985	-0.45947265625	-0.60302734375	0.6669921875	113.125	-9.375	-16.125
18	12	18	11	22	31	-0.98268960513	0.149774566237	-0.0743990204741	-0.74658203125	-0.697265625	0.75927734375	174.0625	-36.1875	-38.8125
18	12	18	11	22	31	-0.986825771446	0.120728684805	-0.0620733429961	-0.60205078125	-0.32373046875	0.794921875	178.25	-59.4375	-45.625
18	12	18	11	22	31	-0.989568951525	0.0996648635648	-0.0459569150424	-0.2333984375	0.197265625	1.115234375	123.75	-80.5	-33.4375
18	12	18	11	22	31	-0.989868602881	0.0960083433427	-0.0200805753082	0.25146484375	0.1650390625	1.2021484375	30.5625	-134.8125	-66.25
18	12	18	11	22	31	-0.987276798434	0.10198686512	0.0158076589265	0.67431640625	-0.22314453125	1.314453125	-12.6875	-186.4375	-123.75
18	12	18	11	22	31	-0.98184822259	0.101865150961	0.0565781875018	0.81103515625	-0.50390625	1.32568359375	27.5	-204.4375	-188.4375
18	12	18	11	22	31	-0.973924079868	0.0932603869172	0.0934434897711	0.75439453125	-0.31689453125	1.1416015625	66.8125	-174.0625	-226.8125
18	12	18	11	22	31	-0.965534351674	0.0833093799011	0.122431220573	0.66259765625	-0.0615234375	1.06005859375	65.125	-134.1875	-193.625
18	12	18	11	22	31	-0.95681016665	0.0747040660827	0.149835361302	0.62890625	0.08447265625	1.02197265625	57.9375	-131.4375	-159.5625
18	12	18	11	22	31	-0.946663857215	0.0692144947829	0.176026986732	0.54833984375	0.15576171875	0.87939453125	38.75	-131.75	-155.5
18	12	18	11	22	31	-0.936129021282	0.0682352487803	0.197870014799	0.52001953125	0.20263671875	0.81689453125	8.4375	-116.75	-141.875
18	12	18	11	22	31	-0.92639349621	0.0687867617755	0.215088330521	0.57177734375	0.1533203125	0.71630859375	-2.6875	-93.25	-121.5625
18	12	18	11	22	31	-0.917845927454	0.0700683019496	0.22717266538	0.54052734375	0.14013671875	0.65771484375	-11.375	-67.5625	-104.75
18	12	18	11	22	31	-0.910630356374	0.0698231318828	0.235958241135	0.41259765625	0.1806640625	0.6474609375	-14.0625	-45.4375	-86.1875
18	12	18	11	22	31	-0.905003450402	0.0698832580732	0.241204048826	0.41650390625	0.134765625	0.72021484375	-14.25	-29.3125	-68.6875
18	12	18	11	22	31	-0.900585357095	0.0671395386516	0.246829358461	0.458984375	0.119140625	0.677734375	7.5625	-22.25	-54.0625
18	12	18	11	22	31	-0.896893005865	0.0628038722718	0.252253065208	0.46240234375	0.11865234375	0.67236328125	18.8125	-17.25	-46.625
18	12	18	11	22	32	-0.893799675525	0.0562134322015	0.257141357074	0.39892578125	0.14990234375	0.65576171875	29.8125	-13.0625	-42.125
18	12	18	11	22	32	-0.891919386071	0.0480353491301	0.261478317247	0.4072265625	0.17431640625	0.60107421875	40.25	-3.8125	-28.0625
18	12	18	11	22	32	-0.891270990541	0.0403430887316	0.264396763064	0.455078125	0.1884765625	0.6572265625	39.0625	4.6875	-13.0625
18	12	18	11	22	32	-0.891106321673	0.0343014899165	0.266294306949	0.50244140625	0.18798828125	0.66748046875	30.1875	9.25	-6.25
18	12	18	11	22	32	-0.891731768329	0.0293581779991	0.265871566245	0.51708984375	0.20263671875	0.693359375	20.3125	20.1875	0.1875
18	12	18	11	22	32	-0.893314084391	0.0269166104958	0.261963928	0.52197265625	0.2041015625	0.72802734375	0.75	34.0	6.125
18	12	18	11	22	32	-0.89435401339	0.0280763561154	0.258180405148	0.478515625	0.3603515625	0.89208984375	-27.125	17.25	11.8125
18	12	18	11	22	32	-0.893311764867	0.035400438892	0.258301133433	0.51904296875	0.283203125	0.91064453125	-49.375	-16.6875	4.25
18	12	18	11	22	32	-0.893162482491	0.0463243353978	0.258659464316	0.669921875	0.0263671875	0.94677734375	-48.125	-17.5625	17.4375
18	12	18	11	22	32	-0.893476738933	0.0516957987483	0.262934475806	0.8466796875	-0.11767578125	0.95849609375	2.125	-17.0625	20.875
18	12	18	11	22	32	-0.892153846825	0.0488893227959	0.26782315659	0.73779296875	0.00439453125	0.873046875	30.25	-8.375	-14.1875
18	12	18	11	22	32	-0.891910323401	0.0395509402288	0.269349227206	0.419921875	0.1318359375	0.873046875	49.3125	5.1875	-17.375
18	12	18	11	22	32	-0.892101093312	0.033142507777	0.271609870364	0.4384765625	0.15771484375	0.83056640625	38.25	-1.875	-0.75
18	12	18	11	22	32	-0.892399775167	0.031799485867	0.272645495908	0.5302734375	0.18994140625	0.79736328125	7.8125	0.75	6.875
18	12	18	11	22	32	-0.892960943837	0.0328985610887	0.271550460638	0.53271484375	0.07177734375	0.84130859375	-3.0	5.9375	4.0
18	12	18	11	22	32	-0.89344771472	0.0318608899497	0.27063445601	0.52880859375	0.0283203125	0.84716796875	10.4375	9.25	-2.3125
18	12	18	11	22	32	-0.893798818136	0.0296020504504	0.270141598543	0.53662109375	0.12939453125	0.8505859375	11.6875	9.4375	-1.6875
18	12	18	11	22	32	-0.894145463275	0.0286858954088	0.269586383023	0.5615234375	0.16748046875	0.84912109375	2.375	8.75	1.5
18	12	18	11	22	32	-0.894690290003	0.0290519529328	0.268303330026	0.58154296875	0.1240234375	0.8740234375	-2.8125	10.875	3.0
18	12	18	11	22	32	-0.895156024326	0.0293583831788	0.268070725408	0.603515625	0.1220703125	0.85986328125	0.625	6.875	4.9375
18	12	18	11	22	32	-0.895320894757	0.02886950598	0.268309404414	0.599609375	0.10888671875	0.85546875	5.625	5.8125	0.4375
18	12	18	11	22	32	-0.895551970025	0.0277704727296	0.268305490372	0.56494140625	0.1083984375	0.8818359375	8.625	5.75	-0.375
18	12	18	11	22	32	-0.89556984353	0.0270996395098	0.269348444047	0.56494140625	0.1494140625	0.85009765625	6.1875	-0.375	2.3125
18	12	18	11	22	32	-0.895499837835	0.0274655757242	0.270505403577	0.56787109375	0.14404296875	0.83447265625	1.3125	-2.125	3.625
18	12	18	11	22	32	-0.89547002877	0.0283820846144	0.271918681628	0.55615234375	0.12109375	0.82666015625	0.75	-5.6875	5.25
18	12	18	11	22	32	-0.895027743516	0.029297143814	0.274843830405	0.57373046875	0.095703125	0.84130859375	5.4375	-13.9375	4.3125
18	12	18	11	22	32	-0.89447214917	0.0287476207614	0.279236443702	0.6044921875	0.09423828125	0.81103515625	17.4375	-16.4375	5.0625
18	12	18	11	22	32	-0.893784081425	0.0266719232165	0.285151545235	0.611328125	0.15869140625	0.74267578125	25.1875	-19.625	8.625
18	12	18	11	22	32	-0.893154770383	0.0264882581896	0.290699478703	0.736328125	0.15869140625	0.75390625	15.5625	-14.9375	11.0625
18	12	18	11	22	32	-0.89264503609	0.026306325508	0.296632811993	0.77197265625	0.20654296875	0.77197265625	14.75	-16.1875	16.6875
18	12	18	11	22	32	-0.892748840478	0.0266109588055	0.301448453075	0.74560546875	0.30029296875	0.74267578125	6.125	-12.1875	26.9375
18	12	18	11	22	32	-0.893544168834	0.0319820453872	0.303463224552	0.69091796875	0.25	0.7333984375	-22.75	-9.5625	36.1875
18	12	18	11	22	32	-0.894918954416	0.0398569142841	0.304572744683	0.69287109375	0.173828125	0.7509765625	-31.5	-9.75	45.9375
18	12	18	11	22	32	-0.896733653472	0.0467531975605	0.3065203109	0.71142578125	0.1171875	0.767578125	-18.375	-12.0	54.5
18	12	18	11	22	32	-0.898979358305	0.0511470366121	0.309018432419	0.6787109375	0.1318359375	0.748046875	-3.0	-12.25	61.375
18	12	18	11	22	32	-0.901598481128	0.0549308579079	0.311824170057	0.67529296875	0.1240234375	0.70361328125	3.3125	-11.1875	70.4375
18	12	18	11	22	32	-0.904209563001	0.0601789152291	0.313650553106	0.68798828125	0.12255859375	0.70458984375	-6.8125	-8.5625	72.8125
18	12	18	11	22	32	-0.906886527904	0.0671406098193	0.31434012779	0.6884765625	0.09765625	0.70703125	-17.3125	-5.75	75.9375
18	12	18	11	22	32	-0.909583875389	0.0754375407623	0.313956884855	0.69287109375	0.0751953125	0.71044921875	-26.0625	-2.25	77.9375
18	12	18	11	22	32	-0.91239466213	0.0851421870139	0.312371120529	0.6962890625	0.0029296875	0.69921875	-31.8125	2.5	80.375
18	12	18	11	22	32	-0.915237233076	0.0953995195264	0.310063697501	0.69091796875	-0.08251953125	0.68701171875	-32.0625	5.625	81.3125
18	12	18	11	22	32	-0.917954368789	0.10491778989	0.307673402465	0.69921875	-0.1572265625	0.6787109375	-24.8125	7.5625	78.375
18	12	18	11	22	32	-0.920375050826	0.112178338423	0.305713436975	0.69873046875	-0.16162109375	0.662109375	-14.75	8.875	71.125
18	12	18	11	22	32	-0.922559408852	0.11749433424	0.303837296544	0.68017578125	-0.10546875	0.65673828125	-10.5625	10.625	64.0625
18	12	18	11	22	32	-0.924653836247	0.122859945371	0.301077054403	0.6630859375	-0.12353515625	0.6318359375	-13.4375	15.75	59.0625
18	12	18	11	22	32	-0.926668672418	0.129390606963	0.296927029659	0.64111328125	-0.16943359375	0.638671875	-21.5625	21.5625	54.4375
18	12	18	11	22	32	-0.928711693449	0.135437121961	0.291809319557	0.64013671875	-0.19189453125	0.66650390625	-21.625	27.1875	48.375
18	12	18	11	22	32	-0.930712312542	0.139768587823	0.286922328104	0.61962890625	-0.20947265625	0.65234375	-12.625	28.25	41.6875
18	12	18	11	22	32	-0.932693879135	0.143618133473	0.281681974492	0.58203125	-0.25	0.6796875	-10.0	28.6875	36.875
18	12	18	11	22	32	-0.934747320647	0.147459975624	0.276243315263	0.5625	-0.2587890625	0.6982421875	-9.75	28.0	39.6875
18	12	18	11	22	33	-0.936699401781	0.151121894755	0.270994027752	0.56201171875	-0.2509765625	0.689453125	-9.0625	27.75	40.3125
18	12	18	11	22	33	-0.938597083844	0.154296620364	0.265929736917	0.55517578125	-0.26123046875	0.67822265625	-6.5625	27.75	39.6875
18	12	18	11	22	33	-0.940545196963	0.157530639413	0.260374160301	0.5458984375	-0.25537109375	0.669921875	-7.5625	30.875	40.5
18	12	18	11	22	33	-0.942545024484	0.161129240733	0.253778554154	0.5322265625	-0.2578125	0.6435546875	-11.25	37.5625	39.9375
18	12	18	11	22	33	-0.944568561189	0.165830497593	0.245297302108	0.5283203125	-0.29736328125	0.61767578125	-18.75	49.6875	35.5625
18	12	18	11	22	33	-0.946188869075	0.171928919834	0.235830083862	0.4794921875	-0.24072265625	0.63037109375	-33.625	52.9375	30.25
18	12	18	11	22	33	-0.946344656204	0.180296814861	0.227720858581	0.44384765625	-0.19482421875	0.6650390625	-55.9375	42.5	11.5
18	12	18	11	22	33	-0.945553544386	0.192199077671	0.218627213787	0.31884765625	-0.330078125	0.71923828125	-73.8125	37.3125	-1.1875
18	12	18	11	22	33	-0.945085533593	0.201907965973	0.210819260723	0.21240234375	-0.5546875	0.82568359375	-47.75	20.875	-0.125
18	12	18	11	22	33	-0.945568064212	0.203310561702	0.208010325512	0.228515625	-0.6015625	0.92822265625	6.0625	-2.8125	-3.3125
