19	03	17	16	02	35	0.0	-0.103453727718	-0.530574191773	0.00537109375	-1.0244140625	0.27197265625	-7.75	12.5	-2.375
19	03	17	16	02	35	0.00292968227224	-0.105346491706	-0.533751488973	-0.130859375	-1.00732421875	0.36328125	-14.5625	20.1875	-6.5
19	03	17	16	02	36	0.00598129244844	-0.10583225618	-0.534715338172	-0.1240234375	-1.08837890625	0.44287109375	-1.5625	13.8125	-8.1875
19	03	17	16	02	36	0.00915541290033	-0.10473792358	-0.533394355573	-0.048828125	-1.1123046875	0.4482421875	14.75	7.75	-7.9375
19	03	17	16	02	36	0.0119627759826	-0.103453598421	-0.530634563227	-0.02392578125	-1.0234375	0.4384765625	23.25	5.625	-5.5625
19	03	17	16	02	36	0.0147703673371	-0.102843260178	-0.528742529924	-0.041015625	-0.9658203125	0.4052734375	17.5625	8.125	-5.9375
19	03	17	16	02	36	0.0169066512401	-0.103087848175	-0.529111045489	-0.10546875	-0.97021484375	0.4091796875	1.3125	9.3125	-5.875
19	03	17	16	02	36	0.0180666888603	-0.103761388725	-0.530464840827	-0.1513671875	-1.00439453125	0.37890625	-3.25	7.125	-3.0625
19	03	17	16	02	36	0.0189818434704	-0.105102040052	-0.532224035569	-0.16943359375	-1.00244140625	0.3837890625	-7.375	9.0625	-1.125
19	03	17	16	02	36	0.019898089945	-0.107242159611	-0.533830351714	-0.2265625	-0.99267578125	0.3544921875	-5.5625	10.9375	-2.3125
19	03	17	16	02	36	0.0207520489478	-0.108704115223	-0.534304224967	-0.21142578125	-0.99365234375	0.375	0.875	8.1875	-2.125
19	03	17	16	02	36	0.0220338249547	-0.109253591881	-0.533755676534	-0.12890625	-0.97802734375	0.34619140625	10.5	6.5	-1.375
19	03	17	16	02	36	0.0234382577695	-0.110294093202	-0.533159327127	-0.12451171875	-0.947265625	0.3173828125	11.0625	9.3125	-0.375
19	03	17	16	02	36	0.0250859544279	-0.111635549023	-0.533396972616	-0.13232421875	-0.94580078125	0.31103515625	5.875	11.25	-1.75
19	03	17	16	02	36	0.0267342343826	-0.113223755205	-0.533830168745	-0.11474609375	-0.9765625	0.31689453125	4.6875	13.5625	0.25
19	03	17	16	02	36	0.0285639928559	-0.115293552361	-0.534598319283	-0.125	-0.99755859375	0.31787109375	2.75	15.875	0.1875
19	03	17	16	02	36	0.0303955061706	-0.116943353058	-0.535644502316	-0.09765625	-1.01318359375	0.33251953125	0.0625	14.9375	1.0625
19	03	17	16	02	36	0.0322870781164	-0.118345263644	-0.536673493152	-0.1123046875	-1.04150390625	0.30126953125	3.3125	13.3125	-0.875
19	03	17	16	02	36	0.0342416858132	-0.119388123798	-0.537307593964	-0.12451171875	-1.02587890625	0.28515625	6.5	11.25	-2.8125
19	03	17	16	02	36	0.0364378518612	-0.12048294736	-0.537717713396	-0.11376953125	-0.9755859375	0.26953125	7.3125	11.9375	-3.75
19	03	17	16	02	36	0.038575411876	-0.121646828906	-0.538773988337	-0.10791015625	-0.93994140625	0.32568359375	-1.5625	13.375	-3.875
19	03	17	16	02	36	0.0406502086436	-0.122744098472	-0.539988582387	-0.13134765625	-0.96826171875	0.35302734375	-4.0	12.5625	-5.0
19	03	17	16	02	36	0.0425413199128	-0.123717726633	-0.540402936166	-0.14013671875	-0.96484375	0.33056640625	2.375	10.625	-4.6875
19	03	17	16	02	36	0.044494959592	-0.124512644126	-0.539859969261	-0.18359375	-0.95458984375	0.33056640625	9.0	8.6875	-7.4375
19	03	17	16	02	36	0.0464496153166	-0.125127084624	-0.539511366338	-0.16748046875	-0.9521484375	0.302734375	9.5	7.75	-7.125
19	03	17	16	02	36	0.0481554683742	-0.126095307555	-0.539597586688	-0.1708984375	-0.94384765625	0.31689453125	5.0	8.8125	-6.125
19	03	17	16	02	36	0.0497427092376	-0.126706582058	-0.540333993719	-0.15625	-0.984375	0.32666015625	0.9375	7.625	-5.25
19	03	17	16	02	36	0.0511479463429	-0.127198472767	-0.541081795143	-0.146484375	-1.03369140625	0.32421875	2.3125	6.4375	-4.0
19	03	17	16	02	36	0.0526137568828	-0.127444923865	-0.541701963265	-0.1201171875	-1.05908203125	0.33154296875	3.4375	6.0625	-3.125
19	03	17	16	02	36	0.05438223356	-0.127563263906	-0.543028879891	-0.10009765625	-1.06005859375	0.3603515625	-3.25	7.8125	-4.4375
19	03	17	16	02	36	0.0566425641095	-0.127811992721	-0.543902897392	-0.10888671875	-1.1015625	0.3603515625	1.125	9.375	-6.0
19	03	17	16	02	36	0.0593857957155	-0.127865613591	-0.54283377913	-0.1103515625	-1.08984375	0.34228515625	15.5625	9.3125	-7.625
19	03	17	16	02	36	0.0626220135076	-0.128112676757	-0.541076169342	-0.11669921875	-1.015625	0.30615234375	20.8125	11.0625	-10.5625
19	03	17	16	02	36	0.0659783862423	-0.129149181581	-0.539972972327	-0.142578125	-0.95166015625	0.3193359375	13.625	14.6875	-11.1875
19	03	17	16	02	36	0.0690307624902	-0.130554200678	-0.539428716966	-0.17626953125	-0.93603515625	0.31982421875	8.375	14.75	-11.8125
19	03	17	16	02	36	0.0716575397041	-0.132206329641	-0.539018512033	-0.1767578125	-0.94189453125	0.306640625	8.375	14.6875	-9.125
19	03	17	16	02	36	0.0739741709361	-0.133910339137	-0.539364479012	-0.16064453125	-0.9423828125	0.30419921875	3.125	14.25	-7.25
19	03	17	16	02	36	0.0759886360593	-0.136108159367	-0.540587429379	-0.1259765625	-0.978515625	0.32763671875	-4.5	17.125	-2.625
19	03	17	16	02	36	0.077758480127	-0.138183044747	-0.542234173821	-0.10498046875	-1.0654296875	0.32958984375	-5.4375	16.5625	0.25
19	03	17	16	02	36	0.0790393968314	-0.140256782949	-0.54375442963	-0.07421875	-1.091796875	0.34228515625	-5.375	15.625	4.9375
19	03	17	16	02	36	0.080324634385	-0.142704403642	-0.545182092954	-0.09716796875	-1.0751953125	0.35791015625	-6.875	17.4375	4.375
19	03	17	16	02	36	0.0817875235916	-0.145081301177	-0.546389485964	-0.11376953125	-1.08642578125	0.37060546875	-6.5625	17.1875	2.8125
19	03	17	16	02	36	0.0834973594298	-0.147585244957	-0.546822253751	-0.10546875	-1.1005859375	0.357421875	0.25	18.8125	3.875
19	03	17	16	02	36	0.0850846482807	-0.15057663365	-0.546397253522	-0.12646484375	-1.03271484375	0.33837890625	4.375	20.125	5.0
19	03	17	16	02	36	0.0860018936264	-0.153875637922	-0.546591169215	-0.14404296875	-0.97998046875	0.3095703125	0.0625	18.8125	7.0625
19	03	17	16	02	36	0.0863054477674	-0.157229726626	-0.547984660577	-0.1640625	-0.9453125	0.3046875	-9.625	16.875	7.125
19	03	17	16	02	36	0.0862441440638	-0.160464157639	-0.549875084126	-0.2041015625	-0.9111328125	0.29248046875	-13.1875	14.125	5.5625
19	03	17	16	02	36	0.0854468444766	-0.163691740633	-0.5521697157	-0.2060546875	-0.8466796875	0.3046875	-19.6875	12.125	7.4375
19	03	17	16	02	36	0.084410298987	-0.166989571966	-0.555533290947	-0.20751953125	-0.828125	0.30126953125	-27.8125	11.9375	7.25
19	03	17	16	02	36	0.0829485439579	-0.170535858586	-0.56055881362	-0.21533203125	-0.85009765625	0.30712890625	-40.8125	12.5	8.375
19	03	17	16	02	36	0.0819115490147	-0.173405894747	-0.565751227882	-0.21826171875	-0.9482421875	0.32275390625	-41.125	11.125	4.75
19	03	17	16	02	37	0.0815440037183	-0.175478301415	-0.569831451133	-0.2001953125	-1.0107421875	0.3388671875	-32.625	10.1875	2.875
19	03	17	16	02	37	0.0819708307676	-0.176881211887	-0.571476462008	-0.21142578125	-1.0654296875	0.3642578125	-15.6875	9.0625	0.625
19	03	17	16	02	37	0.0828865476348	-0.177430923398	-0.570745292292	-0.18994140625	-1.07666015625	0.3271484375	4.9375	6.0	0.0625
19	03	17	16	02	37	0.0846537475398	-0.177363944016	-0.568834121897	-0.17236328125	-1.044921875	0.30419921875	15.625	5.5625	-3.3125
19	03	17	16	02	37	0.0871604106112	-0.177311619626	-0.567214072696	-0.14990234375	-0.9921875	0.27392578125	15.3125	8.1875	-6.875
19	03	17	16	02	37	0.0899064310053	-0.177676592435	-0.565989365046	-0.1591796875	-0.978515625	0.28857421875	11.0625	11.25	-7.6875
19	03	17	16	02	37	0.0923480995522	-0.178531520945	-0.564892043196	-0.17919921875	-0.97021484375	0.29150390625	9.375	11.75	-6.5625
19	03	17	16	02	37	0.0948498409006	-0.17932357308	-0.562934416104	-0.18017578125	-0.994140625	0.2978515625	15.25	11.875	-5.625
19	03	17	16	02	37	0.0972276751798	-0.180295387622	-0.560417145952	-0.18603515625	-0.95751953125	0.2802734375	19.875	11.5625	-4.75
19	03	17	16	02	37	0.0994875348428	-0.181335868723	-0.558350901068	-0.17431640625	-0.93017578125	0.27490234375	16.3125	12.0625	-4.0
19	03	17	16	02	37	0.101441143917	-0.18237433094	-0.557743184784	-0.15966796875	-0.94140625	0.27392578125	6.75	11.4375	-3.625
19	03	17	16	02	37	0.102844796498	-0.183533711021	-0.557986427055	-0.16015625	-0.94677734375	0.2763671875	0.25	10.1875	-1.8125
19	03	17	16	02	37	0.103882608765	-0.184571685609	-0.55841479882	-0.16748046875	-0.94287109375	0.28564453125	-1.8125	8.375	-1.5
19	03	17	16	02	37	0.104859294159	-0.185609495656	-0.559025771363	-0.166015625	-0.9287109375	0.2890625	-4.1875	8.75	-1.5
19	03	17	16	02	37	0.105954982512	-0.187130170726	-0.559742594824	-0.18505859375	-0.9169921875	0.3134765625	-7.25	10.9375	-2.0625
19	03	17	16	02	37	0.106929974048	-0.189141546562	-0.560466867401	-0.1875	-0.9443359375	0.2978515625	-6.8125	12.9375	0.375
19	03	17	16	02	37	0.107665425831	-0.191038992546	-0.561215187368	-0.1748046875	-0.96826171875	0.29345703125	-6.5	11.875	2.1875
19	03	17	16	02	37	0.108336504976	-0.192442253628	-0.56182395961	-0.1669921875	-0.97802734375	0.29345703125	-4.75	9.6875	1.9375
19	03	17	16	02	37	0.109312064165	-0.19353911528	-0.562307117337	-0.16162109375	-0.98583984375	0.298828125	-3.5	9.0	0.25
19	03	17	16	02	37	0.110836678307	-0.194452454342	-0.562483935723	-0.16259765625	-0.99365234375	0.32470703125	-2.8125	10.5	-2.125
19	03	17	16	02	37	0.112489952394	-0.19586557636	-0.562388725642	-0.197265625	-1.00732421875	0.32080078125	-0.6875	12.375	-3.3125
19	03	17	16	02	37	0.114078578839	-0.197089208706	-0.561969756754	-0.220703125	-0.99853515625	0.3193359375	1.1875	11.0	-4.4375
19	03	17	16	02	37	0.115784083485	-0.197632505179	-0.561464303627	-0.20849609375	-1.0029296875	0.29833984375	4.8125	8.0	-6.5
19	03	17	16	02	37	0.117799504894	-0.198122897868	-0.560859922523	-0.20361328125	-0.99951171875	0.28955078125	6.0625	8.6875	-7.3125
19	03	17	16	02	37	0.119875345618	-0.198978425008	-0.559764152071	-0.197265625	-1.00341796875	0.29296875	9.125	10.5	-5.5
19	03	17	16	02	37	0.121890550224	-0.200505987725	-0.558425960941	-0.1943359375	-0.9912109375	0.29150390625	9.4375	13.625	-2.6875
19	03	17	16	02	37	0.123355549962	-0.202337282595	-0.557877153217	-0.19775390625	-0.99755859375	0.28759765625	3.75	13.625	-0.4375
19	03	17	16	02	37	0.124513650234	-0.203982656413	-0.557992054138	-0.19384765625	-1.02197265625	0.31689453125	-2.375	12.0	-0.25
19	03	17	16	02	37	0.125426364163	-0.205442891374	-0.558406718116	-0.20361328125	-1.05615234375	0.31640625	-3.6875	10.0625	-0.3125
19	03	17	16	02	37	0.126466900231	-0.206607363554	-0.558236616562	-0.18505859375	-1.05908203125	0.31591796875	0.8125	9.6875	0.8125
19	03	17	16	02	37	0.127502767721	-0.207886274226	-0.557801720538	-0.1806640625	-1.029296875	0.29541015625	3.125	9.625	1.5625
19	03	17	16	02	37	0.128480668106	-0.209353297674	-0.557624410363	-0.15869140625	-0.99853515625	0.29443359375	0.6875	11.0625	2.8125
19	03	17	16	02	37	0.128906033664	-0.211364391373	-0.557738321793	-0.15673828125	-0.97412109375	0.28369140625	-2.75	12.0	6.6875
19	03	17	16	02	37	0.129154202969	-0.213629352738	-0.557389499772	-0.14208984375	-0.93798828125	0.2705078125	-0.1875	12.5	9.5
19	03	17	16	02	37	0.129581998263	-0.215339279261	-0.55714765904	-0.1298828125	-0.8876953125	0.28515625	-1.6875	11.0	7.1875
19	03	17	16	02	37	0.129580687098	-0.217107161568	-0.558118607078	-0.15234375	-0.84619140625	0.28466796875	-11.3125	9.75	5.3125
19	03	17	16	02	37	0.129521555058	-0.218758366318	-0.559713788821	-0.20751953125	-0.83349609375	0.31884765625	-18.5625	8.375	0.5
19	03	17	16	02	37	0.129764903706	-0.220160869081	-0.562457002657	-0.23388671875	-0.87158203125	0.314453125	-25.0625	8.125	-5.0
19	03	17	16	02	37	0.12994452755	-0.221558776424	-0.56512746857	-0.28271484375	-0.923828125	0.32080078125	-24.4375	7.25	-7.0625
19	03	17	16	02	37	0.130252819444	-0.222784813013	-0.566239646663	-0.3203125	-0.99658203125	0.306640625	-11.8125	5.5	-7.1875
19	03	17	16	02	37	0.130859528559	-0.223083757875	-0.565674491925	-0.3115234375	-1.048828125	0.287109375	3.75	1.9375	-6.625
19	03	17	16	02	37	0.131894436849	-0.222529901319	-0.564320205046	-0.2734375	-1.09716796875	0.27197265625	13.25	-0.6875	-6.5625
19	03	17	16	02	37	0.132874441249	-0.221864305899	-0.561771408938	-0.27783203125	-1.09326171875	0.220703125	25.3125	-2.4375	-5.0
19	03	17	16	02	37	0.133238551379	-0.221006319076	-0.557490118322	-0.34765625	-1.08203125	0.24462890625	36.0625	-7.0	-4.25
19	03	17	16	02	37	0.13391251018	-0.21899639313	-0.554021811717	-0.33203125	-1.087890625	0.22802734375	34.8125	-11.625	-9.8125
19	03	17	16	02	37	0.132444197832	-0.217159657091	-0.551627032262	-0.47021484375	-1.0361328125	0.2412109375	23.75	-20.625	-10.8125
19	03	17	16	02	37	0.129454890525	-0.21411021026	-0.548398015731	-0.49755859375	-1.056640625	0.26708984375	29.875	-32.0625	-7.125
19	03	17	16	02	37	0.126770946342	-0.210939042156	-0.545963464145	-0.42333984375	-0.92236328125	0.1728515625	28.4375	-32.0	-7.1875
19	03	17	16	02	37	0.126891035005	-0.207700910111	-0.543513548205	-0.19677734375	-0.98291015625	0.27490234375	25.875	-16.1875	-5.0
19	03	17	16	02	37	0.129212850842	-0.20379863437	-0.54504995655	0.16015625	-1.13623046875	0.251953125	6.6875	-4.375	0.25
19	03	17	16	02	38	0.127747446738	-0.201051165578	-0.546329381629	0.13671875	-1.11328125	0.48681640625	-12.1875	-9.0625	20.1875
19	03	17	16	02	38	0.130188973303	-0.197022975069	-0.548649170662	0.15283203125	-1.0712890625	0.3857421875	-8.75	-3.25	-4.1875
19	03	17	16	02	38	0.131654068461	-0.194398798353	-0.552251280218	0.060546875	-0.87548828125	0.4375	-29.0625	-1.125	-6.5
19	03	17	16	02	38	0.13189896195	-0.193667471665	-0.555611407048	-0.10302734375	-0.822265625	0.3896484375	-29.6875	-0.625	-6.125
19	03	17	16	02	38	0.128666097847	-0.197149666055	-0.558183806835	-0.6611328125	-0.642578125	0.2099609375	-24.9375	-5.625	-14.4375
19	03	17	16	02	38	0.12096902249	-0.205195687998	-0.560534562335	-1.29248046875	-0.556640625	-0.0390625	-19.5625	-13.5	-21.125
19	03	17	16	02	38	0.108703040683	-0.210875354048	-0.561093235821	-1.25634765625	-0.55810546875	0.0068359375	-10.0625	-38.5625	-0.6875
19	03	17	16	02	38	0.0984463281196	-0.212944351401	-0.562236562082	-0.6845703125	-0.7255859375	0.08251953125	-10.1875	-36.5625	18.75
19	03	17	16	02	38	0.0877087451436	-0.216433688434	-0.567329705017	-0.6015625	-0.58935546875	0.00244140625	-38.125	-28.625	22.75
19	03	17	16	02	38	0.0856962516095	-0.214973075619	-0.570453823036	-0.13330078125	-0.90966796875	0.447265625	-34.1875	-7.3125	6.125
19	03	17	16	02	38	0.080995783058	-0.213140372599	-0.584488032075	0.43408203125	-1.2607421875	0.64111328125	-104.375	-14.75	5.375
19	03	17	16	02	38	0.0927735138795	-0.199585125254	-0.591003904536	0.56298828125	-1.88330078125	0.6611328125	-32.375	-2.0	-41.25
19	03	17	16	02	38	0.107363102434	-0.191105101604	-0.577526819347	0.486328125	-1.24365234375	0.56103515625	112.375	10.8125	-61.0
19	03	17	16	02	38	0.115965654009	-0.18560608097	-0.561823076399	0.10546875	-0.712890625	0.3955078125	118.5625	2.625	-29.125
19	03	17	16	02	38	0.121460294186	-0.181946299984	-0.554139703976	0.01513671875	-0.4443359375	0.31982421875	49.75	4.0625	-19.0
19	03	17	16	02	38	0.121518232448	-0.185054385125	-0.556566932043	-0.39111328125	-0.60498046875	0.35107421875	-30.9375	10.75	-13.625
19	03	17	16	02	38	0.114748133228	-0.193362811737	-0.560984091755	-0.9580078125	-0.99755859375	0.16259765625	-36.125	-0.6875	-0.625
19	03	17	16	02	38	0.110839773968	-0.200744502523	-0.557189590614	-1.08154296875	-0.9306640625	0.119140625	24.25	1.375	-11.9375
19	03	17	16	02	38	0.0996084057693	-0.206663028146	-0.551874512847	-0.71337890625	-0.6240234375	-0.05908203125	36.625	-25.5	42.4375
19	03	17	16	02	38	0.087463688443	-0.207093018065	-0.554018073969	-0.42578125	-0.19287109375	0.3662109375	-44.3125	-40.75	29.875
19	03	17	16	02	38	0.0813001404567	-0.205386616094	-0.570932067441	0.171875	-1.43603515625	0.38916015625	-118.4375	-20.375	6.0
19	03	17	16	02	38	0.093019103879	-0.20148035558	-0.583993954012	0.115234375	-1.77490234375	0.046875	-48.75	28.625	-52.0625
19	03	17	16	02	38	0.102173173381	-0.20080629655	-0.569642907507	-0.255859375	-1.40087890625	0.29052734375	108.9375	23.9375	-20.75
19	03	17	16	02	38	0.11285206774	-0.195980524344	-0.55736348437	-0.2177734375	-1.005859375	0.10546875	101.6875	9.875	-45.3125
19	03	17	16	02	38	0.120725962737	-0.192197197501	-0.550224749278	-0.13818359375	-0.90478515625	0.26904296875	61.9375	7.4375	-35.0
19	03	17	16	02	38	0.127624625586	-0.190063646139	-0.549927248462	-0.3076171875	-0.953125	0.33349609375	8.9375	9.125	-47.5625
19	03	17	16	02	38	0.133242677922	-0.186954797285	-0.550793369475	-0.353515625	-1.080078125	0.498046875	-6.5	0.9375	-48.6875
19	03	17	16	02	38	0.13934474142	-0.182863269949	-0.550848134611	-0.30810546875	-1.18017578125	0.55322265625	-0.25	-0.875	-50.125
19	03	17	16	02	38	0.145629994299	-0.177185194237	-0.547607841095	-0.26708984375	-1.18408203125	0.4296875	33.5625	-8.875	-48.75
19	03	17	16	02	38	0.151063411016	-0.169007913173	-0.541753065121	-0.19482421875	-1.099609375	0.3974609375	55.3125	-22.5625	-44.9375
19	03	17	16	02	38	0.157657091738	-0.156558436046	-0.537181596743	-0.13623046875	-0.91357421875	0.51806640625	42.25	-37.5	-64.5
19	03	17	16	02	38	0.165464390667	-0.1386092332	-0.53582142592	0.0458984375	-0.94384765625	0.56201171875	26.5625	-57.5625	-81.875
19	03	17	16	02	38	0.172728194328	-0.118102139938	-0.535457402417	0.14501953125	-1.0234375	0.58740234375	23.6875	-70.3125	-85.125
19	03	17	16	02	38	0.17974711224	-0.0955802980537	-0.533809250816	0.15087890625	-1.0341796875	0.62451171875	32.3125	-81.1875	-91.0625
19	03	17	16	02	38	0.18567293569	-0.0727554698691	-0.5312003811	0.14111328125	-0.9814453125	0.58935546875	39.0625	-86.9375	-90.0
19	03	17	16	02	38	0.189823304841	-0.0492564009668	-0.528636541231	0.12841796875	-0.97705078125	0.501953125	44.5	-96.8125	-87.75
19	03	17	16	02	38	0.192632216514	-0.0243536927722	-0.527052975159	0.22802734375	-0.96826171875	0.5205078125	39.5625	-107.8125	-86.125
19	03	17	16	02	38	0.194890795369	0.000427258242275	-0.526015933133	0.31494140625	-0.9189453125	0.53271484375	32.875	-109.3125	-83.375
19	03	17	16	02	38	0.196169948621	0.0236819975311	-0.523384352652	0.38427734375	-0.8662109375	0.4697265625	41.3125	-102.625	-72.875
19	03	17	16	02	38	0.196418376929	0.0461442799747	-0.514911568606	0.357421875	-0.8486328125	0.30712890625	88.0	-90.3125	-60.25
19	03	17	16	02	38	0.196045664984	0.0635988738834	-0.511049300409	0.28076171875	-1.00634765625	-0.029296875	77.0625	-70.125	-54.1875
19	03	17	16	02	38	0.20202111683	0.0700055048352	-0.522081158117	0.18994140625	-0.9365234375	-0.30029296875	-26.625	-16.5625	-63.25
19	03	17	16	02	38	0.209171484942	0.0734877350073	-0.539133856577	0.2451171875	-0.72216796875	0.12744140625	-115.8125	-19.3125	-53.375
19	03	17	16	02	38	0.213930623891	0.0776375901825	-0.554815797766	0.421875	-0.83251953125	0.572265625	-111.125	-29.125	-42.25
19	03	17	16	02	38	0.22119434264	0.0841685978204	-0.556892158458	0.4345703125	-0.9228515625	0.86181640625	-45.6875	-23.125	-56.9375
19	03	17	16	02	38	0.224856213727	0.0921031559484	-0.545111521388	0.2333984375	-0.8359375	0.70166015625	63.4375	-19.375	-49.375
19	03	17	16	02	38	0.222785976663	0.103275033565	-0.531573444043	0.29541015625	-0.732421875	0.39404296875	103.125	-36.5625	-22.8125
19	03	17	16	02	38	0.221073787346	0.115175658951	-0.521739021047	0.5205078125	-0.6220703125	0.45263671875	71.125	-42.625	-16.4375
19	03	17	16	02	38	0.221256686723	0.125551725404	-0.520029509208	0.4970703125	-0.53759765625	0.50439453125	7.4375	-46.5625	-22.3125
19	03	17	16	02	38	0.2221086265	0.133484904137	-0.52399081025	0.44482421875	-0.64892578125	0.52197265625	-31.3125	-46.125	-25.9375
19	03	17	16	02	39	0.220461396906	0.139833073176	-0.528570237322	0.4453125	-0.884765625	0.48583984375	-24.9375	-46.0625	-16.3125
19	03	17	16	02	39	0.216377040822	0.14691665367	-0.530169527949	0.423828125	-0.92431640625	0.439453125	2.4375	-50.875	-9.5625
19	03	17	16	02	39	0.211979613127	0.154361198272	-0.528636749004	0.384765625	-0.818359375	0.45751953125	19.6875	-49.75	-8.6875
19	03	17	16	02	39	0.206730345407	0.160830959595	-0.527293609085	0.3642578125	-0.72216796875	0.4599609375	16.25	-48.6875	0.625
19	03	17	16	02	39	0.198915821743	0.168336862954	-0.527593851839	0.35400390625	-0.68896484375	0.46484375	8.5	-64.6875	10.375
19	03	17	16	02	39	0.189573922006	0.178282493941	-0.530025736864	0.4140625	-0.6572265625	0.4189453125	-1.5	-81.9375	14.125
19	03	17	16	02	39	0.180543869363	0.189271987456	-0.534246277396	0.50390625	-0.64306640625	0.32421875	-10.3125	-84.875	14.625
19	03	17	16	02	39	0.172973780697	0.198242356988	-0.542053686087	0.568359375	-0.67236328125	0.22021484375	-32.75	-73.25	17.9375
19	03	17	16	02	39	0.166689835284	0.202151861758	-0.552743737947	0.52978515625	-0.66259765625	0.19482421875	-56.5	-51.375	28.5625
19	03	17	16	02	39	0.160467299747	0.200996127069	-0.563069927791	0.41064453125	-0.69921875	0.2255859375	-57.5625	-30.75	37.375
19	03	17	16	02	39	0.154235782099	0.197143480879	-0.571166778347	0.3466796875	-0.736328125	0.20263671875	-42.6875	-14.6875	41.875
19	03	17	16	02	39	0.145877059637	0.190616760354	-0.576366976633	0.28857421875	-0.7001953125	0.0966796875	-14.4375	-1.1875	58.3125
19	03	17	16	02	39	0.135194467638	0.180605160153	-0.578803221945	0.259765625	-0.5908203125	-0.04736328125	14.4375	16.625	83.0625
19	03	17	16	02	39	0.131345168678	0.166866956861	-0.582264363006	0.162109375	-0.6328125	-0.22119140625	6.4375	56.9375	58.5625
19	03	17	16	02	39	0.140197906934	0.154052902525	-0.595581704771	0.1220703125	-0.8330078125	0.00439453125	-104.5	69.0	4.875
19	03	17	16	02	39	0.14270616502	0.139165977863	-0.605188890577	0.06640625	-1.4267578125	0.5224609375	-84.5	48.6875	9.0625
19	03	17	16	02	39	0.142029610978	0.132996356821	-0.611697791674	0.2509765625	-1.91162109375	0.2001953125	-30.3125	14.6875	-9.3125
19	03	17	16	02	39	0.13964964081	0.135560250104	-0.607060894884	0.4521484375	-1.39453125	0.134765625	51.0625	-9.4375	-7.625
19	03	17	16	02	39	0.134337555925	0.140257929811	-0.591793249544	0.5595703125	-1.0126953125	0.09716796875	119.5	-15.875	6.5625
19	03	17	16	02	39	0.133239542836	0.143798608759	-0.583434168562	0.52587890625	-0.71044921875	0.0947265625	68.75	-1.125	4.375
19	03	17	16	02	39	0.135193794262	0.143677738913	-0.583500078169	0.48828125	-0.6123046875	0.173828125	-2.0	11.8125	5.0
19	03	17	16	02	39	0.137333322893	0.139286507929	-0.589434621855	0.35107421875	-0.77001953125	0.27099609375	-48.0	18.1875	7.9375
19	03	17	16	02	39	0.138494241864	0.134831987782	-0.595421476151	0.34814453125	-0.9130859375	0.3251953125	-48.5625	13.75	9.3125
19	03	17	16	02	39	0.138918882678	0.132937313915	-0.598156876204	0.435546875	-0.97021484375	0.36865234375	-26.4375	4.125	7.125
19	03	17	16	02	39	0.138731928725	0.132445352104	-0.597224778958	0.4677734375	-0.9501953125	0.33056640625	2.5625	2.5625	7.0625
19	03	17	16	02	39	0.138673740713	0.132753250903	-0.593147628632	0.4853515625	-0.87109375	0.306640625	25.6875	4.875	6.125
19	03	17	16	02	39	0.139040052663	0.132020910408	-0.589180697258	0.37646484375	-0.798828125	0.29052734375	24.125	9.5625	3.1875
19	03	17	16	02	39	0.139528054932	0.130738886117	-0.586005623533	0.35986328125	-0.794921875	0.23046875	22.75	12.9375	3.375
19	03	17	16	02	39	0.139775543636	0.129216081169	-0.58461578906	0.35791015625	-0.828125	0.2216796875	11.625	11.0625	4.9375
19	03	17	16	02	39	0.141968045807	0.128967532584	-0.583436177931	0.4423828125	-1.02734375	0.28466796875	8.0625	11.25	-8.75
19	03	17	16	02	39	0.144474281067	0.126102181954	-0.581681410465	0.275390625	-1.02294921875	0.1845703125	17.875	24.625	-11.5625
19	03	17	16	02	39	0.144355900693	0.12225998693	-0.577667756517	0.13720703125	-0.8623046875	0.18359375	33.625	21.1875	0.0625
19	03	17	16	02	39	0.142153238919	0.120729543402	-0.574533464125	0.20751953125	-0.7900390625	0.2861328125	23.75	1.8125	8.4375
19	03	17	16	02	39	0.141362304213	0.120548597073	-0.574238582916	0.37744140625	-0.9072265625	0.23779296875	7.9375	0.8125	5.375
19	03	17	16	02	39	0.141666863261	0.120120804351	-0.575273669211	0.37890625	-0.8984375	0.25048828125	-3.625	3.75	1.125
19	03	17	16	02	39	0.141235038772	0.117187240467	-0.575682318796	0.2724609375	-0.8681640625	0.24755859375	0.0625	11.5	7.5625
19	03	17	16	02	39	0.141112082697	0.115477534802	-0.576655258356	0.20068359375	-0.82421875	0.34765625	-10.9375	1.9375	-1.125
19	03	17	16	02	39	0.139897296248	0.113895442757	-0.578815907645	0.220703125	-0.8134765625	0.35888671875	-19.0625	-3.0625	5.75
19	03	17	16	02	39	0.140563743868	0.113586247216	-0.580260318258	0.33447265625	-0.92724609375	0.37939453125	-15.3125	-0.4375	-3.625
19	03	17	16	02	39	0.141848736861	0.111208433116	-0.580884005467	0.2314453125	-0.95849609375	0.3466796875	-8.0625	10.9375	-6.125
19	03	17	16	02	39	0.142213817603	0.108705068305	-0.58002485351	0.14990234375	-0.98388671875	0.40185546875	0.1875	7.3125	-7.4375
19	03	17	16	02	39	0.142211223763	0.106627900392	-0.579342890971	0.17578125	-0.9814453125	0.373046875	1.8125	5.625	-4.75
19	03	17	16	02	39	0.140995577929	0.104373349896	-0.578753277023	0.21923828125	-0.9365234375	0.314453125	5.0625	4.625	5.375
19	03	17	16	02	39	0.13952987347	0.102907859436	-0.578200564909	0.2890625	-0.9404296875	0.29736328125	6.875	2.1875	8.5625
19	03	17	16	02	39	0.139161332023	0.102539928859	-0.579716812086	0.38720703125	-0.943359375	0.3076171875	-9.375	0.125	5.8125
19	03	17	16	02	39	0.139159964956	0.101257185027	-0.581542169344	0.294921875	-0.92138671875	0.32861328125	-14.125	2.6875	2.25
19	03	17	16	02	39	0.139342228993	0.101500712578	-0.584041081572	0.31640625	-0.94482421875	0.41015625	-23.875	-6.5625	-3.4375
19	03	17	16	02	39	0.139836124625	0.101321679126	-0.585895661402	0.3125	-0.9814453125	0.34423828125	-15.375	-1.1875	-4.25
19	03	17	16	02	39	0.13885891503	0.100527750793	-0.585526844786	0.2568359375	-0.888671875	0.337890625	0.4375	-1.5625	3.4375
19	03	17	16	02	39	0.138793093743	0.0997918681923	-0.584713209347	0.3046875	-0.90478515625	0.32666015625	3.625	3.0625	1.75
19	03	17	16	02	39	0.13903869998	0.0973515041562	-0.584475237492	0.1640625	-0.876953125	0.28271484375	0.6875	9.375	-1.9375
19	03	17	16	02	40	0.137637969644	0.0952173980686	-0.584305225456	0.111328125	-0.8359375	0.29541015625	1.0625	1.625	2.8125
19	03	17	16	02	40	0.13604943874	0.0946669715055	-0.584115356097	0.22998046875	-0.91357421875	0.32470703125	1.25	-4.875	4.0625
19	03	17	16	02	40	0.13635346634	0.0952765268381	-0.583622133008	0.30859375	-0.9892578125	0.29443359375	5.4375	-1.0	-5.5
19	03	17	16	02	40	0.135865544929	0.0941781382864	-0.581243299353	0.177734375	-0.92529296875	0.28564453125	18.5625	4.0	-2.8125
19	03	17	16	02	40	0.135558927755	0.0939329985659	-0.579100903439	0.193359375	-0.90625	0.36572265625	12.1875	-1.125	-5.0
19	03	17	16	02	40	0.136603127175	0.0931440447134	-0.576565299058	0.23193359375	-1.00634765625	0.28955078125	20.3125	8.875	-9.1875
19	03	17	16	02	40	0.136049010209	0.0925304169931	-0.573004983332	0.2294921875	-0.9716796875	0.423828125	20.625	1.3125	-1.5625
19	03	17	16	02	40	0.135320306476	0.0932043788853	-0.571494826132	0.326171875	-1.005859375	0.36767578125	11.6875	-3.875	0.0
19	03	17	16	02	40	0.132994841	0.0922235909827	-0.570187152191	0.27587890625	-0.92724609375	0.30517578125	13.875	-1.375	12.0
19	03	17	16	02	40	0.130797642578	0.0919794901375	-0.569699111442	0.2666015625	-0.8837890625	0.3017578125	7.3125	-5.6875	9.625
19	03	17	16	02	40	0.129330593077	0.091306544239	-0.569384191983	0.23828125	-0.89794921875	0.30908203125	5.0625	-1.625	5.5
19	03	17	16	02	40	0.129949319542	0.0920448914368	-0.568444346121	0.2861328125	-0.921875	0.36181640625	5.125	-1.4375	-6.4375
19	03	17	16	02	40	0.130371411622	0.0912477810746	-0.567567301814	0.18212890625	-0.88330078125	0.33837890625	4.9375	3.4375	-6.3125
19	03	17	16	02	40	0.130497899663	0.0907625710005	-0.56496190799	0.1865234375	-0.89697265625	0.4013671875	14.4375	1.625	-5.75
19	03	17	16	02	40	0.133302106653	0.0914315731528	-0.563176986303	0.3232421875	-1.0087890625	0.42578125	7.75	6.625	-16.875
19	03	17	16	02	40	0.135193873838	0.08886784664	-0.562260029703	0.1845703125	-1.037109375	0.33203125	8.125	16.75	-10.5
19	03	17	16	02	40	0.134153438329	0.0863025303903	-0.560905413216	0.150390625	-0.90771484375	0.3720703125	8.6875	6.375	4.1875
19	03	17	16	02	40	0.132509518698	0.0831312595422	-0.560678230657	0.2138671875	-0.87353515625	0.2646484375	7.1875	9.9375	14.3125
19	03	17	16	02	40	0.131227289625	0.0788584456722	-0.560981404159	0.1474609375	-0.8076171875	0.22216796875	3.4375	15.3125	13.75
19	03	17	16	02	40	0.131043022586	0.07714875666	-0.562685433267	0.21826171875	-0.7841796875	0.38525390625	-16.8125	3.6875	5.25
19	03	17	16	02	40	0.131467799878	0.0739735252793	-0.565055195574	0.21044921875	-0.9033203125	0.3017578125	-14.9375	13.0625	4.25
19	03	17	16	02	40	0.132567953181	0.0723874735139	-0.565427955002	0.2578125	-0.89013671875	0.4189453125	-8.875	9.0	-0.375
19	03	17	16	02	40	0.134887077749	0.0714718407441	-0.565610203395	0.2626953125	-0.9140625	0.4521484375	-10.1875	9.5625	-8.75
19	03	17	16	02	40	0.13623107902	0.0690310709553	-0.56549325588	0.21484375	-0.95703125	0.373046875	-1.5625	13.9375	-2.6875
19	03	17	16	02	40	0.137634467566	0.0657959893731	-0.565979786138	0.17138671875	-0.92724609375	0.3994140625	-8.9375	15.8125	-2.375
19	03	17	16	02	40	0.138368540723	0.0602425009674	-0.56745139969	0.04345703125	-0.99169921875	0.3173828125	-9.6875	22.0625	-0.625
19	03	17	16	02	40	0.138181047233	0.0548085602542	-0.569386479523	-0.01513671875	-0.9658203125	0.32861328125	-13.6875	16.6875	1.0
19	03	17	16	02	40	0.136290327522	0.050292534652	-0.571284131484	-0.00244140625	-0.96484375	0.34765625	-13.3125	7.0625	7.3125
19	03	17	16	02	40	0.134156320462	0.0458377600852	-0.572575269453	0.0107421875	-0.9609375	0.349609375	-9.4375	7.125	9.5625
19	03	17	16	02	40	0.132202645118	0.0424195929626	-0.572695022687	0.05078125	-0.91552734375	0.41162109375	-5.5625	4.25	9.8125
19	03	17	16	02	40	0.131898064705	0.0408328576066	-0.573735218986	0.17529296875	-0.97802734375	0.412109375	-11.5	3.0625	2.875
19	03	17	16	02	40	0.130917601487	0.0382682219732	-0.574084363444	0.0849609375	-0.90625	0.41650390625	-8.3125	4.25	5.0625
19	03	17	16	02	40	0.129092919291	0.035401367938	-0.574539786897	0.0234375	-0.8505859375	0.390625	-8.625	1.75	7.1875
19	03	17	16	02	40	0.126837264509	0.0324722929348	-0.574246864531	-0.01611328125	-0.8623046875	0.42724609375	-5.375	0.1875	7.375
19	03	17	16	02	40	0.12518246122	0.0305174210678	-0.574520969023	0.01171875	-0.9033203125	0.39501953125	-6.0	-1.8125	2.8125
19	03	17	16	02	40	0.124389144738	0.0295408960026	-0.574399529505	0.0341796875	-0.931640625	0.412109375	-3.8125	-2.5625	-3.1875
19	03	17	16	02	40	0.124206350946	0.029418899831	-0.573668546705	0.04931640625	-0.9658203125	0.40087890625	2.125	-3.6875	-8.4375
19	03	17	16	02	40	0.123904856793	0.0291756263779	-0.572159668759	0.0380859375	-0.95703125	0.43701171875	5.5625	-3.375	-7.25
19	03	17	16	02	40	0.123293693631	0.0286261100558	-0.570507997211	-0.01318359375	-0.91357421875	0.42529296875	6.3125	-4.125	-7.8125
19	03	17	16	02	40	0.122866033852	0.0285649795542	-0.568430885872	0.05859375	-1.017578125	0.4677734375	9.75	-4.25	-6.625
19	03	17	16	02	40	0.124696919509	0.0300298014676	-0.568918250975	0.2333984375	-1.12548828125	0.384765625	-1.0	-0.625	-13.8125
19	03	17	16	02	40	0.126466435924	0.0277713457266	-0.567512027617	0.02978515625	-1.107421875	0.37451171875	10.5	13.3125	-13.375
19	03	17	16	02	40	0.12829851667	0.0258794343806	-0.563488061797	-0.0791015625	-1.16650390625	0.47900390625	24.6875	9.6875	-21.5
19	03	17	16	02	40	0.127136010947	0.0238036698364	-0.563780764818	-0.05029296875	-0.890625	0.314453125	-0.1875	0.375	-2.8125
19	03	17	16	02	40	0.123660627749	0.019104529361	-0.55928051928	-0.11328125	-1.00146484375	0.388671875	31.5	7.0	14.5625
19	03	17	16	02	40	0.122555821117	0.0192866730443	-0.559130416957	0.138671875	-0.89306640625	0.3388671875	3.5625	-4.5	3.0
19	03	17	16	02	40	0.117616500044	0.0161135215421	-0.561226630982	0.09033203125	-0.7333984375	0.31494140625	-15.0	-3.8125	30.625
19	03	17	16	02	40	0.117559173735	0.0148932701928	-0.560878113939	0.123046875	-1.02099609375	0.3876953125	3.3125	4.8125	1.3125
19	03	17	16	02	40	0.119382565543	0.0172115968727	-0.562550667999	0.3310546875	-0.85009765625	0.43603515625	-17.3125	-2.5625	-5.5
19	03	17	16	02	40	0.12005479677	0.0169675818516	-0.563470200194	0.2587890625	-0.888671875	0.3291015625	-5.4375	5.3125	3.8125
19	03	17	16	02	41	0.121767355388	0.0117799997945	-0.560801233738	-0.1552734375	-0.81494140625	0.39501953125	9.75	23.5	-9.4375
19	03	17	16	02	41	0.12482053478	0.0123294611372	-0.557328265562	-0.072265625	-1.00634765625	0.669921875	6.5	0.4375	-30.75
19	03	17	16	02	41	0.122319162838	0.0139165514606	-0.566183909425	-0.0146484375	-0.71875	0.28662109375	-59.0625	-25.9375	-6.125
19	03	17	16	02	41	0.117311220724	0.0053101333002	-0.55890678885	-0.0732421875	-1.09521484375	0.29833984375	56.8125	24.6875	39.5
19	03	17	16	02	41	0.120367498096	0.00433371823774	-0.55325101559	-0.09814453125	-1.064453125	0.5791015625	28.4375	10.0625	-26.125
19	03	17	16	02	41	0.121216921015	0.00872810659877	-0.558842965163	0.3056640625	-0.97998046875	0.451171875	-38.9375	-18.75	-11.1875
19	03	17	16	02	41	0.120484674946	0.00732429634932	-0.561163171964	0.3232421875	-1.28515625	0.36181640625	-6.6875	7.375	14.375
19	03	17	16	02	41	0.121402775937	0.00537126409373	-0.554583017677	0.05517578125	-1.0263671875	0.53173828125	37.1875	12.9375	-2.0
19	03	17	16	02	41	0.124691978175	0.0101926384509	-0.553942434614	0.38037109375	-1.02978515625	0.4345703125	6.125	-6.25	-17.6875
19	03	17	16	02	41	0.123598281359	0.00610361883253	-0.555917603267	-0.02001953125	-0.8046875	0.35498046875	-17.0625	10.0625	7.75
19	03	17	16	02	41	0.124450746182	0.00128173892585	-0.551147738118	-0.1826171875	-1.1552734375	0.45556640625	31.625	19.4375	-9.6875
19	03	17	16	02	41	0.125120863556	0.00427241973116	-0.552179732969	0.17431640625	-0.92626953125	0.45849609375	-9.375	-12.5625	-11.4375
19	03	17	16	02	41	0.120973334976	0.00433355539016	-0.552436758258	0.2333984375	-0.95166015625	0.46533203125	-3.3125	-11.9375	24.9375
19	03	17	16	02	41	0.121460790104	0.00384524109374	-0.552432970467	0.01904296875	-1.00830078125	0.3349609375	5.375	1.0	-9.4375
19	03	17	16	02	41	0.119203431554	0.00305180316319	-0.55054529064	-0.009765625	-0.82421875	0.4970703125	4.5625	-7.0	5.6875
19	03	17	16	02	41	0.117678415762	0.0029297530895	-0.553601260871	0.03857421875	-0.91845703125	0.345703125	-17.3125	-8.6875	0.25
19	03	17	16	02	41	0.114258632724	0.000793462727249	-0.552066951382	-0.09033203125	-0.7978515625	0.43603515625	4.6875	-6.125	11.1875
19	03	17	16	02	41	0.115299755528	0.00231942335102	-0.55135134552	0.1318359375	-1.02197265625	0.4189453125	6.5625	-3.75	-10.875
19	03	17	16	02	41	0.115052364618	0.00378421570628	-0.552434457379	-0.0009765625	-0.86572265625	0.5	-14.875	-13.375	-11.875
19	03	17	16	02	41	0.11523595715	0.00573738345978	-0.551826424041	0.13330078125	-1.06298828125	0.38330078125	10.3125	-8.1875	-8.75
19	03	17	16	02	41	0.115964401238	0.00506581331723	-0.548511617855	0.00341796875	-0.9169921875	0.4453125	18.875	3.625	-8.625
19	03	17	16	02	41	0.115843964228	0.00634761447823	-0.546566227428	0.02099609375	-0.85009765625	0.48583984375	7.3125	-9.375	-9.5
19	03	17	16	02	41	0.117066498154	0.0114747141047	-0.546757919949	0.21875	-1.00341796875	0.49365234375	-1.9375	-19.5625	-18.5625
19	03	17	16	02	41	0.117371210394	0.0126953779314	-0.544070186924	0.2490234375	-1.0634765625	0.4912109375	18.375	-1.125	0.4375
19	03	17	16	02	41	0.118775461401	0.0159913519461	-0.54376700186	0.17138671875	-0.93212890625	0.4140625	3.9375	-10.3125	-16.4375
19	03	17	16	02	41	0.115604241432	0.016235864953	-0.539445768625	0.107421875	-0.9404296875	0.4658203125	29.1875	-9.8125	12.75
19	03	17	16	02	41	0.115173478428	0.0172119347731	-0.53869693726	0.205078125	-0.95361328125	0.34765625	12.0625	-3.3125	2.1875
19	03	17	16	02	41	0.115417104467	0.0172118579904	-0.537229695147	0.1806640625	-1.02783203125	0.431640625	13.125	2.75	-0.4375
19	03	17	16	02	41	0.113284358199	0.0158085392098	-0.537307222642	-0.05029296875	-0.7802734375	0.3037109375	4.0	-4.6875	3.5
19	03	17	16	02	41	0.107604587829	0.0101317989674	-0.531675306056	-0.146484375	-0.83837890625	0.3095703125	43.5625	6.75	29.875
19	03	17	16	02	41	0.108766794739	0.0109255085624	-0.527415192671	0.1494140625	-0.859375	0.3564453125	33.1875	3.6875	-5.4375
19	03	17	16	02	41	0.109801487936	0.01000969651	-0.52618044886	0.09423828125	-0.79931640625	0.42919921875	5.625	7.3125	-3.5625
19	03	17	16	02	41	0.111024176369	0.011596807867	-0.52429778725	0.2041015625	-1.0478515625	0.53564453125	12.75	-1.5625	-7.375
19	03	17	16	02	41	0.113100229508	0.0155032154857	-0.522165387717	0.36279296875	-0.91650390625	0.44384765625	17.4375	-4.3125	-8.0625
19	03	17	16	02	41	0.113895806191	0.0183722602698	-0.514789512012	0.38818359375	-1.021484375	0.51171875	52.9375	1.125	3.125
19	03	17	16	02	41	0.119754076012	0.0248419515479	-0.513807243563	0.53662109375	-0.81103515625	0.33935546875	13.5	0.25	-24.625
19	03	17	16	02	41	0.120732585294	0.0230112157007	-0.509786932446	0.18994140625	-0.81884765625	0.33935546875	31.875	17.375	3.625
19	03	17	16	02	41	0.125796169241	0.0244145888871	-0.507091011185	0.330078125	-0.9697265625	0.49072265625	19.5625	15.1875	-20.125
19	03	17	16	02	41	0.130005292295	0.0270386593834	-0.509401018542	0.35888671875	-0.76513671875	0.44921875	-17.75	3.9375	-17.4375
19	03	17	16	02	41	0.128846115787	0.0269166921184	-0.507449837352	0.27587890625	-0.9560546875	0.419921875	20.8125	3.125	11.8125
19	03	17	16	02	41	0.132264680991	0.0285647765132	-0.504827492608	0.3740234375	-0.66650390625	0.35302734375	17.8125	12.125	-7.4375
19	03	17	16	02	41	0.133733456046	0.0261851449766	-0.503804630855	0.2138671875	-0.68896484375	0.3564453125	6.8125	19.625	3.8125
19	03	17	16	02	41	0.134526261917	0.0205695781606	-0.505511116695	0.09765625	-0.60302734375	0.2978515625	-12.9375	27.875	10.625
19	03	17	16	02	41	0.134281295429	0.0122073904935	-0.50410419043	-0.0595703125	-0.7158203125	0.42626953125	2.4375	34.8125	14.5
19	03	17	16	02	41	0.13653726736	0.0141603245541	-0.506048495163	0.45556640625	-0.88671875	0.84228515625	-33.3125	1.3125	-0.25
19	03	17	16	02	41	0.141300134886	0.0225836068716	-0.515577641201	0.79541015625	-1.10693359375	0.5146484375	-54.75	-15.125	-17.875
19	03	17	16	02	41	0.140257716634	0.0225828351412	-0.516109335011	0.45947265625	-0.9921875	0.4677734375	1.125	5.5	20.4375
19	03	17	16	02	41	0.1413609431	0.0173954528427	-0.509717286628	0.1669921875	-0.5947265625	0.439453125	31.5625	34.125	14.9375
19	03	17	16	02	41	0.140990080124	0.00885002667445	-0.509578432448	-0.17041015625	-0.50390625	0.50537109375	-19.125	29.3125	11.375
19	03	17	16	02	41	0.1433745584	0.00177005627655	-0.510874863266	0.01220703125	-1.23486328125	0.755859375	-19.9375	32.5625	-4.25
19	03	17	16	02	42	0.148621104037	0.00555421785109	-0.511598395911	0.484375	-1.31689453125	0.73046875	-5.1875	4.375	-22.8125
19	03	17	16	02	42	0.150458648099	0.00543238120924	-0.504784186522	0.47265625	-1.26220703125	0.07666015625	83.1875	27.1875	8.625
19	03	17	16	02	42	0.149232922278	-0.00238040244124	-0.493536772817	-0.2236328125	-0.3154296875	0.22900390625	65.4375	34.25	17.8125
19	03	17	16	02	42	0.148436043768	-0.00714104322402	-0.48638438848	0.09619140625	-0.904296875	0.70947265625	34.5	24.4375	18.25
19	03	17	16	02	42	0.151735142549	-0.00299075703336	-0.502203038172	0.826171875	-0.51708984375	0.42626953125	-103.375	-18.3125	-26.0625
19	03	17	16	02	42	0.149170143878	-0.0128784371351	-0.504273211424	0.11474609375	-0.962890625	-0.11474609375	18.625	44.3125	38.4375
19	03	17	16	02	42	0.148992418808	-0.0301525009796	-0.497089004003	-0.61767578125	-0.40869140625	0.61572265625	8.375	63.5	14.875
19	03	17	16	02	42	0.137818991353	-0.0397343504744	-0.495367109754	-0.6748046875	0.0712890625	0.30859375	-15.0	-9.0625	44.6875
19	03	17	16	02	42	0.127994364153	-0.0515151375037	-0.500868742127	-0.18408203125	-0.80712890625	0.087890625	-22.75	19.75	65.0625
19	03	17	16	02	42	0.123841289325	-0.0560917421833	-0.503421860205	-0.0859375	-0.37109375	0.859375	-60.4375	4.0625	26.0
19	03	17	16	02	42	0.12463951006	-0.0513329226056	-0.502952773211	0.3349609375	-1.1240234375	0.84619140625	-6.125	-11.3125	0.625
19	03	17	16	02	42	0.130429366424	-0.0386344356322	-0.5026138664	0.9814453125	-1.115234375	0.96826171875	-8.5	-15.1875	-9.25
19	03	17	16	02	42	0.132993007915	-0.0338128161473	-0.491445479455	0.3896484375	-0.95751953125	1.0927734375	45.5625	-1.0	-0.5625
19	03	17	16	02	42	0.136779097276	-0.0320432958814	-0.476987347263	-0.0947265625	-1.25537109375	0.7412109375	99.0	3.9375	-27.5
19	03	17	16	02	42	0.140810552826	-0.0310063982815	-0.463509032578	-0.00927734375	-1.19873046875	0.7021484375	94.125	11.25	-22.5
19	03	17	16	02	42	0.139894054539	-0.0262453941762	-0.454655677253	0.21240234375	-0.97021484375	0.51123046875	71.875	-14.3125	4.4375
19	03	17	16	02	42	0.139768882	-0.0222165384489	-0.456476623789	0.54833984375	-1.55029296875	0.78125	11.5	-4.125	10.9375
19	03	17	16	02	42	0.142765750947	-0.0151371980483	-0.459975501983	0.3857421875	-1.19384765625	0.3876953125	9.375	-17.5625	-22.25
19	03	17	16	02	42	0.144352334236	-0.018799373761	-0.460279472505	0.0771484375	-1.107421875	0.28125	23.125	23.6875	-2.375
19	03	17	16	02	42	0.141113037857	-0.0230102142181	-0.454711129773	-0.068359375	-0.806640625	0.90869140625	14.3125	8.0	21.9375
19	03	17	16	02	42	0.145571722129	-0.010559290536	-0.459359656497	0.771484375	-1.173828125	0.64208984375	-9.25	-27.75	-23.25
19	03	17	16	02	42	0.153932093373	-0.00677496525153	-0.459049672584	0.47412109375	-0.8740234375	0.3408203125	18.5	19.25	-34.0625
19	03	17	16	02	42	0.155034618214	-0.0130619717708	-0.458267682499	0.001953125	-1.06298828125	0.5576171875	10.375	30.25	2.1875
19	03	17	16	02	42	0.161141396397	-0.00604280236487	-0.463342553048	0.54541015625	-0.751953125	0.27099609375	-13.6875	-4.3125	-29.0
19	03	17	16	02	42	0.163581393539	-0.0150763448523	-0.467549803921	-0.0224609375	-1.052734375	0.29052734375	-11.75	44.6875	-1.8125
19	03	17	16	02	42	0.169134910718	-0.0159307873322	-0.471087420037	0.07763671875	-0.89697265625	0.630859375	-27.5625	13.0625	-32.1875
19	03	17	16	02	42	0.17639764137	-0.00964388489151	-0.475297035761	0.43359375	-0.875	0.318359375	-8.625	-2.0625	-41.3125
19	03	17	16	02	42	0.179686240225	-0.0136717791475	-0.474361908637	0.00537109375	-0.5380859375	0.29833984375	3.75	26.8125	-10.6875
19	03	17	16	02	42	0.185118873427	-0.0203246240855	-0.475461926805	-0.13818359375	-0.65625	0.36669921875	-13.3125	37.75	-25.0625
19	03	17	16	02	42	0.188970446376	-0.0170293134816	-0.479079145223	0.30078125	-0.62451171875	0.7548828125	-41.75	-5.6875	-20.4375
19	03	17	16	02	42	0.192261489217	-0.0170288747592	-0.482484784844	0.208984375	-0.82177734375	0.15673828125	-2.3125	11.375	-16.4375
19	03	17	16	02	42	0.193422882041	-0.0215456855034	-0.479437279404	0.10693359375	-0.5927734375	0.54638671875	4.5	27.125	8.5625
19	03	17	16	02	42	0.200192648234	-0.0211178830149	-0.479546840602	0.09130859375	-0.63134765625	0.5166015625	-9.75	14.375	-37.5625
19	03	17	16	02	42	0.199828601685	-0.0209350062242	-0.481749283171	0.08837890625	-0.60302734375	0.45556640625	-17.5625	-6.1875	-1.9375
19	03	17	16	02	42	0.196101310523	-0.024779686297	-0.483020781661	-0.0908203125	-0.51171875	0.2099609375	-4.3125	1.625	18.4375
19	03	17	16	02	42	0.192749602903	-0.0230103230825	-0.486451657739	0.3154296875	-0.7412109375	0.65673828125	-29.875	-16.9375	20.1875
19	03	17	16	02	42	0.193910018045	-0.0138550752585	-0.490054622249	0.38134765625	-0.5869140625	0.75	-36.3125	-39.6875	-18.4375
19	03	17	16	02	42	0.190979492676	-0.01391605124	-0.493104289335	0.10107421875	-0.896484375	0.375	-8.0625	-12.0	8.75
19	03	17	16	02	42	0.185796102264	-0.00866722947486	-0.492750306694	0.56689453125	-0.70654296875	0.81201171875	-11.625	-29.3125	37.0625
19	03	17	16	02	42	0.184268466735	-0.0042115018896	-0.494759917639	0.6943359375	-0.91796875	0.6455078125	-13.0625	-10.8125	23.625
19	03	17	16	02	42	0.186102739615	-0.003967424754	-0.49843062371	0.5205078125	-0.90771484375	0.78759765625	-39.5	8.8125	7.375
19	03	17	16	02	42	0.184146642214	-0.00750747000079	-0.496957892247	0.16259765625	-1.15185546875	0.91259765625	-6.625	7.6875	16.875
19	03	17	16	02	42	0.181825985735	-0.0025635083588	-0.494635041422	0.62548828125	-1.02197265625	0.76318359375	13.25	-14.9375	24.1875
19	03	17	16	02	42	0.179992640243	0.00231933547957	-0.490051172775	0.60791015625	-0.818359375	0.54052734375	33.75	-9.125	23.5625
19	03	17	16	02	42	0.181281243418	0.00726345722785	-0.48787238338	0.47998046875	-0.92333984375	0.6083984375	16.875	-8.875	-3.3125
19	03	17	16	02	42	0.187434231139	0.014953235633	-0.488879254777	0.59326171875	-1.0029296875	0.57861328125	0.375	-8.0	-33.5625
19	03	17	16	02	42	0.189947379273	0.0176397148489	-0.488479716041	0.3154296875	-1.04150390625	0.49658203125	12.8125	-1.6875	-17.9375
19	03	17	16	02	42	0.192023304082	0.0197760809035	-0.486833399032	0.30810546875	-0.986328125	0.54638671875	16.4375	0.1875	-13.125
19	03	17	16	02	42	0.196045344734	0.0229492682503	-0.486634350425	0.40771484375	-1.10009765625	0.45068359375	16.125	3.375	-23.6875
19	03	17	16	02	42	0.201239819671	0.0279550613919	-0.489946021382	0.412109375	-0.974609375	0.333984375	-3.8125	-4.625	-35.625
19	03	17	16	02	43	0.203734744007	0.0251464093861	-0.490599122927	0.0859375	-0.97021484375	0.15576171875	16.875	20.1875	-16.5625
19	03	17	16	02	43	0.205197505717	0.0250851204193	-0.492425186237	0.2001953125	-0.7080078125	0.521484375	-17.8125	0.125	-9.1875
19	03	17	16	02	43	0.206666127692	0.0280763197691	-0.499514349979	0.30810546875	-0.84912109375	0.34228515625	-34.3125	-14.6875	-17.0625
19	03	17	16	02	43	0.207342006126	0.0277107067358	-0.504835364342	0.109375	-0.802734375	0.142578125	-16.5625	-1.75	-13.3125
19	03	17	16	02	43	0.206666356737	0.0272218532501	-0.508792306486	0.11767578125	-0.59716796875	0.3466796875	-26.1875	-6.9375	-1.1875
19	03	17	16	02	43	0.207406358567	0.0313734162164	-0.515158818806	0.3076171875	-0.65185546875	0.36083984375	-38.0625	-22.9375	-13.5625
19	03	17	16	02	43	0.208003767307	0.0313104262408	-0.521352165593	0.263671875	-0.7255859375	0.2998046875	-36.25	-3.1875	-4.3125
19	03	17	16	02	43	0.209169805279	0.0301517023076	-0.5238095328	0.10546875	-0.71484375	0.4345703125	-22.1875	0.875	-11.1875
19	03	17	16	02	43	0.211431334994	0.035462357284	-0.527906933131	0.50537109375	-0.77490234375	0.51220703125	-30.625	-18.125	-14.875
19	03	17	16	02	43	0.213508524068	0.035889940581	-0.528644175802	0.3173828125	-0.876953125	0.2431640625	6.1875	7.75	-10.625
19	03	17	16	02	43	0.213746167466	0.0352784936594	-0.528628085785	0.3056640625	-0.61083984375	0.546875	-14.8125	2.25	6.6875
19	03	17	16	02	43	0.216430880142	0.037353552918	-0.530518107783	0.46630859375	-0.87158203125	0.44384765625	-13.0	1.0	-10.6875
19	03	17	16	02	43	0.217962690107	0.0375987166356	-0.53181431501	0.46533203125	-0.90283203125	0.37060546875	-4.8125	8.1875	0.0
19	03	17	16	02	43	0.218454260091	0.0366837134156	-0.528831435995	0.36572265625	-0.7998046875	0.4169921875	17.8125	12.5	7.75
19	03	17	16	02	43	0.219794455198	0.038148162871	-0.528092648256	0.48193359375	-0.7392578125	0.46533203125	0.25	3.4375	2.5625
19	03	17	16	02	43	0.220341685638	0.0383309081941	-0.526439622889	0.3515625	-0.830078125	0.36474609375	14.5625	6.25	1.1875
19	03	17	16	02	43	0.220946435129	0.0395506325867	-0.525937964505	0.50537109375	-0.73779296875	0.4599609375	-0.25	2.8125	8.375
19	03	17	16	02	43	0.221444204006	0.0422379793749	-0.523457964045	0.43798828125	-0.73828125	0.3203125	23.25	-0.625	1.125
19	03	17	16	02	43	0.219371947054	0.0397359870708	-0.519985981346	0.14453125	-0.5380859375	0.29638671875	22.0625	9.1875	17.1875
19	03	17	16	02	43	0.217775935441	0.0398564141937	-0.516912667391	0.2529296875	-0.548828125	0.5751953125	6.125	-4.5	13.3125
19	03	17	16	02	43	0.220887746202	0.0476687841348	-0.517764783375	0.59912109375	-0.78564453125	0.43603515625	-0.625	-19.1875	-21.9375
19	03	17	16	02	43	0.222292279507	0.0493779390778	-0.511601836032	0.400390625	-0.87060546875	0.46826171875	42.4375	7.5	-4.625
19	03	17	16	02	43	0.225523869392	0.0537717263692	-0.503659802495	0.37353515625	-0.66357421875	0.68896484375	36.625	-2.5	-19.25
19	03	17	16	02	43	0.227299110811	0.0586558661358	-0.499032634263	0.42919921875	-0.95654296875	0.5361328125	36.3125	-9.0625	-19.0
19	03	17	16	02	43	0.229133520278	0.0623189462451	-0.493302373705	0.419921875	-0.88134765625	0.54296875	39.875	-1.5625	-14.5625
19	03	17	16	02	43	0.23120846133	0.0642110087958	-0.485916198692	0.38134765625	-0.87255859375	0.5078125	51.375	9.75	-12.5625
19	03	17	16	02	43	0.232247114419	0.0661644867358	-0.481645724015	0.27734375	-0.837890625	0.54345703125	29.4375	-2.6875	-13.9375
19	03	17	16	02	43	0.231939973505	0.0679339975028	-0.478772934782	0.41943359375	-0.9384765625	0.462890625	30.625	-0.125	-1.6875
19	03	17	16	02	43	0.233278012698	0.070923351846	-0.475772399002	0.51904296875	-0.904296875	0.53515625	25.875	0.3125	-8.0
19	03	17	16	02	43	0.233710671232	0.0730612884472	-0.472914672422	0.416015625	-0.81591796875	0.486328125	24.9375	-1.0	-4.375
19	03	17	16	02	43	0.234323059989	0.074465780981	-0.469744795434	0.458984375	-0.81591796875	0.47900390625	26.875	6.0	-1.5
19	03	17	16	02	43	0.236942123376	0.0775158414959	-0.469184467385	0.50341796875	-0.7490234375	0.57177734375	1.9375	-2.375	-14.0625
19	03	17	16	02	43	0.23810631896	0.0783718312085	-0.468644018706	0.44873046875	-0.943359375	0.49267578125	13.4375	4.625	-7.8125
19	03	17	16	02	43	0.240362743339	0.0800802232758	-0.466992216679	0.408203125	-0.81298828125	0.54541015625	12.125	2.0625	-15.25
19	03	17	16	02	43	0.240787831118	0.0809950448399	-0.4648517419	0.38916015625	-0.82177734375	0.47412109375	21.1875	3.375	-4.4375
19	03	17	16	02	43	0.241589423723	0.0825847625814	-0.463768681518	0.40087890625	-0.75927734375	0.48681640625	11.5625	-0.6875	-6.6875
19	03	17	16	02	43	0.244081853496	0.0838630824466	-0.463749418071	0.5087890625	-0.7685546875	0.44384765625	5.125	8.375	-9.875
19	03	17	16	02	43	0.244940293318	0.0833761377207	-0.463024436859	0.32763671875	-0.81640625	0.47314453125	10.25	6.1875	-6.875
19	03	17	16	02	43	0.246582300397	0.0845337836758	-0.463989764262	0.4228515625	-0.70751953125	0.47119140625	-4.0625	0.9375	-8.5625
19	03	17	16	02	43	0.246764364994	0.0836179025579	-0.462950212337	0.37158203125	-0.74560546875	0.44873046875	11.3125	9.6875	1.9375
19	03	17	16	02	43	0.247384593193	0.0837433165212	-0.463762185808	0.40087890625	-0.61279296875	0.4892578125	-7.5625	2.375	0.875
19	03	17	16	02	43	0.246155092351	0.0825196342323	-0.464356048254	0.3671875	-0.7001953125	0.4423828125	0.4375	4.75	10.75
19	03	17	16	02	43	0.244697422767	0.0815454619148	-0.464918999555	0.28369140625	-0.6005859375	0.49951171875	-5.5625	-1.8125	9.9375
19	03	17	16	02	43	0.244876297191	0.0835582379996	-0.467596538579	0.52880859375	-0.7138671875	0.49951171875	-13.75	-6.25	2.0
19	03	17	16	02	43	0.245480804051	0.0845938325247	-0.469660563693	0.4609375	-0.77197265625	0.59375	-14.5	-5.0	-3.0
19	03	17	16	02	43	0.246885694095	0.0861200777177	-0.469845753558	0.4501953125	-0.73388671875	0.708984375	-10.625	-5.625	-7.25
19	03	17	16	02	43	0.24646642027	0.0862449360679	-0.469555763036	0.3515625	-0.75537109375	0.68310546875	-4.9375	-6.0	0.25
19	03	17	16	02	43	0.246043262186	0.0875281662054	-0.469624623978	0.451171875	-0.79833984375	0.607421875	0.25	-6.3125	1.25
19	03	17	16	02	43	0.246045813752	0.0883225731825	-0.469568455766	0.4482421875	-0.78564453125	0.56787109375	1.25	-1.9375	0.3125
19	03	17	16	02	43	0.245910786525	0.0888672388137	-0.469177517006	0.45166015625	-0.8349609375	0.54736328125	6.3125	0.25	0.8125
19	03	17	16	02	44	0.246041766666	0.0896029058463	-0.469133470255	0.43505859375	-0.78515625	0.54248046875	2.4375	-1.0625	-1.0625
19	03	17	16	02	44	0.245916652918	0.0905173482943	-0.468273159888	0.447265625	-0.76220703125	0.5205078125	8.4375	-0.375	1.0625
19	03	17	16	02	44	0.246885754336	0.0924677176314	-0.46819792868	0.5087890625	-0.7138671875	0.51806640625	1.6875	-1.4375	-3.3125
19	03	17	16	02	44	0.247681758371	0.093384201653	-0.468019645931	0.4443359375	-0.73046875	0.5087890625	2.4375	0.75	-3.5625
19	03	17	16	02	44	0.248963810699	0.0947270983588	-0.46783711915	0.4091796875	-0.7294921875	0.52685546875	1.3125	-1.8125	-9.25
19	03	17	16	02	44	0.250365853253	0.0966185143099	-0.466491032767	0.42236328125	-0.72802734375	0.501953125	10.75	-1.125	-10.75
19	03	17	16	02	44	0.252325960116	0.0986964386811	-0.464733880098	0.43701171875	-0.69970703125	0.55029296875	9.1875	-0.875	-13.1875
19	03	17	16	02	44	0.254520590516	0.100038188934	-0.463264096407	0.43310546875	-0.7294921875	0.5751953125	6.5625	1.9375	-13.5
19	03	17	16	02	44	0.257205985925	0.101136762857	-0.462653387117	0.45458984375	-0.796875	0.5712890625	2.8125	3.3125	-16.6875
19	03	17	16	02	44	0.259405439391	0.101381749371	-0.461802718689	0.4306640625	-0.84716796875	0.544921875	7.75	7.0	-14.5
19	03	17	16	02	44	0.260752862215	0.101383544976	-0.460345994106	0.39208984375	-0.81640625	0.48779296875	14.375	7.1875	-10.3125
19	03	17	16	02	44	0.261175146351	0.101808867519	-0.459482706644	0.4345703125	-0.76025390625	0.4501953125	12.3125	4.625	-3.5
19	03	17	16	02	44	0.261535452595	0.10217277658	-0.461242337284	0.47265625	-0.72265625	0.435546875	-5.3125	1.1875	-0.3125
19	03	17	16	02	44	0.261303620007	0.10101786758	-0.464438038923	0.41748046875	-0.7470703125	0.44921875	-15.3125	2.375	3.4375
19	03	17	16	02	44	0.261236951692	0.100588433736	-0.468334376246	0.4453125	-0.75830078125	0.501953125	-21.875	-2.875	1.625
19	03	17	16	02	44	0.261182075817	0.10193364492	-0.472923281941	0.49560546875	-0.7900390625	0.5986328125	-28.8125	-14.0	-2.3125
19	03	17	16	02	44	0.260376666218	0.102905546002	-0.476014444406	0.4599609375	-0.82763671875	0.578125	-17.0625	-12.25	0.125
19	03	17	16	02	44	0.259582448455	0.104492158889	-0.475036491025	0.46826171875	-0.77490234375	0.5693359375	8.375	-7.5625	1.0
19	03	17	16	02	44	0.259704513413	0.10620114062	-0.475768902951	0.48828125	-0.63720703125	0.576171875	-9.25	-8.4375	0.5625
19	03	17	16	02	44	0.258609852074	0.106202771444	-0.477302110743	0.4501953125	-0.748046875	0.55126953125	-9.625	-5.5625	6.5625
19	03	17	16	02	44	0.258679465089	0.107121864377	-0.479454270475	0.529296875	-0.72900390625	0.513671875	-13.0	-4.375	2.3125
19	03	17	16	02	44	0.25782110297	0.107059236413	-0.480057522457	0.46142578125	-0.71435546875	0.48828125	-2.1875	-0.75	7.125
19	03	17	16	02	44	0.257937246889	0.106629524447	-0.480229592645	0.42578125	-0.67724609375	0.47998046875	-2.375	2.9375	2.6875
19	03	17	16	02	44	0.258479296566	0.106687558535	-0.481864001508	0.47314453125	-0.6318359375	0.53515625	-16.375	-0.625	2.5
19	03	17	16	02	44	0.258854141026	0.106935264107	-0.484077385635	0.5107421875	-0.7705078125	0.568359375	-16.8125	-3.25	0.4375
19	03	17	16	02	44	0.259901526541	0.107244476781	-0.48537739292	0.494140625	-0.775390625	0.53076171875	-9.75	0.3125	-4.3125
19	03	17	16	02	44	0.260564546038	0.10840071065	-0.484079975317	0.47265625	-0.74853515625	0.5244140625	7.875	-0.5	-4.25
19	03	17	16	02	44	0.26196600669	0.109681480434	-0.483465223438	0.49658203125	-0.71875	0.48876953125	3.1875	1.375	-7.0
19	03	17	16	02	44	0.262941277511	0.110535434905	-0.482852471306	0.48583984375	-0.7578125	0.50341796875	4.0625	1.5625	-5.6875
19	03	17	16	02	44	0.264657633889	0.111637179978	-0.484025608105	0.521484375	-0.74267578125	0.47509765625	-6.9375	0.4375	-8.1875
19	03	17	16	02	44	0.265265085386	0.112246316619	-0.483776131333	0.4599609375	-0.7783203125	0.435546875	6.4375	2.0	-5.5
19	03	17	16	02	44	0.266548044224	0.113101334084	-0.483595180762	0.41455078125	-0.6796875	0.43115234375	1.75	0.75	-8.9375
19	03	17	16	02	44	0.266912800269	0.113589005557	-0.483287343363	0.38671875	-0.68408203125	0.44384765625	3.375	-0.8125	-4.3125
19	03	17	16	02	44	0.268498984158	0.115175626985	-0.485056018892	0.5068359375	-0.6669921875	0.42822265625	-10.625	-2.6875	-8.625
19	03	17	16	02	44	0.268560871959	0.114321480268	-0.486461397617	0.35498046875	-0.74072265625	0.43798828125	-6.75	0.1875	-2.875
19	03	17	16	02	44	0.269907825676	0.114994650288	-0.488422076223	0.45361328125	-0.75341796875	0.4794921875	-12.4375	-3.125	-9.75
19	03	17	16	02	44	0.270208496231	0.11474858209	-0.491099516754	0.4228515625	-0.69921875	0.52392578125	-21.125	-5.3125	-1.875
19	03	17	16	02	44	0.269663033705	0.113468442657	-0.492693528308	0.35498046875	-0.76123046875	0.50244140625	-11.125	-2.0	0.9375
19	03	17	16	02	44	0.269234111179	0.112124929095	-0.494155376129	0.36962890625	-0.7421875	0.4775390625	-10.125	-0.0625	1.6875
19	03	17	16	02	44	0.269720138576	0.111818803772	-0.496592678762	0.4794921875	-0.76123046875	0.529296875	-19.0	-2.625	-1.0
19	03	17	16	02	44	0.270153440105	0.109990171502	-0.501425781849	0.44677734375	-0.7939453125	0.52001953125	-35.0625	-0.875	0.5625
19	03	17	16	02	44	0.271001960372	0.108583893582	-0.504954778865	0.47998046875	-0.7822265625	0.50390625	-27.25	1.5625	-0.3125
19	03	17	16	02	44	0.272228550393	0.106510946286	-0.50881103051	0.47021484375	-0.84814453125	0.51171875	-29.375	4.6875	-2.6875
19	03	17	16	02	44	0.272772032956	0.103639944498	-0.513194731058	0.4345703125	-0.830078125	0.50830078125	-33.9375	4.25	1.6875
19	03	17	16	02	44	0.271362028711	0.0994261684145	-0.51623482655	0.35791015625	-0.7568359375	0.599609375	-31.5625	2.875	15.6875
19	03	17	16	02	44	0.267823462393	0.0957645880799	-0.51733629609	0.2744140625	-0.83203125	0.51953125	-8.625	-2.125	19.0625
19	03	17	16	02	44	0.26527008551	0.0960123894401	-0.519126110736	0.39013671875	-0.744140625	0.48974609375	-11.375	-14.5625	10.75
19	03	17	16	02	44	0.262947028615	0.0966214360023	-0.522475990006	0.47509765625	-0.7626953125	0.5283203125	-23.9375	-17.0	11.75
19	03	17	16	02	44	0.261360090254	0.0972928500384	-0.525955137253	0.4521484375	-0.84375	0.509765625	-22.5	-15.8125	4.25
19	03	17	16	02	44	0.259161510332	0.0986351862213	-0.527356441183	0.3798828125	-0.81884765625	0.529296875	-9.9375	-20.0	2.4375
19	03	17	16	02	45	0.257032200103	0.102117043641	-0.52798112821	0.40625	-0.79931640625	0.50244140625	-1.1875	-26.75	-2.25
19	03	17	16	02	45	0.253914680999	0.105777438022	-0.529253413208	0.4130859375	-0.77880859375	0.46044921875	-2.4375	-30.4375	2.6875
19	03	17	16	02	45	0.251043318396	0.111879990912	-0.528454425158	0.5185546875	-0.7958984375	0.45654296875	13.8125	-34.375	-1.125
19	03	17	16	02	45	0.249461817533	0.116765465363	-0.528954272263	0.46240234375	-0.7509765625	0.427734375	2.0	-28.5	-5.6875
19	03	17	16	02	45	0.248595968218	0.120605360471	-0.529296399801	0.4052734375	-0.8115234375	0.48193359375	-0.3125	-25.0625	-12.0
19	03	17	16	02	45	0.248475799293	0.124085310725	-0.528445951923	0.3671875	-0.861328125	0.48046875	7.3125	-19.9375	-18.25
19	03	17	16	02	45	0.247619081892	0.127929404892	-0.524962219215	0.38623046875	-0.86962890625	0.47705078125	27.125	-18.1875	-14.75
19	03	17	16	02	45	0.246946950122	0.132323526413	-0.519101287887	0.431640625	-0.81591796875	0.48388671875	41.8125	-14.75	-13.0625
19	03	17	16	02	45	0.246828608124	0.136109741869	-0.513371766304	0.4443359375	-0.73046875	0.49609375	36.8125	-10.375	-11.25
19	03	17	16	02	45	0.247194780776	0.137330433764	-0.509770570133	0.392578125	-0.68603515625	0.59375	13.0625	-5.625	-7.3125
19	03	17	16	02	45	0.247628393155	0.138493671203	-0.506670764501	0.4169921875	-0.74658203125	0.6494140625	9.4375	-7.0625	-8.625
19	03	17	16	02	45	0.247192952829	0.14074739487	-0.50225945897	0.421875	-0.74072265625	0.67724609375	19.3125	-12.75	-7.0
19	03	17	16	02	45	0.245360879332	0.144469950591	-0.497008368258	0.3984375	-0.74609375	0.61572265625	32.3125	-20.75	-6.5
19	03	17	16	02	45	0.242319371233	0.149969444615	-0.490925617841	0.388671875	-0.654296875	0.59033203125	40.3125	-30.0625	-3.75
19	03	17	16	02	45	0.239381387671	0.156067875644	-0.485354613656	0.40576171875	-0.57568359375	0.5751953125	35.6875	-32.9375	-2.9375
19	03	17	16	02	45	0.235968474512	0.161320403035	-0.480360034767	0.39697265625	-0.55224609375	0.603515625	30.1875	-32.5625	1.8125
19	03	17	16	02	45	0.231694830059	0.165775331517	-0.476695632971	0.40380859375	-0.5859375	0.5810546875	24.9375	-31.75	7.625
19	03	17	16	02	45	0.226697941923	0.169260471985	-0.472684130924	0.412109375	-0.6591796875	0.5654296875	31.1875	-27.5625	12.125
19	03	17	16	02	45	0.222904890114	0.17279401531	-0.467843916408	0.47705078125	-0.75830078125	0.54248046875	39.5	-20.1875	4.6875
19	03	17	16	02	45	0.219181742691	0.174686200942	-0.464731213827	0.43212890625	-0.763671875	0.50439453125	29.4375	-15.0	7.3125
19	03	17	16	02	45	0.213813433431	0.176824869155	-0.459854526825	0.44775390625	-0.79296875	0.611328125	39.8125	-19.875	14.3125
19	03	17	16	02	45	0.206914393168	0.179081660636	-0.454601298029	0.43603515625	-0.70361328125	0.5673828125	43.875	-22.25	24.0
19	03	17	16	02	45	0.198739497674	0.180245005108	-0.448933969714	0.4697265625	-0.7001953125	0.6123046875	45.8125	-18.9375	35.625
19	03	17	16	02	45	0.193979713215	0.180246096011	-0.444480891011	0.45068359375	-0.6884765625	0.59423828125	32.6875	-6.4375	20.9375
19	03	17	16	02	45	0.189216417545	0.178656920695	-0.443193679933	0.390625	-0.7109375	0.5966796875	12.9375	-5.5625	23.75
19	03	17	16	02	45	0.184516150547	0.17731373382	-0.442643441536	0.3662109375	-0.76708984375	0.6396484375	8.1875	-10.25	20.375
19	03	17	16	02	45	0.177009094023	0.177436357353	-0.442095471726	0.31787109375	-0.740234375	0.626953125	12.5625	-25.5625	29.5
19	03	17	16	02	45	0.169742515872	0.179630429418	-0.441232882861	0.3740234375	-0.6650390625	0.607421875	13.25	-32.125	27.875
19	03	17	16	02	45	0.161623304352	0.180178245637	-0.440008459621	0.3681640625	-0.6064453125	0.56982421875	15.25	-24.1875	38.25
19	03	17	16	02	45	0.155645127864	0.181647019813	-0.440323118592	0.3203125	-0.48095703125	0.537109375	-0.4375	-26.5	27.1875
19	03	17	16	02	45	0.147827541087	0.180359365778	-0.445252647495	0.3173828125	-0.45068359375	0.568359375	-31.25	-24.5625	48.25
19	03	17	16	02	45	0.141419889226	0.179017926241	-0.45288544586	0.3857421875	-0.7109375	0.5732421875	-42.25	-22.3125	38.875
19	03	17	16	02	45	0.135742053242	0.177306953538	-0.459899447474	0.33056640625	-0.779296875	0.5830078125	-38.9375	-20.0625	31.5
19	03	17	16	02	45	0.127628823688	0.175665114574	-0.464371157636	0.2255859375	-0.6826171875	0.5419921875	-21.4375	-25.875	39.875
19	03	17	16	02	45	0.120850991963	0.1752949742	-0.466130821019	0.34375	-0.765625	0.5673828125	-4.9375	-21.875	32.1875
19	03	17	16	02	45	0.117313192	0.17590875096	-0.469680027285	0.28857421875	-0.70361328125	0.40478515625	-14.6875	-17.875	13.375
19	03	17	16	02	45	0.113345862061	0.175359537803	-0.473403611277	0.25390625	-0.8046875	0.5458984375	-20.375	-19.0	14.625
19	03	17	16	02	45	0.113341454633	0.177000656132	-0.478878326899	0.33203125	-0.8935546875	0.4677734375	-30.5	-17.4375	-8.75
19	03	17	16	02	45	0.111149260655	0.177924269528	-0.482440283481	0.32763671875	-0.92529296875	0.50830078125	-17.0	-18.5625	1.75
19	03	17	16	02	45	0.110965061353	0.181767850776	-0.483106964033	0.48291015625	-0.9267578125	0.484375	0.0	-19.0	-10.375
19	03	17	16	02	45	0.11059642228	0.182923552744	-0.483645723039	0.43212890625	-0.87060546875	0.4423828125	1.25	-6.625	-3.0
19	03	17	16	02	45	0.111143990224	0.185117914524	-0.482600511092	0.3935546875	-0.85546875	0.49951171875	6.6875	-10.375	-13.6875
19	03	17	16	02	45	0.111331602048	0.186590300144	-0.48268109046	0.3740234375	-0.83740234375	0.478515625	0.4375	-9.1875	-9.625
19	03	17	16	02	45	0.11432021068	0.189882635038	-0.478887545648	0.46435546875	-0.7919921875	0.48876953125	19.625	-3.75	-26.0625
19	03	17	16	02	45	0.117858962456	0.192932252887	-0.475952454291	0.427734375	-0.56494140625	0.41552734375	10.1875	-1.4375	-23.0
19	03	17	16	02	45	0.120852989392	0.195562110108	-0.471998064127	0.57373046875	-0.62109375	0.50537109375	14.9375	2.6875	-14.125
19	03	17	16	02	45	0.126891385039	0.198363156026	-0.470944649814	0.5751953125	-0.51708984375	0.4326171875	-7.625	7.875	-25.25
19	03	17	16	02	45	0.129153873373	0.198918938242	-0.470044413441	0.5751953125	-0.5478515625	0.44384765625	-2.75	8.9375	-1.0625
19	03	17	16	02	45	0.132019808722	0.197938159818	-0.469363074006	0.4814453125	-0.59130859375	0.41162109375	-1.875	16.375	-5.8125
19	03	17	16	02	45	0.136290123168	0.197812937388	-0.468440078511	0.51513671875	-0.5146484375	0.50927734375	-9.8125	13.375	-11.3125
19	03	17	16	02	46	0.137884427146	0.195626201417	-0.468587316156	0.41845703125	-0.67431640625	0.525390625	-8.4375	12.3125	-1.8125
19	03	17	16	02	46	0.143315161633	0.196112271859	-0.466323609401	0.55078125	-0.82421875	0.57666015625	4.5	14.25	-28.625
19	03	17	16	02	46	0.145998632094	0.196597656344	-0.463631107603	0.49658203125	-0.69091796875	0.56298828125	7.8125	6.4375	-13.75
19	03	17	16	02	46	0.14715684634	0.199159182749	-0.459476042825	0.7177734375	-0.72216796875	0.6494140625	16.6875	-0.8125	-3.5
19	03	17	16	02	46	0.149535039026	0.201353507652	-0.457088941742	0.77783203125	-0.66845703125	0.568359375	6.75	5.9375	-2.9375
19	03	17	16	02	46	0.150148658294	0.200869607498	-0.454779533719	0.65478515625	-0.8623046875	0.626953125	12.375	9.5625	0.5
19	03	17	16	02	46	0.154361439224	0.202030986094	-0.452952250092	0.5810546875	-0.80712890625	0.54638671875	6.3125	8.9375	-24.0
19	03	17	16	02	46	0.148017421279	0.199533587696	-0.449545693906	0.22021484375	-0.6982421875	0.49658203125	31.5625	-5.8125	24.25
19	03	17	16	02	46	0.149720511635	0.20715508214	-0.444522823579	0.97705078125	-0.87451171875	0.48193359375	38.75	-9.0625	-14.8125
19	03	17	16	02	46	0.156073668218	0.210397314958	-0.444172109356	0.69140625	-0.67529296875	0.29833984375	2.625	13.0625	-31.25
19	03	17	16	02	46	0.148502698992	0.205572170245	-0.441967958653	0.19970703125	-0.630859375	0.47216796875	24.8125	2.0625	38.4375
19	03	17	16	02	46	0.153201377182	0.211857362629	-0.442391865266	0.87890625	-0.66796875	0.43994140625	-5.8125	-5.5	-21.4375
19	03	17	16	02	46	0.154542113516	0.210450713824	-0.447085695697	0.46484375	-0.65771484375	0.39794921875	-27.9375	5.6875	0.625
19	03	17	16	02	46	0.147528627755	0.207101627626	-0.445454665021	0.234375	-0.611328125	0.4267578125	22.25	-2.3125	34.0
19	03	17	16	02	46	0.143865271016	0.21051816705	-0.442582554154	0.541015625	-0.26611328125	0.3447265625	17.3125	-14.5625	24.5
19	03	17	16	02	46	0.145693880611	0.214115682104	-0.445016373495	0.8330078125	-0.615234375	0.5205078125	-21.0625	-6.1875	2.3125
19	03	17	16	02	46	0.149964659644	0.214479370773	-0.451602977903	0.5625	-0.8974609375	0.501953125	-41.6875	0.5625	-21.1875
19	03	17	16	02	46	0.149175771531	0.217049526826	-0.450701267177	0.5556640625	-0.90380859375	0.5283203125	13.0	-13.1875	-8.3125
19	03	17	16	02	46	0.151249931098	0.223029559416	-0.445570822041	0.7763671875	-0.77294921875	0.55810546875	29.9375	-11.375	-21.5
19	03	17	16	02	46	0.150090021006	0.223700661646	-0.442457325039	0.47021484375	-0.6298828125	0.46435546875	21.375	-1.375	1.25
19	03	17	16	02	46	0.152407965235	0.225285462428	-0.438974003192	0.72314453125	-0.8017578125	0.5517578125	20.4375	8.4375	-13.4375
19	03	17	16	02	46	0.156132132366	0.22565304666	-0.440319469464	0.6796875	-0.69287109375	0.39306640625	-8.625	14.3125	-11.375
19	03	17	16	02	46	0.152648600224	0.221435074615	-0.439696327873	0.4970703125	-0.7490234375	0.41455078125	15.6875	18.0625	25.625
19	03	17	16	02	46	0.154976278464	0.220836618938	-0.438377168937	0.56640625	-0.6123046875	0.26708984375	13.5	21.375	-6.5625
19	03	17	16	02	46	0.155031172435	0.216860533725	-0.439214297969	0.40576171875	-0.62451171875	0.2431640625	4.8125	25.875	8.875
19	03	17	16	02	46	0.159309284122	0.217295422021	-0.440267381753	0.7412109375	-0.73046875	0.3759765625	-5.1875	19.3125	-12.6875
19	03	17	16	02	46	0.161558047221	0.213559352938	-0.442438339369	0.2568359375	-0.34375	0.24169921875	-17.625	21.9375	0.625
19	03	17	16	02	46	0.155887480201	0.208623103887	-0.442393287588	0.38623046875	-0.650390625	0.48046875	8.625	10.0625	38.375
19	03	17	16	02	46	0.164738475101	0.213995218119	-0.444287276864	0.9365234375	-0.75146484375	0.3037109375	-12.5625	12.5	-40.0
19	03	17	16	02	46	0.16528859655	0.20770941435	-0.445998439804	0.21875	-0.3837890625	0.646484375	-30.9375	16.4375	13.0
19	03	17	16	02	46	0.164250765243	0.204779382159	-0.445631674856	0.67724609375	-0.7802734375	0.69384765625	-2.5	13.8125	19.3125
19	03	17	16	02	46	0.171330543982	0.207281270881	-0.44672898162	0.77099609375	-0.8037109375	0.63720703125	-19.9375	6.9375	-33.4375
19	03	17	16	02	46	0.167482665592	0.205019779054	-0.448553246879	0.564453125	-0.6279296875	0.8818359375	-26.125	-11.1875	32.75
19	03	17	16	02	46	0.162055808148	0.205820032043	-0.449544642941	0.62646484375	-0.68408203125	0.7822265625	-11.1875	-23.1875	33.0
19	03	17	16	02	46	0.157660160401	0.210701848123	-0.451861466297	0.888671875	-0.75146484375	0.6953125	-13.875	-32.25	27.625
19	03	17	16	02	46	0.155273672057	0.217041343489	-0.455139847693	0.818359375	-0.63720703125	0.56982421875	-21.3125	-35.75	14.4375
19	03	17	16	02	46	0.149602196119	0.219794984995	-0.457595946267	0.63818359375	-0.5615234375	0.6025390625	-16.1875	-31.4375	34.5
19	03	17	16	02	46	0.148072410771	0.226136966986	-0.45764506841	0.75439453125	-0.5478515625	0.57421875	-6.75	-32.1875	7.125
19	03	17	16	02	46	0.143068581592	0.227054233584	-0.46179901379	0.42626953125	-0.46533203125	0.44287109375	-24.375	-25.3125	30.3125
19	03	17	16	02	46	0.138063026817	0.230349187979	-0.462590486405	0.58544921875	-0.5869140625	0.53662109375	-3.8125	-31.125	24.375
19	03	17	16	02	46	0.135928264647	0.230840007586	-0.465403241101	0.39599609375	-0.65771484375	0.4072265625	-13.3125	-13.5625	7.8125
19	03	17	16	02	46	0.130497676994	0.232002652131	-0.464920863267	0.326171875	-0.595703125	0.33203125	14.9375	-20.0625	18.4375
19	03	17	16	02	46	0.124273285322	0.234263688147	-0.464254719136	0.349609375	-0.677734375	0.2685546875	23.0625	-24.75	17.1875
19	03	17	16	02	46	0.121890047081	0.238103692371	-0.46363384959	0.4189453125	-0.77294921875	0.298828125	17.375	-22.375	-6.375
19	03	17	16	02	46	0.121277561399	0.239503347222	-0.465761988443	0.4501953125	-0.87890625	0.2900390625	0.6875	-8.0	-7.8125
19	03	17	16	02	46	0.119751066453	0.240112484927	-0.464966169338	0.341796875	-0.9169921875	0.27294921875	22.8125	-4.875	-10.875
19	03	17	16	02	46	0.117555569083	0.241519930874	-0.46521731441	0.50927734375	-0.89013671875	0.37548828125	11.125	-10.8125	0.6875
19	03	17	16	02	46	0.11633648493	0.241340221098	-0.467360160077	0.55126953125	-0.97509765625	0.34521484375	1.625	-0.1875	2.0625
19	03	17	16	02	46	0.114930909695	0.23962758973	-0.468390759956	0.56787109375	-1.07666015625	0.42919921875	7.8125	6.3125	3.125
19	03	17	16	02	47	0.112794319044	0.239993107403	-0.472112585391	0.48876953125	-0.88134765625	0.43798828125	-15.6875	-13.3125	7.0625
19	03	17	16	02	47	0.108400584652	0.240300169917	-0.478891321608	0.7109375	-0.85888671875	0.6474609375	-43.6875	-24.1875	34.5625
19	03	17	16	02	47	0.105655238484	0.237312286093	-0.48097243169	0.35009765625	-0.8662109375	0.556640625	-12.0625	-3.5625	12.375
19	03	17	16	02	47	0.0869742069733	0.232968805626	-0.488642456862	-0.072265625	-0.240234375	0.22314453125	-21.75	-46.375	99.6875
19	03	17	16	02	47	0.0646373132024	0.234256853703	-0.492378853262	1.0458984375	-0.6220703125	0.65283203125	6.5	-69.25	117.4375
19	03	17	16	02	47	0.0666501222229	0.240721686856	-0.504331465135	0.99755859375	-0.654296875	0.01220703125	-67.25	-15.625	19.3125
19	03	17	16	02	47	0.058778566613	0.236762263647	-0.515395863427	0.47265625	-0.501953125	0.41162109375	-69.125	-16.375	73.3125
19	03	17	16	02	47	0.0534054217131	0.235105925073	-0.524654862909	0.33056640625	-0.611328125	0.251953125	-51.75	-17.9375	41.75
19	03	17	16	02	47	0.048829863501	0.235543054063	-0.529193645692	0.56640625	-0.67529296875	0.5595703125	-40.75	-24.9375	38.0625
19	03	17	16	02	47	0.0513931937233	0.239753521313	-0.535539051934	0.7880859375	-0.7861328125	0.22607421875	-45.0	-10.75	4.125
19	03	17	16	02	47	0.0501094710842	0.237302830177	-0.537532413933	0.310546875	-0.8271484375	0.45458984375	-18.875	-1.125	9.375
19	03	17	16	02	47	0.0482176600944	0.238707934974	-0.538084672648	0.279296875	-0.76708984375	0.35498046875	-6.1875	-18.375	-2.125
19	03	17	16	02	47	0.0462651230946	0.24048098284	-0.538457672745	0.57470703125	-0.90673828125	0.4169921875	-6.0	-15.75	10.25
19	03	17	16	02	47	0.0531644106425	0.245191087888	-0.532315528373	0.72900390625	-1.0556640625	0.40869140625	26.25	7.1875	-45.1875
19	03	17	16	02	47	0.0519422898059	0.242804264216	-0.530775736959	-0.01123046875	-0.7587890625	0.130859375	22.8125	6.0	-13.125
19	03	17	16	02	47	0.0492567630204	0.246466925745	-0.525771693504	0.61865234375	-0.884765625	0.52880859375	24.25	-23.1875	3.125
19	03	17	16	02	47	0.0554831030386	0.250314857603	-0.52492264701	0.634765625	-1.10693359375	0.28857421875	1.75	4.625	-41.375
19	03	17	16	02	47	0.0526730408998	0.250547894431	-0.52203072864	0.38525390625	-0.99609375	0.3603515625	25.875	-8.5625	-1.4375
19	03	17	16	02	47	0.0549326448029	0.254826435613	-0.516427897419	0.69140625	-1.087890625	0.54931640625	24.375	-10.375	-27.125
19	03	17	16	02	47	0.0623797608902	0.257209699013	-0.509902663872	0.814453125	-1.072265625	0.607421875	20.75	16.4375	-40.9375
19	03	17	16	02	47	0.0601215651605	0.253365093382	-0.508561300424	-0.05615234375	-0.76171875	0.2255859375	20.625	6.1875	-7.6875
19	03	17	16	02	47	0.0440679066685	0.252749586585	-0.499883872043	0.26220703125	-0.55322265625	0.6787109375	59.0625	-47.0625	63.125
19	03	17	16	02	47	0.0435195885256	0.263986283833	-0.500139562944	1.23974609375	-0.826171875	0.15771484375	4.0625	-33.5625	12.6875
19	03	17	16	02	47	0.0455320590629	0.266051267366	-0.503721291483	0.6630859375	-0.98095703125	0.26513671875	-18.9375	-1.875	-6.8125
19	03	17	16	02	47	0.0451069510757	0.265453491513	-0.504904870498	0.26708984375	-0.732421875	0.2373046875	-1.75	-1.25	-4.25
19	03	17	16	02	47	0.0392472270145	0.26514767364	-0.507039991927	0.111328125	-0.55810546875	0.08984375	4.5	-17.625	19.0625
19	03	17	16	02	47	0.0397958528287	0.274359445498	-0.507336086982	0.74169921875	-0.6171875	0.3251953125	-13.5	-40.3125	-8.5625
19	03	17	16	02	47	0.0431534008722	0.277109533182	-0.515460354124	0.58837890625	-0.65234375	0.14990234375	-55.0625	-7.0	-1.5625
19	03	17	16	02	47	0.0471821452058	0.280407212258	-0.518759446448	0.623046875	-0.798828125	0.3681640625	-35.1875	-9.1875	-16.75
19	03	17	16	02	47	0.0524922692967	0.282237503754	-0.521138366576	0.58740234375	-0.80517578125	0.4541015625	-35.375	-1.3125	-22.3125
19	03	17	16	02	47	0.054810529991	0.282475648996	-0.521737650739	0.54443359375	-0.783203125	0.45654296875	-18.25	-0.375	-7.625
19	03	17	16	02	47	0.0563953140868	0.28283104489	-0.518971164156	0.61669921875	-0.826171875	0.478515625	5.5	2.25	-7.375
19	03	17	16	02	47	0.0604253227617	0.283571767223	-0.51550734954	0.619140625	-0.80419921875	0.396484375	9.6875	11.125	-20.375
19	03	17	16	02	47	0.0626221783239	0.282043943504	-0.513123443635	0.50830078125	-0.83203125	0.361328125	10.75	15.4375	-11.125
19	03	17	16	02	47	0.0660431547359	0.28297233397	-0.50795853393	0.64599609375	-0.8642578125	0.36669921875	25.8125	13.0625	-22.125
19	03	17	16	02	47	0.067019725855	0.282117643809	-0.504784273972	0.50390625	-0.79345703125	0.25244140625	23.8125	13.9375	-7.6875
19	03	17	16	02	47	0.0670786400242	0.282719072422	-0.501716488625	0.64599609375	-0.79296875	0.31005859375	20.9375	5.0625	-0.5625
19	03	17	16	02	47	0.0691556655771	0.282299164425	-0.499349073333	0.6181640625	-0.8203125	0.28076171875	16.125	15.5	-8.625
19	03	17	16	02	47	0.0707425973549	0.280162659067	-0.498433175151	0.48388671875	-0.7685546875	0.27099609375	8.125	18.4375	-4.4375
19	03	17	16	02	47	0.0714730156053	0.279178115609	-0.498418996954	0.4716796875	-0.751953125	0.23681640625	4.6875	9.75	-2.875
19	03	17	16	02	47	0.0720832002602	0.278078797955	-0.497746399764	0.525390625	-0.8427734375	0.345703125	5.625	8.4375	-2.875
19	03	17	16	02	47	0.0757450527302	0.279603615276	-0.497256200317	0.69140625	-0.82421875	0.30224609375	-0.625	8.4375	-15.75
19	03	17	16	02	47	0.0744637404418	0.276126198163	-0.498479809991	0.34521484375	-0.7607421875	0.2568359375	1.0625	11.9375	8.5625
19	03	17	16	02	47	0.0765996224656	0.27771177866	-0.495669748241	0.68505859375	-0.84521484375	0.4482421875	9.8125	1.6875	-12.8125
19	03	17	16	02	47	0.0783088503875	0.275271173225	-0.497563326858	0.44140625	-0.7685546875	0.27197265625	-9.6875	15.4375	-3.0
19	03	17	16	02	47	0.0764167903712	0.274905130856	-0.496953280513	0.4951171875	-0.77880859375	0.42626953125	3.875	-5.75	7.1875
19	03	17	16	02	47	0.0756863848617	0.275400781045	-0.49776005528	0.55615234375	-0.74267578125	0.3505859375	-4.8125	-4.75	6.0
19	03	17	16	02	47	0.0736092845717	0.274417366032	-0.497442511824	0.439453125	-0.7734375	0.36181640625	6.0	-2.5	7.875
19	03	17	16	02	47	0.073184482637	0.275159005611	-0.496848781206	0.498046875	-0.75	0.39208984375	1.375	-6.3125	-1.75
19	03	17	16	02	47	0.0733059750055	0.275645115008	-0.495563040025	0.5517578125	-0.7998046875	0.46533203125	2.6875	-3.8125	-3.25
19	03	17	16	02	48	0.0737321845198	0.276678801679	-0.494335233796	0.51611328125	-0.8046875	0.39501953125	5.0	-4.3125	-8.4375
19	03	17	16	02	48	0.072754612834	0.277346443555	-0.491887101367	0.533203125	-0.81201171875	0.46337890625	12.875	-6.375	-1.9375
19	03	17	16	02	48	0.0732448666091	0.278391530503	-0.488726372449	0.53955078125	-0.86474609375	0.41552734375	18.625	-1.4375	-12.8125
19	03	17	16	02	48	0.0739146752284	0.278873782922	-0.485175684055	0.57666015625	-0.8125	0.46240234375	17.8125	2.0	-9.3125
19	03	17	16	02	48	0.0747718342643	0.279616141033	-0.481957880287	0.5361328125	-0.78271484375	0.349609375	20.6875	3.625	-11.3125
19	03	17	16	02	48	0.0744627239106	0.279845564861	-0.479002833812	0.5537109375	-0.77587890625	0.40185546875	18.875	1.875	-3.375
19	03	17	16	02	48	0.0759899995447	0.281620769397	-0.477058503166	0.64501953125	-0.802734375	0.35302734375	11.75	1.3125	-11.375
19	03	17	16	02	48	0.0751991654866	0.280104683781	-0.476220689226	0.4267578125	-0.744140625	0.30517578125	11.75	7.25	1.5
19	03	17	16	02	48	0.0753788157343	0.279847668131	-0.474062560169	0.52294921875	-0.73046875	0.33740234375	15.8125	6.375	-3.3125
19	03	17	16	02	48	0.0778825420316	0.280706748278	-0.472910607884	0.6123046875	-0.74609375	0.2666015625	9.25	10.4375	-12.5
19	03	17	16	02	48	0.0801413799055	0.280525348093	-0.471448605019	0.578125	-0.73876953125	0.36669921875	6.6875	10.75	-10.375
19	03	17	16	02	48	0.081909355141	0.278992296833	-0.470582062695	0.5205078125	-0.73291015625	0.41259765625	2.0	13.0	-6.0
19	03	17	16	02	48	0.083740573006	0.277955225561	-0.468812930947	0.6015625	-0.755859375	0.4345703125	7.0625	12.9375	-6.125
19	03	17	16	02	48	0.085940395832	0.277475170065	-0.467239865123	0.66162109375	-0.79638671875	0.42724609375	7.125	13.0625	-7.5625
19	03	17	16	02	48	0.0878933733127	0.27668101474	-0.464614137261	0.6171875	-0.81298828125	0.45361328125	13.3125	13.375	-10.25
19	03	17	16	02	48	0.0885033990727	0.273689132029	-0.461865669505	0.4501953125	-0.78076171875	0.4111328125	19.5	19.125	-4.8125
19	03	17	16	02	48	0.0896024229775	0.272042233795	-0.459059825078	0.5078125	-0.7314453125	0.40380859375	17.6875	15.3125	-6.0625
19	03	17	16	02	48	0.0904575849997	0.270335117384	-0.457537150579	0.5419921875	-0.7158203125	0.36865234375	11.75	15.8125	-0.9375
19	03	17	16	02	48	0.0912496794513	0.26819471004	-0.456187360682	0.52001953125	-0.75146484375	0.369140625	12.0	17.5625	-1.8125
19	03	17	16	02	48	0.0916190515887	0.264663695995	-0.454616053453	0.44873046875	-0.71044921875	0.41455078125	11.4375	20.1875	2.3125
19	03	17	16	02	48	0.0923471178563	0.261599304119	-0.454045082441	0.509765625	-0.734375	0.43603515625	4.1875	18.875	3.0
19	03	17	16	02	48	0.094057748748	0.259528583826	-0.45576197917	0.59521484375	-0.7548828125	0.43212890625	-11.0625	15.625	1.4375
19	03	17	16	02	48	0.0947289209115	0.255804708466	-0.456371225293	0.5302734375	-0.7890625	0.4638671875	-2.625	20.5625	5.9375
19	03	17	16	02	48	0.0954004224395	0.252570024347	-0.454967849561	0.5546875	-0.71630859375	0.42138671875	9.875	23.1875	6.5625
19	03	17	16	02	48	0.0955204244795	0.248108961987	-0.453554168886	0.470703125	-0.63232421875	0.4609375	6.9375	24.6875	11.5625
19	03	17	16	02	48	0.0962533209863	0.243776641737	-0.451725319353	0.4921875	-0.6640625	0.48876953125	8.0625	25.9375	7.625
19	03	17	16	02	48	0.0974127281056	0.239442438821	-0.451724060595	0.4765625	-0.67041015625	0.47607421875	-3.0625	25.0	7.125
19	03	17	16	02	48	0.0982057209758	0.234375368892	-0.450867408855	0.45361328125	-0.71630859375	0.5009765625	3.6875	27.9375	7.5625
19	03	17	16	02	48	0.0997929074332	0.230408700649	-0.448610317819	0.48046875	-0.72314453125	0.4853515625	12.4375	27.6875	0.125
19	03	17	16	02	48	0.101564624312	0.22638412955	-0.446725652245	0.46484375	-0.720703125	0.5302734375	7.5625	26.5	-0.3125
19	03	17	16	02	48	0.102782839566	0.222594427492	-0.444151260999	0.4052734375	-0.73876953125	0.50146484375	15.4375	23.5625	-2.5
19	03	17	16	02	48	0.103515139693	0.219603462628	-0.442624877981	0.3837890625	-0.69140625	0.52734375	6.6875	15.8125	-0.8125
19	03	17	16	02	48	0.102295563236	0.216859269795	-0.439944164561	0.365234375	-0.69140625	0.4794921875	19.625	12.3125	6.75
19	03	17	16	02	48	0.102176129269	0.217109015419	-0.437636109237	0.541015625	-0.73193359375	0.4736328125	17.9375	5.625	1.1875
19	03	17	16	02	48	0.103455586498	0.216982070797	-0.436710750086	0.55712890625	-0.72705078125	0.42431640625	9.25	11.375	-3.125
19	03	17	16	02	48	0.104371231337	0.216066759611	-0.433415271186	0.5224609375	-0.75244140625	0.45361328125	24.625	15.9375	-3.9375
19	03	17	16	02	48	0.107057234624	0.215579334489	-0.431769029494	0.53369140625	-0.7216796875	0.47998046875	9.375	14.9375	-10.9375
19	03	17	16	02	48	0.108093262323	0.214355469948	-0.430175783654	0.49072265625	-0.73193359375	0.5595703125	8.125	11.125	-3.4375
19	03	17	16	02	48	0.107486470134	0.212104192911	-0.428664099802	0.44873046875	-0.73583984375	0.560546875	10.625	11.1875	6.0625
19	03	17	16	02	48	0.105224323418	0.210021401903	-0.426207337835	0.43505859375	-0.65966796875	0.54248046875	17.4375	8.1875	14.5625
19	03	17	16	02	48	0.102419438856	0.208317964729	-0.423410993648	0.47216796875	-0.6591796875	0.57373046875	18.875	6.0	18.5
19	03	17	16	02	48	0.10138441864	0.206248013597	-0.421590716163	0.42431640625	-0.623046875	0.484375	13.375	12.1875	10.1875
19	03	17	16	02	48	0.0994262076759	0.202880733158	-0.420348859585	0.3671875	-0.6103515625	0.54248046875	8.125	12.4375	16.625
19	03	17	16	02	48	0.0991847844816	0.200200672677	-0.41895652965	0.39111328125	-0.7099609375	0.5087890625	12.3125	15.25	4.1875
19	03	17	16	02	48	0.09936823858	0.197393663125	-0.416638572817	0.44140625	-0.76953125	0.5439453125	18.25	19.125	2.125
19	03	17	16	02	48	0.100830693774	0.195008514896	-0.414736419004	0.4052734375	-0.7373046875	0.5556640625	12.5	17.9375	-5.3125
19	03	17	16	02	48	0.0999772498462	0.192141869668	-0.412482450831	0.4052734375	-0.7548828125	0.5576171875	18.8125	16.0	6.875
19	03	17	16	02	48	0.100159411536	0.190980377024	-0.411685088855	0.48876953125	-0.75	0.529296875	10.125	12.0	2.8125
19	03	17	16	02	48	0.100830301808	0.189941827619	-0.410828548106	0.5458984375	-0.76513671875	0.5263671875	10.5	15.0	2.125
19	03	17	16	02	48	0.101871822685	0.188240084578	-0.411149549196	0.48828125	-0.71826171875	0.44482421875	4.625	18.3125	2.0625
19	03	17	16	02	49	0.102725188324	0.186895143582	-0.411572159756	0.4638671875	-0.66357421875	0.52880859375	-2.0625	12.25	2.1875
19	03	17	16	02	49	0.104067700385	0.184697279392	-0.413279999592	0.38623046875	-0.6552734375	0.49609375	-9.6875	14.3125	-0.0625
19	03	17	16	02	49	0.10412401598	0.182064442947	-0.414909179737	0.2822265625	-0.62255859375	0.5244140625	-10.1875	9.0	3.4375
19	03	17	16	02	49	0.103518601774	0.179936814875	-0.417065215754	0.32861328125	-0.66162109375	0.5	-10.125	6.8125	7.3125
19	03	17	16	02	49	0.103333551388	0.177369935224	-0.416691172668	0.36474609375	-0.7119140625	0.5234375	5.9375	13.875	5.0
19	03	17	16	02	49	0.104436640718	0.174569720896	-0.416220603772	0.37841796875	-0.6845703125	0.505859375	4.4375	19.375	0.5625
19	03	17	16	02	49	0.106569036333	0.170717980884	-0.41992839059	0.38134765625	-0.80322265625	0.5927734375	-22.25	20.5625	-2.0
19	03	17	16	02	49	0.108525465114	0.166877739944	-0.423725409909	0.39306640625	-0.95556640625	0.6689453125	-21.0	18.5	-3.8125
19	03	17	16	02	49	0.109379613278	0.162848665305	-0.426470623869	0.35498046875	-0.98876953125	0.6982421875	-13.625	15.875	-1.1875
19	03	17	16	02	49	0.109011490266	0.159183631923	-0.428355340812	0.2890625	-0.97021484375	0.65771484375	-5.625	11.0	1.625
19	03	17	16	02	49	0.10644873976	0.156560216447	-0.427687109803	0.26806640625	-0.8603515625	0.5986328125	11.875	3.8125	10.875
19	03	17	16	02	49	0.104068552178	0.155156750521	-0.427138843487	0.337890625	-0.75	0.5205078125	10.3125	3.125	13.3125
19	03	17	16	02	49	0.105046581132	0.154975752175	-0.427571935402	0.39208984375	-0.7373046875	0.52734375	-0.4375	5.375	-3.125
19	03	17	16	02	49	0.105897695217	0.152346194388	-0.429999575105	0.23193359375	-0.6591796875	0.4970703125	-15.125	9.9375	-1.25
19	03	17	16	02	49	0.10596166064	0.150275120102	-0.431537408253	0.22021484375	-0.64501953125	0.5302734375	-10.6875	5.125	1.3125
19	03	17	16	02	49	0.106144330214	0.148931665165	-0.431840791412	0.2646484375	-0.65966796875	0.53271484375	-2.875	4.9375	-0.3125
19	03	17	16	02	49	0.106386471793	0.147830197752	-0.432443002096	0.2568359375	-0.646484375	0.50830078125	-4.125	3.375	-0.6875
19	03	17	16	02	49	0.106814687511	0.147587379658	-0.434888370581	0.359375	-0.71484375	0.53564453125	-14.625	1.0	0.5625
19	03	17	16	02	49	0.109071338593	0.14740194891	-0.438116434482	0.46533203125	-0.83642578125	0.568359375	-18.75	7.625	-6.3125
19	03	17	16	02	49	0.111699483166	0.147223581091	-0.441121401552	0.40625	-0.83154296875	0.63037109375	-21.6875	4.5	-10.8125
19	03	17	16	02	49	0.111392074306	0.14575576627	-0.441356761263	0.353515625	-0.830078125	0.63330078125	-1.4375	5.0	3.1875
19	03	17	16	02	49	0.109433796649	0.143673818913	-0.438711729119	0.31201171875	-0.81103515625	0.48974609375	25.75	9.3125	10.625
19	03	17	16	02	49	0.109742281852	0.143678159888	-0.43451351752	0.47509765625	-0.68359375	0.64697265625	20.25	8.3125	3.9375
19	03	17	16	02	49	0.112555494803	0.142769686738	-0.437953186124	0.4306640625	-0.69189453125	0.57275390625	-26.6875	11.375	-5.0
19	03	17	16	02	49	0.112610602665	0.140442816657	-0.440737757097	0.32958984375	-0.84375	0.720703125	-22.125	4.875	3.9375
19	03	17	16	02	49	0.110416808775	0.138677163923	-0.442765909815	0.2451171875	-0.7705078125	0.6533203125	-14.1875	-4.0625	11.25
19	03	17	16	02	49	0.105897607833	0.137331191714	-0.438483236122	0.244140625	-0.71826171875	0.74853515625	21.875	-7.4375	20.375
19	03	17	16	02	49	0.102787206167	0.137090299911	-0.435807988142	0.2841796875	-0.63818359375	0.6103515625	14.3125	-6.3125	15.125
19	03	17	16	02	49	0.101871468962	0.13660176605	-0.432450184301	0.35498046875	-0.74658203125	0.68408203125	17.375	2.1875	5.5625
19	03	17	16	02	49	0.105163031237	0.136901148615	-0.434262894516	0.28515625	-0.791015625	0.7353515625	-20.5625	-0.875	-20.625
19	03	17	16	02	49	0.105776662485	0.134830148546	-0.434581556201	0.1806640625	-0.97021484375	0.70849609375	-0.1875	2.8125	-10.6875
19	03	17	16	02	49	0.106693497003	0.136235632329	-0.431901135465	0.33349609375	-0.990234375	0.67626953125	22.375	-4.4375	-15.6875
19	03	17	16	02	49	0.106082875294	0.135808053815	-0.426772994279	0.27783203125	-0.8251953125	0.5908203125	37.25	3.75	-3.3125
19	03	17	16	02	49	0.106383688627	0.136779028234	-0.422116804671	0.30322265625	-0.77978515625	0.603515625	31.4375	-1.1875	-9.25
19	03	17	16	02	49	0.107670728709	0.136846810524	-0.423602526779	0.2587890625	-0.71533203125	0.51953125	-6.6875	-0.0625	-9.75
19	03	17	16	02	49	0.106629082527	0.135743033509	-0.424929406155	0.169921875	-0.74560546875	0.47998046875	-0.625	-1.8125	0.125
19	03	17	16	02	49	0.105041695844	0.135986576607	-0.424744428461	0.2138671875	-0.6669921875	0.46142578125	7.5	-6.625	3.125
19	03	17	16	02	49	0.103393077271	0.136535014083	-0.422422365877	0.265625	-0.6083984375	0.45263671875	19.25	-3.625	5.1875
19	03	17	16	02	49	0.1044941438	0.138430326015	-0.42200497093	0.330078125	-0.6279296875	0.4970703125	3.5	-4.6875	-8.75
19	03	17	16	02	49	0.106386715739	0.138491943782	-0.425729972622	0.24951171875	-0.71044921875	0.5927734375	-26.0	-3.0625	-12.1875
19	03	17	16	02	49	0.10730347813	0.137822101034	-0.428359391078	0.2431640625	-0.87646484375	0.69677734375	-16.5625	-3.3125	-9.75
19	03	17	16	02	49	0.106444954625	0.136107940833	-0.429441915562	0.248046875	-0.912109375	0.658203125	-2.0625	0.5625	0.6875
19	03	17	16	02	49	0.104497572601	0.134894646875	-0.428183686799	0.271484375	-0.91162109375	0.630859375	15.375	-0.25	5.3125
19	03	17	16	02	49	0.102111473671	0.133788613441	-0.42895363835	0.2529296875	-0.82080078125	0.54931640625	3.5	-2.5	9.625
19	03	17	16	02	49	0.100098487625	0.133179817072	-0.430728675103	0.3427734375	-0.83203125	0.57373046875	-4.375	-2.0625	11.875
19	03	17	16	02	49	0.0999765107141	0.13360719289	-0.435367796657	0.39453125	-0.81982421875	0.521484375	-22.5	-2.3125	3.5
19	03	17	16	02	49	0.0982084678626	0.132022943435	-0.437451888857	0.31591796875	-0.7607421875	0.50439453125	-6.8125	3.4375	13.75
19	03	17	16	02	49	0.0957031569087	0.130188031688	-0.437622216222	0.2529296875	-0.603515625	0.43115234375	2.9375	4.0	17.625
19	03	17	16	02	49	0.0939330279598	0.128967178739	-0.437011358149	0.3095703125	-0.4912109375	0.5087890625	-1.0625	4.1875	17.5
19	03	17	16	02	49	0.0938155913973	0.126654100292	-0.440084849691	0.265625	-0.52490234375	0.494140625	-24.625	9.3125	10.875
19	03	17	16	02	50	0.093018960414	0.122987667477	-0.442450422599	0.17138671875	-0.58447265625	0.53857421875	-19.9375	10.375	11.75
19	03	17	16	02	50	0.0906416702486	0.119390644449	-0.442892901901	0.15576171875	-0.61279296875	0.51318359375	-3.6875	8.0625	17.3125
19	03	17	16	02	50	0.0905775612443	0.119264524711	-0.441413020835	0.3369140625	-0.69873046875	0.59375	6.4375	3.4375	3.75
19	03	17	16	02	50	0.0955796135382	0.121152958412	-0.44622129922	0.39111328125	-0.83837890625	0.6162109375	-34.375	1.1875	-24.9375
19	03	17	16	02	50	0.097901840369	0.120790362899	-0.447089140089	0.15185546875	-0.94384765625	0.6708984375	-6.1875	-1.3125	-22.4375
19	03	17	16	02	50	0.0955822224312	0.120118655009	-0.44366997117	0.09619140625	-0.89306640625	0.64404296875	25.75	-8.8125	-1.75
19	03	17	16	02	50	0.0944813573463	0.126158246534	-0.444697138001	0.32666015625	-0.720703125	0.63916015625	-9.4375	-35.375	-7.5
19	03	17	16	02	50	0.0905184560819	0.128178528504	-0.446549578351	0.2724609375	-0.8095703125	0.541015625	-4.375	-22.75	12.75
19	03	17	16	02	50	0.0869148101179	0.12860218042	-0.445987722986	0.2783203125	-0.81689453125	0.4501953125	15.8125	-9.0	14.5625
19	03	17	16	02	50	0.0871580503589	0.128417743666	-0.4479362266	0.2568359375	-0.72265625	0.55322265625	-13.8125	-1.8125	-1.375
19	03	17	16	02	50	0.0872222117486	0.125248410433	-0.451858665903	0.11572265625	-0.7685546875	0.55029296875	-25.0625	5.9375	0.125
19	03	17	16	02	50	0.0850833036952	0.121582454061	-0.455323849043	0.08837890625	-0.70654296875	0.5078125	-20.6875	3.6875	12.4375
19	03	17	16	02	50	0.0816666446624	0.118898821975	-0.453683236006	0.18115234375	-0.716796875	0.6357421875	6.5	0.5625	19.5625
19	03	17	16	02	50	0.0822776658668	0.120669840815	-0.453564788617	0.36083984375	-0.76806640625	0.69140625	-7.0625	-6.9375	-3.8125
19	03	17	16	02	50	0.0825210834029	0.120546700977	-0.453804922412	0.27783203125	-0.80419921875	0.6591796875	-6.4375	-1.5625	-1.8125
19	03	17	16	02	50	0.0814211773384	0.121399341624	-0.451905844838	0.28076171875	-0.76806640625	0.62939453125	9.125	-7.0	2.1875
19	03	17	16	02	50	0.0821532502283	0.124877823155	-0.44927940188	0.42041015625	-0.77099609375	0.61865234375	13.6875	-10.0625	-7.0625
19	03	17	16	02	50	0.0861803755489	0.130125042968	-0.449212155836	0.453125	-0.87744140625	0.640625	-2.9375	-12.6875	-28.75
19	03	17	16	02	50	0.0899671838964	0.134828703682	-0.449896955563	0.32275390625	-0.83740234375	0.5947265625	-6.9375	-16.25	-32.875
19	03	17	16	02	50	0.0897246350103	0.137577773682	-0.447646580385	0.33203125	-0.947265625	0.625	18.8125	-13.8125	-10.8125
19	03	17	16	02	50	0.0922280836453	0.145758215582	-0.442462857938	0.54736328125	-0.94580078125	0.6943359375	32.0	-25.875	-30.5625
19	03	17	16	02	50	0.091371818469	0.146060628989	-0.442088230575	0.361328125	-0.9013671875	0.5576171875	9.6875	-2.0625	0.8125
19	03	17	16	02	50	0.09357039396	0.150762474286	-0.44148379616	0.49462890625	-0.890625	0.5595703125	7.9375	-12.5	-19.6875
19	03	17	16	02	50	0.094177704291	0.150818604863	-0.445863985642	0.5283203125	-0.93994140625	0.42041015625	-14.0	7.4375	4.5625
19	03	17	16	02	50	0.0961926610053	0.153749564132	-0.448370106437	0.52978515625	-0.90087890625	0.650390625	-17.6875	-8.4375	-11.125
19	03	17	16	02	50	0.0947900960176	0.150272515387	-0.453014869699	0.35546875	-0.7724609375	0.49267578125	-25.0625	11.4375	19.5
19	03	17	16	02	50	0.0934477173138	0.149235577291	-0.455153251475	0.44091796875	-0.8212890625	0.50439453125	-8.125	4.1875	14.375
19	03	17	16	02	50	0.0935053542912	0.149291185768	-0.4575170599	0.5087890625	-0.74169921875	0.5576171875	-17.375	3.3125	10.75
19	03	17	16	02	50	0.0926551956919	0.146368352615	-0.460407207579	0.3701171875	-0.67333984375	0.453125	-17.25	13.0	17.6875
19	03	17	16	02	50	0.0921620509738	0.144590661428	-0.462763357936	0.38623046875	-0.693359375	0.576171875	-20.25	6.3125	13.4375
19	03	17	16	02	50	0.0920453893648	0.142035557727	-0.465537257749	0.3681640625	-0.72265625	0.49951171875	-18.625	12.0	12.5
19	03	17	16	02	50	0.0894770969038	0.139159468582	-0.464597313528	0.31005859375	-0.705078125	0.46728515625	8.875	9.9375	21.25
19	03	17	16	02	50	0.0880765626023	0.137821814523	-0.463027584131	0.41796875	-0.69580078125	0.509765625	9.5625	8.625	17.0625
19	03	17	16	02	50	0.0886236304148	0.136048259087	-0.463259886259	0.40234375	-0.65234375	0.453125	-2.875	15.3125	9.8125
19	03	17	16	02	50	0.0885607366086	0.132444382109	-0.465264297152	0.275390625	-0.61962890625	0.455078125	-15.0625	16.625	12.8125
19	03	17	16	02	50	0.088444528732	0.12836359139	-0.467004202435	0.2412109375	-0.72998046875	0.58984375	-17.125	15.0625	10.1875
19	03	17	16	02	50	0.0895420305716	0.124272375081	-0.471087520076	0.1533203125	-0.86767578125	0.5166015625	-24.875	14.8125	-2.0
19	03	17	16	02	50	0.0897200610104	0.121518803722	-0.472647722765	0.10302734375	-0.88134765625	0.5498046875	-8.9375	5.3125	-5.1875
19	03	17	16	02	50	0.0886826300734	0.120786596638	-0.471794033357	0.16748046875	-0.787109375	0.52392578125	6.0625	-3.0	-0.0625
19	03	17	16	02	50	0.0881345893136	0.121093507755	-0.471007358541	0.30419921875	-0.7958984375	0.52783203125	5.25	-1.8125	2.5
19	03	17	16	02	50	0.0909421422748	0.121947919641	-0.472166719891	0.30126953125	-0.82177734375	0.57080078125	-11.8125	1.125	-16.1875
19	03	17	16	02	50	0.0917370041831	0.119996640202	-0.473272608407	0.08642578125	-0.83447265625	0.564453125	-9.25	2.3125	-10.875
19	03	17	16	02	50	0.0914940120297	0.119143636746	-0.472057831246	0.0869140625	-0.861328125	0.59619140625	6.125	-4.375	-9.8125
19	03	17	16	02	50	0.0922880674211	0.120792384541	-0.468764786901	0.22509765625	-0.8369140625	0.568359375	20.5625	-6.6875	-14.625
19	03	17	16	02	50	0.0933244040914	0.122133507251	-0.466072694337	0.23828125	-0.75830078125	0.52685546875	15.4375	-3.875	-12.8125
19	03	17	16	02	50	0.093446302325	0.122987785229	-0.464912139001	0.181640625	-0.7236328125	0.54736328125	4.5625	-7.8125	-8.6875
19	03	17	16	02	50	0.0935707284463	0.124211632347	-0.465778361888	0.2431640625	-0.79248046875	0.541015625	-5.6875	-9.0	-7.25
19	03	17	16	02	50	0.0928970066465	0.123476113302	-0.466377153604	0.16845703125	-0.79248046875	0.52978515625	-2.8125	-3.375	-1.75
19	03	17	16	02	50	0.092652607348	0.123719917717	-0.465338259829	0.17529296875	-0.83837890625	0.587890625	5.6875	-7.0	-7.875
19	03	17	16	02	50	0.0936929053377	0.125859785542	-0.466450281818	0.24462890625	-0.82470703125	0.5380859375	-6.625	-11.625	-15.0
19	03	17	16	02	51	0.0929597236335	0.126041910245	-0.466446623774	0.1591796875	-0.810546875	0.56982421875	-0.4375	-9.25	-5.1875
19	03	17	16	02	51	0.0914314467846	0.125367284176	-0.465946371665	0.1572265625	-0.8046875	0.61083984375	0.9375	-7.25	0.8125
19	03	17	16	02	51	0.0901507839912	0.124758430926	-0.467477897487	0.228515625	-0.8212890625	0.59814453125	-11.375	-5.8125	4.125
19	03	17	16	02	51	0.0904558171143	0.126345169654	-0.468697853995	0.3046875	-0.9736328125	0.65185546875	-8.0625	-11.0625	-9.625
19	03	17	16	02	51	0.0903960024206	0.128483176972	-0.469802856604	0.29638671875	-0.88232421875	0.61376953125	-8.375	-14.3125	-7.3125
19	03	17	16	02	51	0.0874041876761	0.129153115309	-0.46918714432	0.20947265625	-0.75732421875	0.5380859375	5.1875	-14.5	8.0625
19	03	17	16	02	51	0.0856951629367	0.131533530006	-0.466684626648	0.294921875	-0.75927734375	0.59228515625	13.3125	-16.3125	0.75
19	03	17	16	02	51	0.0849634709126	0.13293853423	-0.467543237924	0.28466796875	-0.68115234375	0.51708984375	-8.0625	-10.625	1.0625
19	03	17	16	02	51	0.0840471668227	0.13507362395	-0.468698761098	0.259765625	-0.76220703125	0.52685546875	-7.8125	-16.375	-3.0
19	03	17	16	02	51	0.0824610226269	0.136600865018	-0.469313695765	0.3125	-0.76708984375	0.54736328125	-4.625	-13.0	4.5625
19	03	17	16	02	51	0.0814217260491	0.138734320322	-0.468449585777	0.3125	-0.70166015625	0.4912109375	5.1875	-12.4375	0.6875
19	03	17	16	02	51	0.0786765238663	0.138309544671	-0.467542414908	0.2861328125	-0.681640625	0.57421875	1.9375	-6.3125	15.25
19	03	17	16	02	51	0.0800770579512	0.139402439299	-0.47100202455	0.3291015625	-0.77099609375	0.55517578125	-26.875	-5.5	-6.9375
19	03	17	16	02	51	0.0803846390618	0.13836900285	-0.47266411913	0.2001953125	-0.91162109375	0.6240234375	-13.1875	-2.0	-6.8125
19	03	17	16	02	51	0.0805649659491	0.138852498132	-0.472098493649	0.21240234375	-0.86474609375	0.5927734375	1.75	-7.0	-10.25
19	03	17	16	02	51	0.0786131629359	0.138549596168	-0.469115504911	0.26025390625	-0.78662109375	0.6162109375	15.5	-5.0	6.125
19	03	17	16	02	51	0.0787352005072	0.138183328642	-0.469542556203	0.29931640625	-0.798828125	0.587890625	-6.3125	-0.3125	-0.3125
19	03	17	16	02	51	0.0798957216547	0.137696522577	-0.472172118198	0.32666015625	-0.89111328125	0.576171875	-18.4375	2.1875	-4.375
19	03	17	16	02	51	0.0806879724811	0.137267208858	-0.473751923146	0.3193359375	-0.95458984375	0.5869140625	-9.5	1.5	-4.875
19	03	17	16	02	51	0.0797131029285	0.136720789096	-0.475043706043	0.20849609375	-0.7900390625	0.5107421875	-7.625	-4.75	1.125
19	03	17	16	02	51	0.078187615903	0.139162969757	-0.474802079711	0.3486328125	-0.81103515625	0.56005859375	0.5	-16.125	2.5
19	03	17	16	02	51	0.0771500024424	0.139773343032	-0.477121494535	0.29296875	-0.65625	0.42626953125	-14.375	-6.8125	6.75
19	03	17	16	02	51	0.0750123470322	0.140320086108	-0.477662024308	0.26953125	-0.73828125	0.52880859375	-5.0625	-11.25	8.5
19	03	17	16	02	51	0.0759280356151	0.142517655274	-0.480165479247	0.37060546875	-0.80224609375	0.5107421875	-18.1875	-9.4375	-6.5
19	03	17	16	02	51	0.0758704196916	0.142951345871	-0.481835151283	0.21337890625	-0.75830078125	0.4384765625	-9.4375	-6.3125	-5.0
19	03	17	16	02	51	0.0735477038473	0.143921564873	-0.479677514138	0.228515625	-0.75537109375	0.541015625	12.375	-13.4375	3.75
19	03	17	16	02	51	0.0725126170441	0.14618494766	-0.479755193574	0.318359375	-0.71728515625	0.470703125	-1.375	-13.8125	0.625
19	03	17	16	02	51	0.0714721686344	0.148254395912	-0.480651859945	0.37841796875	-0.83056640625	0.47216796875	-2.625	-11.75	2.375
19	03	17	16	02	51	0.0720854253175	0.148870747121	-0.480854344328	0.30859375	-0.845703125	0.42236328125	3.0625	-0.6875	-6.625
19	03	17	16	02	51	0.0711669913921	0.148254392874	-0.479492182141	0.22607421875	-0.83251953125	0.5166015625	9.75	-2.0625	-0.5625
19	03	17	16	02	51	0.0711054766575	0.150206504767	-0.479672052405	0.3798828125	-0.85888671875	0.51123046875	-0.25	-8.6875	-3.4375
19	03	17	16	02	51	0.0698868541586	0.150394068687	-0.479197984279	0.39208984375	-0.865234375	0.50537109375	5.625	-1.8125	7.6875
19	03	17	16	02	51	0.0700709642885	0.151800076817	-0.479693125735	0.43798828125	-0.861328125	0.470703125	-0.1875	-2.875	0.375
19	03	17	16	02	51	0.0691515434802	0.151913673188	-0.480642899299	0.37646484375	-0.796875	0.48876953125	-5.3125	-1.9375	7.6875
19	03	17	16	02	51	0.068789233072	0.153509246829	-0.483477830668	0.41552734375	-0.8291015625	0.53955078125	-20.625	-9.75	3.625
19	03	17	16	02	51	0.0681779554891	0.154117580671	-0.486523261597	0.3876953125	-0.8525390625	0.48828125	-18.375	-5.8125	5.875
19	03	17	16	02	51	0.0679333150619	0.156496873152	-0.487313196275	0.4248046875	-0.87890625	0.49462890625	-4.0625	-10.875	-1.6875
19	03	17	16	02	51	0.0670175256844	0.1591818825	-0.489996991069	0.4072265625	-0.7392578125	0.4130859375	-16.25	-14.875	4.375
19	03	17	16	02	51	0.0654921161465	0.16308940759	-0.492197972605	0.54296875	-0.8701171875	0.5419921875	-16.125	-21.5	8.1875
19	03	17	16	02	51	0.0657336501721	0.166561867521	-0.496633901068	0.5029296875	-0.80908203125	0.43798828125	-29.375	-15.75	1.25
19	03	17	16	02	51	0.0634770230277	0.169923107797	-0.50073605473	0.4208984375	-0.85986328125	0.513671875	-28.1875	-26.6875	7.5625
19	03	17	16	02	51	0.062075433562	0.17493430933	-0.505392910416	0.5029296875	-0.8720703125	0.458984375	-30.6875	-30.125	3.0
19	03	17	16	02	51	0.0585947588012	0.176882928131	-0.5083095326	0.3642578125	-0.78564453125	0.388671875	-15.1875	-21.375	15.125
19	03	17	16	02	51	0.054993036857	0.180176964264	-0.509585865393	0.41015625	-0.74755859375	0.41943359375	-7.6875	-26.375	13.6875
19	03	17	16	02	51	0.0527954845008	0.183532973288	-0.512634999216	0.4375	-0.70654296875	0.31787109375	-17.25	-21.75	11.0
19	03	17	16	02	51	0.0505395532372	0.185922076281	-0.516992772849	0.40478515625	-0.76220703125	0.337890625	-25.625	-19.875	12.125
19	03	17	16	02	51	0.0485232099701	0.187562043067	-0.520571645076	0.36865234375	-0.81005859375	0.30126953125	-17.625	-15.3125	9.1875
19	03	17	16	02	51	0.0459587755809	0.18810749846	-0.520927157481	0.31396484375	-0.7958984375	0.32275390625	2.8125	-10.0625	9.4375
19	03	17	16	02	51	0.0438853804779	0.188969593824	-0.520642970065	0.2705078125	-0.716796875	0.2841796875	6.5	-10.0	5.0625
19	03	17	16	02	51	0.0421758474393	0.189882867415	-0.521247087021	0.3388671875	-0.763671875	0.32373046875	-0.8125	-9.375	6.75
19	03	17	16	02	51	0.0427849434762	0.191158977129	-0.521353762017	0.39013671875	-0.89208984375	0.34765625	1.0625	-3.0	-6.125
19	03	17	16	02	52	0.0432752884557	0.191778499757	-0.519364498547	0.40234375	-0.9130859375	0.4609375	9.5	-0.8125	-5.4375
19	03	17	16	02	52	0.0439459859326	0.19360648247	-0.517769164815	0.41943359375	-0.89306640625	0.4130859375	8.875	-5.0	-8.3125
19	03	17	16	02	52	0.0431522851684	0.195192373364	-0.51508081264	0.44580078125	-0.84765625	0.44482421875	15.0625	-6.875	0.875
19	03	17	16	02	52	0.042298377044	0.197392426205	-0.512707600534	0.4482421875	-0.77685546875	0.4267578125	12.3125	-9.875	1.0625
19	03	17	16	02	52	0.0408940542207	0.199526363056	-0.511114641857	0.46728515625	-0.755859375	0.42724609375	7.0625	-11.5625	6.3125
19	03	17	16	02	52	0.0402837063829	0.201906819264	-0.510626496362	0.4599609375	-0.73486328125	0.39404296875	0.1875	-11.3125	2.75
19	03	17	16	02	52	0.0386960073148	0.202757312776	-0.509639843973	0.34130859375	-0.68701171875	0.3720703125	5.5	-8.1875	6.0
19	03	17	16	02	52	0.0374761101744	0.204043381617	-0.508185819727	0.328125	-0.68896484375	0.38037109375	7.375	-9.75	1.5625
19	03	17	16	02	52	0.0364381525982	0.205628368682	-0.505922691602	0.38427734375	-0.75927734375	0.47802734375	9.125	-10.6875	-0.125
19	03	17	16	02	52	0.0352790821247	0.207707121921	-0.503001584411	0.38916015625	-0.79931640625	0.45361328125	16.0	-12.3125	-2.6875
19	03	17	16	02	52	0.0317997393821	0.208193687202	-0.498541787473	0.337890625	-0.7958984375	0.4599609375	29.75	-10.6875	9.0
19	03	17	16	02	52	0.0289925985434	0.210760932148	-0.493667656882	0.462890625	-0.79931640625	0.46875	30.8125	-15.6875	5.75
19	03	17	16	02	52	0.0261850281063	0.211250308335	-0.491411797864	0.40478515625	-0.83056640625	0.42919921875	18.125	-7.5625	10.875
19	03	17	16	02	52	0.0239261474956	0.212466631204	-0.488715977033	0.41162109375	-0.88916015625	0.39111328125	24.3125	-8.5625	4.0625
19	03	17	16	02	52	0.0219726956221	0.2131961828	-0.486390031702	0.38427734375	-0.86767578125	0.3271484375	24.9375	-4.125	3.4375
19	03	17	16	02	52	0.0203859607164	0.214113623333	-0.483159476142	0.357421875	-0.83447265625	0.29541015625	31.375	-3.125	-0.6875
19	03	17	16	02	52	0.0197145088902	0.214967493224	-0.48022834659	0.36865234375	-0.77783203125	0.31103515625	25.875	-1.0	-2.4375
19	03	17	16	02	52	0.0208743540885	0.215823731161	-0.478156988098	0.35986328125	-0.755859375	0.30859375	17.625	3.3125	-10.875
19	03	17	16	02	52	0.0224004935831	0.214910457509	-0.476086784599	0.30712890625	-0.71337890625	0.3408203125	15.4375	11.25	-9.375
19	03	17	16	02	52	0.0241710580345	0.214609697094	-0.47347196256	0.3466796875	-0.73095703125	0.36572265625	17.6875	9.375	-11.4375
19	03	17	16	02	52	0.0272224605171	0.214483691159	-0.469740036187	0.37255859375	-0.71533203125	0.443359375	18.5625	12.1875	-17.9375
19	03	17	16	02	52	0.0291754393177	0.213688730233	-0.466196664244	0.294921875	-0.68798828125	0.392578125	21.4375	10.9375	-14.25
19	03	17	16	02	52	0.0327761585181	0.214662475806	-0.461002467946	0.51708984375	-0.74609375	0.513671875	25.0625	11.9375	-18.75
19	03	17	16	02	52	0.0397967173495	0.21552486037	-0.455159695207	0.6748046875	-0.8037109375	0.44873046875	30.6875	28.8125	-30.25
19	03	17	16	02	52	0.0417499003731	0.210031297052	-0.450337375662	0.3251953125	-0.66845703125	0.45947265625	29.3125	36.6875	-1.8125
19	03	17	16	02	52	0.0397955319281	0.202945005615	-0.444586893503	0.26123046875	-0.65087890625	0.37939453125	45.0	36.6875	18.25
19	03	17	16	02	52	0.038635518088	0.199342183373	-0.434329141728	0.38623046875	-0.44091796875	0.5791015625	53.375	23.0625	13.0625
19	03	17	16	02	52	0.0377811352597	0.197328611138	-0.430485213225	0.56201171875	-0.59423828125	0.6142578125	16.8125	16.9375	18.75
19	03	17	16	02	52	0.0396735165733	0.192935362905	-0.430671281448	0.55615234375	-0.90673828125	0.5810546875	3.0625	34.25	6.9375
19	03	17	16	02	52	0.0429687869765	0.187317055726	-0.426086792447	0.39892578125	-0.9521484375	0.53369140625	36.5625	43.1875	-11.0
19	03	17	16	02	52	0.0433975239676	0.181585982846	-0.417189980758	0.33740234375	-0.8505859375	0.5498046875	63.25	38.3125	-0.75
19	03	17	16	02	52	0.0415034444254	0.175413087174	-0.406794789846	0.2578125	-0.599609375	0.517578125	67.5625	34.0625	13.375
19	03	17	16	02	52	0.0394906997738	0.169254575692	-0.399362671747	0.28173828125	-0.4892578125	0.580078125	41.9375	32.0625	20.8125
19	03	17	16	02	52	0.0404057036345	0.164430461618	-0.400761102815	0.4462890625	-0.74853515625	0.66845703125	-8.9375	30.9375	12.5
19	03	17	16	02	52	0.0415656680189	0.158999361511	-0.403632544213	0.41650390625	-1.02880859375	0.6015625	-3.0	34.375	6.8125
19	03	17	16	02	52	0.040100660026	0.154482146919	-0.400762456212	0.4287109375	-1.01513671875	0.67431640625	31.375	26.875	15.125
19	03	17	16	02	52	0.0374156701928	0.150517198524	-0.394604091022	0.37060546875	-0.89599609375	0.5986328125	51.9375	23.125	17.5625
19	03	17	16	02	52	0.0338758585874	0.148870665035	-0.388321103302	0.455078125	-0.779296875	0.62060546875	48.125	12.4375	23.5
19	03	17	16	02	52	0.0329605892501	0.146979812804	-0.38551681797	0.451171875	-0.7939453125	0.5947265625	25.9375	18.375	12.375
19	03	17	16	02	52	0.0341189896772	0.145082000828	-0.384342178886	0.47607421875	-0.86962890625	0.5859375	18.625	23.625	2.75
19	03	17	16	02	52	0.0352784740115	0.142822887867	-0.384950407596	0.41943359375	-0.89306640625	0.607421875	7.75	21.5625	1.875
19	03	17	16	02	52	0.0346076181194	0.139651199748	-0.384407017489	0.30322265625	-0.89794921875	0.60791015625	16.9375	18.0	7.0
19	03	17	16	02	52	0.0341199821614	0.137883791955	-0.383742983629	0.3994140625	-0.89208984375	0.6474609375	14.875	14.8125	8.0625
19	03	17	16	02	52	0.0341802841805	0.136110774505	-0.382819182822	0.412109375	-0.8759765625	0.62841796875	16.6875	17.1875	6.0
19	03	17	16	02	52	0.034424738015	0.134586076814	-0.382151214029	0.37451171875	-0.853515625	0.57373046875	16.75	15.875	3.5
19	03	17	16	02	52	0.0357053759988	0.132628687257	-0.382932528233	0.31787109375	-0.8564453125	0.587890625	6.1875	16.625	-2.8125
19	03	17	16	02	52	0.0361955192917	0.132940709978	-0.384844433615	0.38330078125	-0.84716796875	0.609375	-2.1875	4.8125	0.625
19	03	17	16	02	52	0.0372325239439	0.133365680029	-0.385936473602	0.3583984375	-0.83056640625	0.5732421875	3.5	5.5	-4.0625
19	03	17	16	02	52	0.0388204125612	0.134955868196	-0.386617127614	0.3642578125	-0.7783203125	0.63134765625	-0.4375	-0.6875	-8.6875
19	03	17	16	02	53	0.0405275320185	0.135193499128	-0.388185397045	0.279296875	-0.8125	0.6220703125	-3.625	2.4375	-10.75
19	03	17	16	02	53	0.0418722642385	0.134162152764	-0.390156724508	0.1865234375	-0.80078125	0.6025390625	-5.875	4.125	-9.875
19	03	17	16	02	53	0.0411987118213	0.1326293345	-0.393127263468	0.18359375	-0.767578125	0.5546875	-9.6875	2.625	3.375
19	03	17	16	02	53	0.0415056773132	0.133916847096	-0.396501293863	0.388671875	-0.830078125	0.62451171875	-14.5625	-2.3125	1.0
19	03	17	16	02	53	0.0428468069821	0.132141505864	-0.399537319807	0.17041015625	-0.7705078125	0.5576171875	-12.6875	7.5625	-7.125
19	03	17	16	02	53	0.0409562858158	0.128911588141	-0.401261733164	0.12060546875	-0.681640625	0.5869140625	-7.5	6.4375	11.875
19	03	17	16	02	53	0.0407735937742	0.129889532263	-0.403280140818	0.44384765625	-0.7041015625	0.62744140625	-12.75	1.5625	8.9375
19	03	17	16	02	53	0.0411999351644	0.1289710563	-0.405895657545	0.205078125	-0.6962890625	0.53564453125	-12.375	3.4375	-1.0
19	03	17	16	02	53	0.0402846180277	0.128788703089	-0.40711879128	0.23291015625	-0.65234375	0.548828125	-5.6875	-1.75	5.5625
19	03	17	16	02	53	0.0416254763194	0.130369527006	-0.40819821939	0.36279296875	-0.67626953125	0.55615234375	-6.5	-0.375	-4.125
19	03	17	16	02	53	0.0422970795794	0.130126080322	-0.409543151483	0.19580078125	-0.68798828125	0.57861328125	-8.125	0.0625	-5.25
19	03	17	16	02	53	0.043273868875	0.130492992461	-0.41052192109	0.25146484375	-0.7353515625	0.63134765625	-6.875	-1.4375	-6.5625
19	03	17	16	02	53	0.0451059843924	0.131289543204	-0.411630255402	0.2783203125	-0.77197265625	0.67236328125	-8.875	-1.1875	-11.0
19	03	17	16	02	53	0.046692421668	0.131043959897	-0.411686776667	0.25146484375	-0.83154296875	0.693359375	-1.0625	2.4375	-10.9375
19	03	17	16	02	53	0.0485857605218	0.12994859818	-0.410293319382	0.20703125	-0.8330078125	0.708984375	7.8125	6.5	-13.625
19	03	17	16	02	53	0.0496826389347	0.129882869353	-0.409179866607	0.2666015625	-0.82080078125	0.67578125	7.875	2.5	-8.25
19	03	17	16	02	53	0.0508442491822	0.130376129956	-0.409073418991	0.322265625	-0.849609375	0.615234375	5.9375	2.5	-7.375
19	03	17	16	02	53	0.0519414951739	0.130189435025	-0.409184234602	0.26318359375	-0.82080078125	0.53076171875	7.625	4.625	-7.9375
19	03	17	16	02	53	0.0524901766904	0.130981301369	-0.410094764166	0.22900390625	-0.76318359375	0.51416015625	1.3125	-3.5	-7.375
19	03	17	16	02	53	0.0536507013078	0.132936549998	-0.412359656468	0.314453125	-0.75927734375	0.5263671875	-8.875	-5.8125	-8.4375
19	03	17	16	02	53	0.0557264557738	0.134341652966	-0.415720580806	0.24267578125	-0.7763671875	0.5751953125	-18.5625	-6.0	-15.0625
19	03	17	16	02	53	0.0573729662985	0.135680961789	-0.418395408485	0.2119140625	-0.7685546875	0.58154296875	-15.4375	-7.875	-15.0625
19	03	17	16	02	53	0.0585930914642	0.136656178946	-0.420405431255	0.15087890625	-0.76123046875	0.61865234375	-13.1875	-9.8125	-15.0625
19	03	17	16	02	53	0.0601213514803	0.139225180433	-0.422253309178	0.28369140625	-0.78857421875	0.6787109375	-14.6875	-13.625	-15.25
19	03	17	16	02	53	0.062319723918	0.14099761239	-0.422992837171	0.24609375	-0.81396484375	0.73193359375	-10.5625	-9.9375	-19.625
19	03	17	16	02	53	0.0634163684975	0.141176188965	-0.422185775647	0.13427734375	-0.8408203125	0.7080078125	2.8125	-7.3125	-17.875
19	03	17	16	02	53	0.0632947494166	0.143130363917	-0.421273250216	0.24169921875	-0.84765625	0.65576171875	8.0625	-13.8125	-10.75
19	03	17	16	02	53	0.0621362388163	0.14533043676	-0.41987739373	0.2548828125	-0.82861328125	0.60791015625	13.6875	-15.6875	-5.625
19	03	17	16	02	53	0.0609138624689	0.147706961097	-0.417974078344	0.24755859375	-0.80419921875	0.53173828125	19.875	-15.0625	-5.9375
19	03	17	16	02	53	0.0609750002825	0.151125225925	-0.416082659586	0.3291015625	-0.76904296875	0.51416015625	18.25	-14.125	-10.5
19	03	17	16	02	53	0.061463794271	0.155154880871	-0.414377059887	0.35888671875	-0.70556640625	0.56494140625	11.1875	-16.4375	-11.4375
19	03	17	16	02	53	0.0629290420796	0.158207640223	-0.414440539011	0.35107421875	-0.68505859375	0.5908203125	-2.625	-11.875	-13.375
19	03	17	16	02	53	0.0650631851021	0.160033462793	-0.415708586989	0.31005859375	-0.796875	0.625	-8.4375	-7.3125	-17.875
19	03	17	16	02	53	0.0665910813218	0.161259062193	-0.415721223541	0.27685546875	-0.87060546875	0.615234375	3.9375	-6.3125	-17.875
19	03	17	16	02	53	0.0664689744156	0.161686238041	-0.41254710567	0.201171875	-0.81201171875	0.6171875	23.25	-6.3125	-12.125
19	03	17	16	02	53	0.0646395451805	0.161446267235	-0.406881216405	0.16552734375	-0.7412109375	0.576171875	40.5625	-5.125	-3.9375
19	03	17	16	02	53	0.0630497107684	0.162476602193	-0.401247626904	0.24853515625	-0.6953125	0.5380859375	40.4375	-6.75	-3.125
19	03	17	16	02	53	0.0619534321867	0.16345940039	-0.398882442699	0.31396484375	-0.6611328125	0.4716796875	21.9375	-3.1875	1.0625
19	03	17	16	02	53	0.0611573358065	0.162964158287	-0.398743388048	0.29150390625	-0.65673828125	0.47802734375	7.25	2.25	3.4375
19	03	17	16	02	53	0.0606101958773	0.162359638503	-0.40010053774	0.3310546875	-0.611328125	0.4921875	-5.25	3.8125	6.875
19	03	17	16	02	53	0.0603632350163	0.160887247222	-0.403011568061	0.32666015625	-0.56787109375	0.578125	-21.3125	5.625	10.0
19	03	17	16	02	53	0.0606699374052	0.159182290496	-0.405219028605	0.3212890625	-0.61572265625	0.6689453125	-20.5625	6.3125	5.4375
19	03	17	16	02	53	0.0609158633882	0.157905148883	-0.40535295467	0.33056640625	-0.6796875	0.6591796875	-4.125	6.0625	2.5
19	03	17	16	02	53	0.0609757713786	0.157963259587	-0.402232565951	0.3837890625	-0.67529296875	0.6923828125	14.8125	2.875	0.5
19	03	17	16	02	53	0.061158838968	0.158390406309	-0.397776600354	0.3896484375	-0.64306640625	0.65869140625	23.5625	3.375	-1.375
19	03	17	16	02	53	0.0614614696749	0.158872100858	-0.393304578535	0.36083984375	-0.6181640625	0.63623046875	24.0	2.8125	-2.9375
19	03	17	16	02	53	0.0620138425492	0.159124101896	-0.390760452756	0.36865234375	-0.62890625	0.6142578125	13.9375	3.8125	-2.5625
19	03	17	16	02	53	0.0612805130898	0.159915283163	-0.388740625367	0.34716796875	-0.65771484375	0.603515625	13.9375	-2.75	1.5
19	03	17	16	02	53	0.0589613072852	0.16125856506	-0.388253494453	0.35107421875	-0.658203125	0.56103515625	8.25	-9.1875	9.8125
19	03	17	16	02	53	0.056580834092	0.162112939966	-0.388680422328	0.42578125	-0.6279296875	0.548828125	1.5625	-4.0	16.375
19	03	17	16	02	54	0.0546285580575	0.161627286856	-0.391250343183	0.3759765625	-0.56787109375	0.5966796875	-17.0	-0.4375	18.5
19	03	17	16	02	54	0.0535915480752	0.160286338548	-0.395283445712	0.31103515625	-0.6650390625	0.5927734375	-22.8125	2.0	11.1875
19	03	17	16	02	54	0.0520032978041	0.158085142386	-0.398508839628	0.2177734375	-0.6826171875	0.64990234375	-20.0625	0.8125	11.0625
19	03	17	16	02	54	0.0495016223123	0.155951473499	-0.398942790916	0.216796875	-0.7177734375	0.71484375	-3.125	-1.3125	12.875
19	03	17	16	02	54	0.0483414989498	0.155339791449	-0.398512180105	0.28564453125	-0.67822265625	0.6875	-0.0625	-1.5625	6.0625
19	03	17	16	02	54	0.0477287921798	0.154660817626	-0.397149936975	0.2978515625	-0.72998046875	0.6904296875	7.6875	0.8125	2.0
19	03	17	16	02	54	0.0475484316598	0.154181435652	-0.394731331892	0.26171875	-0.7021484375	0.7490234375	10.0	-1.0625	-2.75
19	03	17	16	02	54	0.0474854653075	0.153442750364	-0.391175253414	0.22705078125	-0.72705078125	0.66943359375	22.25	1.5625	-5.6875
19	03	17	16	02	54	0.0475476526752	0.154728240734	-0.388193929415	0.31640625	-0.69921875	0.6865234375	17.0	-5.5	-5.5
19	03	17	16	02	54	0.0478527596564	0.155216285467	-0.385385617947	0.32421875	-0.6884765625	0.619140625	18.625	0.8125	-4.75
19	03	17	16	02	54	0.048096225057	0.154969943426	-0.382450439349	0.3037109375	-0.67431640625	0.67236328125	16.5625	2.75	-3.5
19	03	17	16	02	54	0.0487669610391	0.153686117518	-0.381895963982	0.3056640625	-0.7451171875	0.63330078125	7.375	8.875	-3.125
19	03	17	16	02	54	0.0488278636133	0.149413262657	-0.38140664965	0.14453125	-0.70751953125	0.65771484375	4.875	15.5	0.25
19	03	17	16	02	54	0.0474856397299	0.144226949462	-0.380190295472	0.1328125	-0.755859375	0.630859375	14.4375	18.75	8.1875
19	03	17	16	02	54	0.0477315532728	0.143438810986	-0.379349876714	0.4208984375	-0.7470703125	0.69677734375	6.9375	10.5625	4.125
19	03	17	16	02	54	0.0483410167435	0.140384265795	-0.379281664197	0.2841796875	-0.828125	0.5703125	12.0625	19.3125	0.125
19	03	17	16	02	54	0.0495606541439	0.138794245718	-0.37799154078	0.30908203125	-0.732421875	0.79736328125	3.3125	10.4375	-4.0
19	03	17	16	02	54	0.0507201320849	0.136779561976	-0.377990105899	0.2783203125	-0.86279296875	0.7060546875	6.6875	12.1875	-6.0625
19	03	17	16	02	54	0.0516988151151	0.136052725964	-0.376845908525	0.435546875	-0.8095703125	0.72802734375	10.125	12.6875	0.125
19	03	17	16	02	54	0.0540789323928	0.136112888528	-0.377392820524	0.44287109375	-0.79150390625	0.66943359375	0.375	11.6875	-7.4375
19	03	17	16	02	54	0.0553607075949	0.133427240135	-0.380078419177	0.27685546875	-0.79931640625	0.60546875	-8.5	16.5625	-1.8125
19	03	17	16	02	54	0.0580463717815	0.134159753077	-0.385388844825	0.408203125	-0.7685546875	0.71923828125	-33.75	2.75	-8.5
19	03	17	16	02	54	0.0615270873742	0.133369728088	-0.391502716684	0.31787109375	-0.8251953125	0.6533203125	-34.8125	9.1875	-14.0
19	03	17	16	02	54	0.0629272947364	0.131103616968	-0.395263977413	0.2236328125	-0.72021484375	0.67578125	-24.6875	8.9375	-3.4375
19	03	17	16	02	54	0.0636004868189	0.130374894285	-0.398266004312	0.28125	-0.609375	0.64794921875	-23.75	2.9375	1.8125
19	03	17	16	02	54	0.0640285958841	0.129827286411	-0.403581578633	0.236328125	-0.6611328125	0.62451171875	-34.75	-1.5625	0.8125
19	03	17	16	02	54	0.0645774099139	0.130619713815	-0.408949571288	0.28076171875	-0.76416015625	0.64306640625	-32.4375	-7.25	-3.125
19	03	17	16	02	54	0.0651863402317	0.131837542042	-0.412785785568	0.33544921875	-0.755859375	0.66357421875	-25.5	-6.6875	-2.3125
19	03	17	16	02	54	0.0653685780711	0.132079928054	-0.413634783929	0.31640625	-0.72998046875	0.6611328125	-7.1875	-1.1875	0.1875
19	03	17	16	02	54	0.0654926123008	0.131595593775	-0.412914745774	0.3095703125	-0.70166015625	0.609375	4.0625	4.625	1.625
19	03	17	16	02	54	0.0659802944695	0.129580171285	-0.413094017548	0.287109375	-0.6689453125	0.5576171875	-0.4375	12.625	3.625
19	03	17	16	02	54	0.0664687165117	0.125918238901	-0.415597328492	0.25146484375	-0.70703125	0.54150390625	-13.1875	19.0	6.5625
19	03	17	16	02	54	0.0675065555625	0.124026510762	-0.420054353871	0.3505859375	-0.75537109375	0.5703125	-25.8125	13.25	5.0625
19	03	17	16	02	54	0.0686038845404	0.122315110871	-0.425966646092	0.29931640625	-0.748046875	0.53125	-34.1875	9.8125	2.625
19	03	17	16	02	54	0.0692136111521	0.119567428789	-0.430479364599	0.19091796875	-0.744140625	0.54638671875	-26.5	10.0	1.75
19	03	17	16	02	54	0.0707413261174	0.117312190507	-0.434824165022	0.09130859375	-0.68505859375	0.5869140625	-31.75	4.6875	-7.875
19	03	17	16	02	54	0.071047992429	0.114628977476	-0.438556551205	0.05859375	-0.6083984375	0.56591796875	-29.25	3.75	-1.4375
19	03	17	16	02	54	0.071047086917	0.114139220391	-0.44227421976	0.13427734375	-0.68896484375	0.5625	-25.5	-5.25	-2.5
19	03	17	16	02	54	0.0723896906477	0.115847919772	-0.446606548456	0.25146484375	-0.67578125	0.56103515625	-31.8125	-9.0625	-8.5625
19	03	17	16	02	54	0.0736100683123	0.115969427689	-0.451426256416	0.20849609375	-0.69873046875	0.53466796875	-33.4375	-3.125	-6.25
19	03	17	16	02	54	0.0756245523766	0.118045104355	-0.454113534852	0.35791015625	-0.84521484375	0.625	-19.8125	-5.6875	-11.1875
19	03	17	16	02	54	0.0787981613712	0.122439280953	-0.459116785309	0.462890625	-0.732421875	0.6396484375	-41.9375	-13.5	-14.8125
19	03	17	16	02	54	0.0802016930835	0.125063370722	-0.463387560038	0.42529296875	-0.7900390625	0.6865234375	-36.625	-11.3125	-4.75
19	03	17	16	02	54	0.0825203419	0.128236123027	-0.467167675224	0.36669921875	-0.83544921875	0.6845703125	-33.3125	-14.1875	-15.9375
19	03	17	16	02	54	0.0844142024389	0.132145154216	-0.471816185722	0.3271484375	-0.767578125	0.658203125	-40.3125	-21.5	-16.3125
19	03	17	16	02	54	0.0852654039977	0.13629037017	-0.474239219085	0.3515625	-0.841796875	0.662109375	-23.1875	-22.9375	-13.8125
19	03	17	16	02	54	0.0858803211961	0.138800177967	-0.474874839307	0.26904296875	-0.80517578125	0.59521484375	-9.1875	-15.75	-12.8125
19	03	17	16	02	54	0.0861234397701	0.141911408551	-0.474930180618	0.25244140625	-0.74755859375	0.6142578125	-8.0	-20.0625	-12.875
19	03	17	16	02	54	0.0874028235242	0.146180001634	-0.477541683836	0.31982421875	-0.8515625	0.5732421875	-20.375	-23.1875	-19.0625
19	03	17	16	02	54	0.0891740585102	0.150515556664	-0.482308973544	0.39990234375	-0.8974609375	0.51220703125	-30.875	-20.6875	-17.8125
19	03	17	16	02	55	0.0895420142254	0.153753465463	-0.484332571833	0.39404296875	-0.88623046875	0.537109375	-13.625	-17.375	-9.3125
