19	02	10	17	52	47	0.74857768742	0.17718067889	-0.0990576100027	-0.20361328125	0.07275390625	0.8623046875	106.4375	-4.4375	1.5
19	02	10	17	52	47	0.745048501657	0.196409115944	-0.117796641943	-0.3935546875	0.23974609375	0.7587890625	158.5	-13.125	18.3125
19	02	10	17	52	47	0.742487123097	0.215696629102	-0.140318774846	-0.38671875	0.51806640625	0.67041015625	169.4375	-25.0	39.8125
19	02	10	17	52	47	0.741659179136	0.227179282754	-0.161259447887	-0.236328125	0.54052734375	0.68212890625	129.0625	-42.0	50.75
19	02	10	17	52	47	0.740528876126	0.234615758661	-0.181699040981	-0.11376953125	0.44921875	0.681640625	111.6875	-53.8125	47.4375
19	02	10	17	52	47	0.73649971261	0.243709567619	-0.205502157318	-0.1171875	0.42578125	0.642578125	133.5	-67.125	36.6875
19	02	10	17	52	47	0.729634751225	0.254279602945	-0.231512850209	-0.10888671875	0.583984375	0.5869140625	148.4375	-76.0	25.3125
19	02	10	17	52	47	0.721232175164	0.262809997991	-0.257500088603	-0.05419921875	0.67724609375	0.56494140625	139.6875	-86.3125	16.9375
19	02	10	17	52	47	0.712688911068	0.267937340035	-0.281791958757	0.0361328125	0.7353515625	0.61279296875	118.6875	-91.5625	13.375
19	02	10	17	52	47	0.702682859365	0.272272060768	-0.304497940187	0.13037109375	0.7314453125	0.61328125	110.5625	-92.0625	-0.5625
19	02	10	17	52	47	0.690238058101	0.277706531467	-0.327632672729	0.16845703125	0.736328125	0.61083984375	119.125	-96.0	-14.5
19	02	10	17	52	47	0.677233548788	0.282587538833	-0.348016014346	0.25537109375	0.7412109375	0.634765625	106.875	-89.25	-26.125
19	02	10	17	52	47	0.664791567408	0.286619647498	-0.366270124496	0.33544921875	0.87646484375	0.64453125	96.375	-77.8125	-34.4375
19	02	10	17	52	47	0.651797352218	0.290955892689	-0.380922115853	0.31884765625	0.85888671875	0.5673828125	80.875	-67.1875	-49.6875
19	02	10	17	52	47	0.637506323253	0.29400363419	-0.394039332018	0.30224609375	0.888671875	0.5673828125	68.9375	-74.125	-61.625
19	02	10	17	52	47	0.622474053543	0.295154870373	-0.406234660298	0.3984375	0.89453125	0.55615234375	57.3125	-78.75	-73.625
19	02	10	17	52	47	0.607737170934	0.296086473456	-0.41474079306	0.44580078125	0.8720703125	0.58251953125	43.3125	-66.9375	-88.0
19	02	10	17	52	47	0.591448893502	0.299081483814	-0.422864595891	0.380859375	0.87158203125	0.54248046875	50.8125	-64.0625	-96.6875
19	02	10	17	52	47	0.571910871124	0.304815676669	-0.431099944797	0.3359375	0.91552734375	0.45361328125	58.1875	-70.1875	-105.8125
19	02	10	17	52	47	0.551016924337	0.309504521856	-0.437371209548	0.3642578125	0.99169921875	0.46435546875	44.9375	-74.1875	-119.3125
19	02	10	17	52	47	0.529095461897	0.31090232817	-0.442855770161	0.47900390625	1.001953125	0.51416015625	29.625	-89.0625	-124.3125
19	02	10	17	52	47	0.506531570289	0.313110851378	-0.446961162698	0.45458984375	0.9833984375	0.54541015625	29.125	-83.25	-131.5625
19	02	10	17	52	47	0.487737599829	0.316470961721	-0.451238152364	0.32861328125	0.9765625	0.490234375	36.5	-62.625	-105.25
19	02	10	17	52	47	0.472177267781	0.318304608516	-0.456612996416	0.279296875	1.0029296875	0.35888671875	34.125	-52.25	-92.3125
19	02	10	17	52	47	0.457750639657	0.319754080155	-0.461778845286	0.1796875	1.03857421875	0.2529296875	25.4375	-51.1875	-79.3125
19	02	10	17	52	47	0.445179936959	0.318657040151	-0.465565198674	0.1181640625	1.06494140625	0.2236328125	6.375	-55.25	-66.0625
19	02	10	17	52	47	0.435239803813	0.31469589517	-0.467466225971	0.166015625	1.02392578125	0.22021484375	-14.1875	-54.5625	-56.5
19	02	10	17	52	47	0.42687200413	0.311029415648	-0.467703770038	0.16845703125	0.95654296875	0.24853515625	-19.1875	-44.5	-53.75
19	02	10	17	52	47	0.418136986883	0.309376205884	-0.469282629126	0.0732421875	0.94970703125	0.2646484375	-2.4375	-39.6875	-48.5625
19	02	10	17	52	47	0.409040876345	0.307970794097	-0.472820004334	0.00830078125	0.9677734375	0.283203125	11.4375	-43.5625	-40.125
19	02	10	17	52	47	0.401481132116	0.30693958854	-0.475210108644	0.02880859375	0.8662109375	0.27392578125	8.25	-34.0	-36.6875
19	02	10	17	52	47	0.393790248568	0.308464959124	-0.476857286433	-0.04248046875	0.91796875	0.2880859375	12.75	-22.5	-40.625
19	02	10	17	52	47	0.385795776588	0.311639493001	-0.477896049784	-0.14794921875	1.01904296875	0.28515625	13.125	-16.9375	-41.5625
19	02	10	17	52	47	0.379942105309	0.313719264464	-0.476194105321	-0.19384765625	1.0556640625	0.29736328125	-7.4375	-12.4375	-34.8125
19	02	10	17	52	47	0.376584604216	0.313474639749	-0.471981968299	-0.201171875	0.96142578125	0.3349609375	-27.0	-11.625	-24.625
19	02	10	17	52	47	0.374140827518	0.314327122629	-0.468988273841	-0.16943359375	0.81884765625	0.33740234375	-12.875	-3.25	-19.5625
19	02	10	17	52	47	0.371636799031	0.318231937946	-0.468925197398	-0.19775390625	0.81494140625	0.32080078125	13.9375	7.9375	-14.25
19	02	10	17	52	48	0.369448887845	0.324282494816	-0.471439486158	-0.20458984375	0.9404296875	0.263671875	30.375	17.375	-9.5
19	02	10	17	52	48	0.36803906843	0.329526190788	-0.472896633863	-0.2333984375	1.0400390625	0.2138671875	16.1875	16.4375	-6.4375
19	02	10	17	52	48	0.368516760901	0.33153081239	-0.470868964947	-0.20654296875	0.9755859375	0.23291015625	-13.5625	11.125	-3.4375
19	02	10	17	52	48	0.369494728661	0.332508635901	-0.467025712539	-0.17822265625	0.88037109375	0.283203125	-22.625	10.25	-6.0625
19	02	10	17	52	48	0.369626938568	0.333921562237	-0.464536101295	-0.2021484375	0.88818359375	0.33544921875	-10.0	8.5	-5.6875
19	02	10	17	52	48	0.36888045827	0.335556710716	-0.464091165566	-0.21435546875	0.91796875	0.3701171875	5.1875	4.625	-4.0
19	02	10	17	52	48	0.368582770895	0.33635695486	-0.463917476664	-0.18603515625	0.927734375	0.3974609375	5.25	2.8125	-1.0625
19	02	10	17	52	48	0.368632628332	0.337201203897	-0.463781348129	-0.16796875	0.91357421875	0.3798828125	4.875	4.625	-0.6875
19	02	10	17	52	48	0.368647375117	0.338130208303	-0.462274042904	-0.185546875	0.9140625	0.36376953125	-4.0	5.625	-4.0625
19	02	10	17	52	48	0.368636418193	0.338608418565	-0.460124165026	-0.20361328125	0.89013671875	0.34033203125	-10.75	3.0625	-4.6875
19	02	10	17	52	48	0.368891391523	0.338252166085	-0.458489763918	-0.1806640625	0.86572265625	0.33056640625	-10.9375	-0.25	-1.5625
19	02	10	17	52	48	0.369137147967	0.338253649807	-0.457698325497	-0.15869140625	0.837890625	0.3271484375	-4.1875	1.3125	-0.1875
19	02	10	17	52	48	0.369071724129	0.339592371928	-0.458242186995	-0.15966796875	0.8515625	0.2802734375	4.8125	5.125	-0.25
19	02	10	17	52	48	0.368951130455	0.341913024452	-0.45885435877	-0.1640625	0.89990234375	0.27197265625	7.4375	10.25	-2.0
19	02	10	17	52	48	0.368650104544	0.344846538191	-0.458737447973	-0.19189453125	0.92724609375	0.25439453125	3.25	12.3125	-5.3125
19	02	10	17	52	48	0.36889307423	0.346615448139	-0.457210128897	-0.181640625	0.947265625	0.29296875	-6.6875	10.3125	-6.0
19	02	10	17	52	48	0.369628834647	0.347045831209	-0.455200107133	-0.15966796875	0.9326171875	0.34033203125	-11.3125	6.8125	-4.5
19	02	10	17	52	48	0.370592332916	0.346484300719	-0.453902368231	-0.11376953125	0.9130859375	0.38623046875	-7.5	3.625	-2.0625
19	02	10	17	52	48	0.371082650952	0.34648621866	-0.454576247416	-0.091796875	0.9033203125	0.37939453125	6.375	3.6875	-0.125
19	02	10	17	52	48	0.371033614662	0.346863634171	-0.456544075946	-0.10693359375	0.92919921875	0.34619140625	12.5625	1.625	1.6875
19	02	10	17	52	48	0.371016857827	0.346298675985	-0.458110303479	-0.1318359375	0.96875	0.33984375	6.3125	-3.75	3.3125
19	02	10	17	52	48	0.3715106122	0.3442286599	-0.459154646884	-0.13330078125	0.947265625	0.35986328125	-0.5	-8.75	7.25
19	02	10	17	52	48	0.372735380687	0.34105867157	-0.460319345201	-0.10693359375	0.91455078125	0.3720703125	-2.625	-11.1875	12.1875
19	02	10	17	52	48	0.374255447299	0.338306905476	-0.462387356284	-0.11767578125	0.87939453125	0.36376953125	4.4375	-9.75	18.0625
19	02	10	17	52	48	0.375231456085	0.336658541276	-0.46672006257	-0.11279296875	0.8740234375	0.32958984375	20.25	-8.0625	21.0625
19	02	10	17	52	48	0.375852314247	0.335996588166	-0.47222626751	-0.09326171875	0.935546875	0.2783203125	26.5625	-5.5625	20.125
19	02	10	17	52	48	0.376826647519	0.335262192229	-0.476251754226	-0.0771484375	1.0087890625	0.25	14.375	-3.0625	16.0625
19	02	10	17	52	48	0.379153034044	0.333254276542	-0.476993071644	-0.0654296875	1.0166015625	0.26904296875	-8.8125	-1.5625	13.8125
19	02	10	17	52	48	0.381884915328	0.330983202145	-0.4751436896	-0.0869140625	0.9697265625	0.287109375	-23.8125	0.9375	10.1875
19	02	10	17	52	48	0.384402118422	0.32928698458	-0.472110255001	-0.1162109375	0.91845703125	0.2998046875	-27.0625	3.125	6.5
19	02	10	17	52	48	0.386520339412	0.328173040426	-0.469707963385	-0.12744140625	0.890625	0.3212890625	-19.3125	4.1875	6.25
19	02	10	17	52	48	0.387624757071	0.328177974929	-0.468494352902	-0.13330078125	0.89306640625	0.3330078125	-7.375	4.75	3.6875
19	02	10	17	52	48	0.388363751441	0.328610787012	-0.467464713545	-0.15087890625	0.90478515625	0.32763671875	-5.875	4.875	2.4375
19	02	10	17	52	48	0.389646572267	0.328428603598	-0.465573943179	-0.1591796875	0.89306640625	0.32861328125	-12.8125	4.3125	4.25
19	02	10	17	52	48	0.391784616886	0.327392535438	-0.463073670091	-0.11962890625	0.85205078125	0.32568359375	-19.125	4.625	5.75
19	02	10	17	52	48	0.393980558369	0.326536946131	-0.460569681402	-0.08935546875	0.8271484375	0.32275390625	-18.8125	6.875	4.3125
19	02	10	17	52	48	0.39604341773	0.326160583195	-0.458907452291	-0.06298828125	0.85693359375	0.3154296875	-13.375	8.3125	3.75
19	02	10	17	52	48	0.397762128796	0.326656884045	-0.458003224565	-0.04248046875	0.86328125	0.31591796875	-6.0625	10.75	1.5625
19	02	10	17	52	48	0.3981733463	0.328230572716	-0.457435504372	-0.06689453125	0.8466796875	0.33154296875	1.625	10.9375	-4.5
19	02	10	17	52	48	0.397694031282	0.330679291204	-0.456835454903	-0.10107421875	0.8740234375	0.3271484375	4.1875	11.1875	-9.25
19	02	10	17	52	48	0.396908768884	0.333005419503	-0.455318993676	-0.13916015625	0.9111328125	0.353515625	-0.75	9.8125	-11.6875
19	02	10	17	52	48	0.397154573669	0.333800271	-0.451292595314	-0.13720703125	0.93994140625	0.38427734375	-20.25	9.0	-12.8125
19	02	10	17	52	48	0.398555473208	0.334774390589	-0.446467578333	-0.13330078125	0.9365234375	0.392578125	-24.75	15.5	-9.875
19	02	10	17	52	48	0.400555491901	0.335006718733	-0.441630281791	-0.18115234375	0.9755859375	0.4345703125	-26.4375	12.9375	-3.4375
19	02	10	17	52	48	0.403005448116	0.333060840583	-0.436268808592	-0.19970703125	0.98046875	0.46142578125	-36.625	3.9375	1.9375
19	02	10	17	52	48	0.406191998787	0.330019554837	-0.431765920274	-0.17724609375	0.84912109375	0.5087890625	-29.5625	1.0	10.25
19	02	10	17	52	48	0.407771191095	0.329158813587	-0.432307041839	-0.16015625	0.826171875	0.47509765625	5.4375	0.25	14.1875
19	02	10	17	52	48	0.408437410678	0.329154655676	-0.436024635667	-0.158203125	0.92529296875	0.412109375	20.875	-3.0625	17.9375
19	02	10	17	52	48	0.409782802469	0.328119205552	-0.439506398657	-0.1552734375	0.9638671875	0.36669921875	11.875	-5.9375	22.0
19	02	10	17	52	48	0.412234340871	0.325563810217	-0.441104172561	-0.11376953125	0.923828125	0.36572265625	-3.5	-6.5625	22.6875
19	02	10	17	52	48	0.41471784201	0.322924518333	-0.441877435784	-0.06982421875	0.86572265625	0.357421875	-7.25	-4.625	18.3125
19	02	10	17	52	49	0.416198036639	0.321471632054	-0.442504145129	-0.05419921875	0.8115234375	0.33447265625	-3.75	-2.0	10.1875
19	02	10	17	52	49	0.417353859328	0.32073625779	-0.442561104707	-0.072265625	0.8095703125	0.3232421875	-5.0625	0.6875	6.6875
19	02	10	17	52	49	0.418315730592	0.320541905029	-0.44193525025	-0.041015625	0.818359375	0.3330078125	-6.5625	4.3125	0.5625
19	02	10	17	52	49	0.419129112002	0.320435100919	-0.439270746917	-0.0244140625	0.81640625	0.33935546875	-17.6875	7.5	-8.0625
19	02	10	17	52	49	0.41972662129	0.320364262782	-0.435229102285	-0.041015625	0.80224609375	0.3837890625	-22.5625	8.625	-13.0
19	02	10	17	52	49	0.420347569273	0.321165806522	-0.431639031494	-0.0634765625	0.7998046875	0.43408203125	-13.9375	12.1875	-11.6875
19	02	10	17	52	49	0.42155108348	0.322312331237	-0.429241171292	-0.083984375	0.83447265625	0.4736328125	-4.875	14.25	-3.875
19	02	10	17	52	49	0.423286356323	0.323247951419	-0.42841340087	-0.0595703125	0.92919921875	0.48095703125	0.5	13.9375	2.375
19	02	10	17	52	49	0.425411478866	0.323361551655	-0.426876310357	-0.091796875	0.9013671875	0.517578125	-3.625	11.375	5.375
19	02	10	17	52	49	0.427313059441	0.322270097679	-0.427129951431	-0.05224609375	0.8798828125	0.5537109375	5.3125	3.1875	10.0
19	02	10	17	52	49	0.428347636367	0.320986067206	-0.430178703493	0.03173828125	0.8671875	0.54833984375	21.0	-2.125	9.3125
19	02	10	17	52	49	0.427067650589	0.320987390945	-0.434819200056	0.0556640625	0.8623046875	0.4814453125	32.0	-5.75	-1.0625
19	02	10	17	52	49	0.423465077023	0.322084925259	-0.4399446923	-0.02197265625	0.88623046875	0.4130859375	35.375	-12.375	-9.25
19	02	10	17	52	49	0.418808987019	0.322559821684	-0.444381847054	-0.1337890625	0.94873046875	0.3896484375	27.25	-21.5	-9.5
19	02	10	17	52	49	0.414731057073	0.321897217807	-0.446957399697	-0.21044921875	0.93310546875	0.40966796875	14.4375	-24.1875	-5.8125
19	02	10	17	52	49	0.411496097827	0.321164708806	-0.44878831316	-0.20166015625	0.89892578125	0.4130859375	11.0	-20.3125	-3.625
19	02	10	17	52	49	0.408202575277	0.322204155934	-0.450744021893	-0.20556640625	0.8818359375	0.3876953125	16.875	-12.0	-6.375
19	02	10	17	52	49	0.404663093475	0.324707037298	-0.452331551394	-0.267578125	0.87939453125	0.359375	19.125	-6.875	-7.125
19	02	10	17	52	49	0.402450678966	0.327563359723	-0.453657248522	-0.23828125	0.92822265625	0.3251953125	15.1875	1.0	-4.125
19	02	10	17	52	49	0.401986577426	0.330634875481	-0.452646896173	-0.22119140625	0.94287109375	0.27880859375	-1.5	11.25	-3.875
19	02	10	17	52	49	0.403065381234	0.332937864118	-0.448474321821	-0.2490234375	0.86767578125	0.271484375	-21.9375	15.9375	-2.875
19	02	10	17	52	49	0.405379415154	0.334337313492	-0.443158677121	-0.22705078125	0.78857421875	0.31396484375	-27.625	18.125	0.3125
19	02	10	17	52	49	0.408011367246	0.335686240816	-0.439687941607	-0.17333984375	0.79541015625	0.3251953125	-17.375	18.5625	4.875
19	02	10	17	52	49	0.410948584881	0.336730037545	-0.437132595413	-0.14990234375	0.8251953125	0.32861328125	-14.125	17.625	8.0
19	02	10	17	52	49	0.413757026735	0.337707276726	-0.434325859603	-0.11767578125	0.83544921875	0.3466796875	-14.875	18.25	4.5
19	02	10	17	52	49	0.41551242222	0.338855018825	-0.431380992986	-0.12158203125	0.81884765625	0.3642578125	-13.25	15.6875	-1.875
19	02	10	17	52	49	0.415522989407	0.339657085201	-0.428645410488	-0.16064453125	0.82470703125	0.4140625	-9.25	7.1875	-7.75
19	02	10	17	52	49	0.414848497302	0.339105230398	-0.427360479346	-0.16259765625	0.85498046875	0.4619140625	-3.9375	-3.8125	-5.8125
19	02	10	17	52	49	0.414380788853	0.33790131788	-0.426832354757	-0.12255859375	0.888671875	0.49560546875	-0.875	-5.8125	-3.375
19	02	10	17	52	49	0.413875030476	0.337764993166	-0.426753312652	-0.1279296875	0.89111328125	0.46630859375	3.375	-1.5	-3.5625
19	02	10	17	52	49	0.412710212068	0.339225578035	-0.426320738139	-0.16845703125	0.8486328125	0.45068359375	7.75	3.375	-7.5625
19	02	10	17	52	49	0.410148323219	0.342278541163	-0.426139225107	-0.22412109375	0.85546875	0.44775390625	15.25	5.125	-13.75
19	02	10	17	52	49	0.407585265909	0.345818825493	-0.426261679711	-0.2685546875	0.8994140625	0.408203125	15.3125	5.875	-11.6875
19	02	10	17	52	49	0.407583012745	0.348014126785	-0.422902470097	-0.31640625	0.9091796875	0.41650390625	-10.375	11.0	-4.5
19	02	10	17	52	49	0.409293067675	0.350151256971	-0.416800232501	-0.3603515625	0.86181640625	0.41796875	-25.9375	19.0625	-1.375
19	02	10	17	52	49	0.410768312365	0.354005380641	-0.410402099902	-0.435546875	0.7607421875	0.40234375	-19.8125	25.5	-0.5625
19	02	10	17	52	49	0.413215482952	0.359015283711	-0.404182116412	-0.421875	0.71044921875	0.3876953125	-14.6875	35.1875	3.5
19	02	10	17	52	49	0.416561996849	0.366757661401	-0.396969850184	-0.466796875	0.7294921875	0.36328125	-13.3125	52.6875	3.9375
19	02	10	17	52	49	0.419976691958	0.376093064357	-0.387567503841	-0.5703125	0.8271484375	0.3349609375	-23.75	61.3125	-0.375
19	02	10	17	52	49	0.425410920241	0.381343964084	-0.378109132123	-0.34619140625	0.92578125	0.396484375	-39.75	55.0625	-0.9375
19	02	10	17	52	49	0.433529873217	0.379697218258	-0.369260274949	-0.08203125	0.86669921875	0.52783203125	-54.4375	36.8125	7.0
19	02	10	17	52	49	0.439199552914	0.372794728904	-0.369132698169	0.1455078125	1.00537109375	0.7265625	-18.25	-1.0625	13.0625
19	02	10	17	52	49	0.442311424724	0.364310320709	-0.37682223489	0.4091796875	0.9365234375	0.80859375	27.3125	-20.4375	13.0
19	02	10	17	52	49	0.444446630038	0.361440942472	-0.389760529995	0.51171875	1.14453125	0.57568359375	57.3125	-3.0	13.375
19	02	10	17	52	49	0.446039270722	0.366023194652	-0.394526251498	0.021484375	0.93408203125	0.26806640625	30.4375	26.3125	8.5625
19	02	10	17	52	49	0.444754639351	0.373894184255	-0.392021277419	-0.46484375	0.75146484375	0.14599609375	4.3125	28.4375	-4.3125
19	02	10	17	52	49	0.440852047773	0.385615843532	-0.382503085061	-0.92236328125	0.47021484375	0.068359375	-12.8125	35.1875	-16.0625
19	02	10	17	52	49	0.436648089299	0.397280180773	-0.370729730836	-1.1064453125	0.54541015625	0.1484375	-20.8125	34.0	-15.9375
19	02	10	17	52	49	0.434987140824	0.405141664205	-0.361380505236	-0.60595703125	0.55712890625	0.24609375	-19.0	36.125	-21.75
19	02	10	17	52	50	0.43127757111	0.412539640976	-0.351565073534	-0.64892578125	0.5087890625	0.27587890625	-17.25	27.5625	-31.5625
19	02	10	17	52	50	0.422419322506	0.422358288072	-0.341243524365	-1.072265625	0.3759765625	0.3037109375	0.875	13.625	-36.4375
19	02	10	17	52	50	0.410469418558	0.435067065499	-0.333746733185	-1.076171875	0.51318359375	0.3671875	30.125	19.625	-49.125
19	02	10	17	52	50	0.40296109847	0.440986661079	-0.336187478093	-0.294921875	1.50537109375	0.70166015625	44.6875	16.625	-57.5625
19	02	10	17	52	50	0.402038715004	0.435363921986	-0.33563244175	0.4931640625	2.10498046875	0.65087890625	-20.6875	-34.5	-3.9375
19	02	10	17	52	50	0.413996298317	0.41912318746	-0.33831364906	1.158203125	0.94287109375	0.8076171875	-59.0	-55.3125	84.4375
19	02	10	17	52	50	0.420111526289	0.408148449265	-0.361150646673	0.8486328125	0.58740234375	0.48974609375	83.9375	-33.9375	58.875
19	02	10	17	52	50	0.414122384284	0.417052063642	-0.379942791771	0.0859375	0.666015625	0.2080078125	136.0	7.5625	23.25
19	02	10	17	52	50	0.403377820836	0.432613405067	-0.386837438108	-0.65283203125	1.0341796875	0.0703125	86.3125	26.625	-25.6875
19	02	10	17	52	50	0.39818840125	0.442743510526	-0.374751193084	-1.0419921875	1.14111328125	0.00341796875	-46.125	25.875	-42.0625
19	02	10	17	52	50	0.410768488343	0.434389202308	-0.35492106385	-0.6552734375	0.81396484375	0.27001953125	-150.5	15.0625	5.6875
19	02	10	17	52	50	0.420715969135	0.425293612786	-0.339417017896	-0.40771484375	0.47705078125	0.451171875	-121.1875	1.3125	7.25
19	02	10	17	52	50	0.421871987262	0.421688883101	-0.335935100968	-0.32568359375	0.40234375	0.51513671875	-13.25	-9.3125	5.9375
19	02	10	17	52	50	0.416387835114	0.426153600815	-0.346196394131	-0.40869140625	0.6572265625	0.42431640625	82.0625	-8.4375	12.9375
19	02	10	17	52	50	0.411375489597	0.431211844807	-0.358824407024	-0.421875	0.99365234375	0.3681640625	85.875	-6.375	18.0
19	02	10	17	52	50	0.412467652746	0.430960949399	-0.364433908633	-0.294921875	1.10400390625	0.38037109375	22.0	-2.625	20.125
19	02	10	17	52	50	0.417906484955	0.427427941309	-0.362730866086	-0.220703125	1.02587890625	0.32763671875	-35.375	2.375	17.1875
19	02	10	17	52	50	0.424006913584	0.422603119282	-0.356685821647	-0.20068359375	0.74462890625	0.26416015625	-60.3125	1.9375	10.9375
19	02	10	17	52	50	0.419854625798	0.429437003506	-0.340632165516	-1.04345703125	-0.04833984375	0.11328125	-43.6875	18.0	-21.75
19	02	10	17	52	50	0.408502470083	0.440850641179	-0.332880990861	-1.734375	-0.041015625	0.19677734375	16.9375	35.625	-96.3125
19	02	10	17	52	50	0.394229250853	0.465274745201	-0.323733077338	-0.611328125	0.634765625	0.46533203125	64.1875	103.625	-117.75
19	02	10	17	52	50	0.380666282037	0.477709634361	-0.316642082926	-0.0576171875	2.43408203125	0.171875	30.5625	36.3125	-103.125
19	02	10	17	52	50	0.407653610413	0.453124779713	-0.285400251878	0.27880859375	1.583984375	0.578125	-286.9375	-17.8125	24.5
19	02	10	17	52	50	0.426138998898	0.428214153003	-0.281305449144	0.5283203125	0.55908203125	0.98876953125	-124.1875	-70.1875	83.5625
19	02	10	17	52	50	0.429560592196	0.423029904022	-0.306148896058	0.361328125	0.6865234375	0.68359375	103.3125	-48.5	96.375
19	02	10	17	52	50	0.422412944074	0.429187664026	-0.339224265736	0.0771484375	0.76416015625	0.41552734375	197.625	-30.6875	68.1875
19	02	10	17	52	50	0.411864864605	0.437194431708	-0.363280923848	-0.24658203125	0.92919921875	0.28759765625	164.125	-19.5625	24.0
19	02	10	17	52	50	0.40410425849	0.444386513528	-0.369925375428	-0.59375	1.13916015625	0.13916015625	52.375	-4.8125	-11.625
19	02	10	17	52	50	0.406806664243	0.442757020618	-0.359320454974	-0.5908203125	0.91357421875	0.16064453125	-76.75	0.5625	-9.5625
19	02	10	17	52	50	0.41673956889	0.434622505868	-0.340996480872	-0.458984375	0.6669921875	0.2587890625	-136.75	7.6875	-5.25
19	02	10	17	52	50	0.42510747277	0.4285254223	-0.325010379397	-0.4521484375	0.50732421875	0.35498046875	-112.125	12.9375	-4.5
19	02	10	17	52	50	0.429389140165	0.427069767411	-0.316777489333	-0.45703125	0.453125	0.42236328125	-41.3125	13.625	10.9375
19	02	10	17	52	50	0.429871772088	0.429627630801	-0.321350969763	-0.380859375	0.595703125	0.43310546875	38.9375	8.9375	25.375
19	02	10	17	52	50	0.427675477944	0.43365695316	-0.333070512793	-0.33935546875	0.822265625	0.3935546875	76.0625	-0.8125	29.0
19	02	10	17	52	50	0.426460356227	0.434700251474	-0.342962751057	-0.328125	0.98974609375	0.37841796875	51.0	-10.8125	25.4375
19	02	10	17	52	50	0.428842165932	0.430734296183	-0.346626054701	-0.279296875	1.0107421875	0.44482421875	0.4375	-16.25	22.875
19	02	10	17	52	50	0.432794612118	0.424860145953	-0.346369965276	-0.24267578125	0.9228515625	0.49853515625	-23.375	-14.5625	19.0
19	02	10	17	52	50	0.435728299633	0.420042324986	-0.345396616841	-0.23779296875	0.8388671875	0.515625	-18.9375	-11.125	11.875
19	02	10	17	52	50	0.436752513715	0.417588135668	-0.346362565027	-0.2421875	0.8212890625	0.486328125	0.25	-8.125	7.875
19	02	10	17	52	50	0.436030876943	0.417232233312	-0.34954490933	-0.216796875	0.83740234375	0.42333984375	17.5625	-6.3125	3.625
19	02	10	17	52	50	0.43452252598	0.417859420264	-0.35322121897	-0.21435546875	0.88134765625	0.34228515625	18.75	-5.6875	-0.75
19	02	10	17	52	50	0.433401797708	0.417655048827	-0.355278392404	-0.2001953125	0.85791015625	0.31884765625	6.3125	-6.8125	-4.125
19	02	10	17	52	50	0.432012933897	0.417059109539	-0.356389307859	-0.1943359375	0.7978515625	0.31494140625	2.1875	-8.5625	-7.625
19	02	10	17	52	50	0.430551890158	0.416147262135	-0.357369055412	-0.19580078125	0.73681640625	0.33642578125	3.25	-10.0625	-7.1875
19	02	10	17	52	50	0.429015931885	0.415771308578	-0.359680023701	-0.162109375	0.72216796875	0.359375	14.125	-7.75	-4.5
19	02	10	17	52	50	0.427124297117	0.416382102734	-0.362549060428	-0.15869140625	0.7587890625	0.3583984375	20.5	-3.75	-6.1875
19	02	10	17	52	50	0.425117209268	0.417487682899	-0.364691360427	-0.15771484375	0.8017578125	0.3681640625	18.25	-0.625	-10.5
19	02	10	17	52	50	0.422109848147	0.419119191328	-0.365409436214	-0.13525390625	0.83203125	0.3515625	12.5625	1.375	-24.0
19	02	10	17	52	50	0.420055860097	0.419933786322	-0.363291554679	-0.18603515625	0.8759765625	0.38818359375	-5.3125	2.875	-26.625
19	02	10	17	52	50	0.419378317293	0.419866605248	-0.360661690712	-0.12451171875	0.86474609375	0.41357421875	-11.0625	5.625	-24.0625
19	02	10	17	52	50	0.417296568907	0.42101970635	-0.358947070607	-0.15478515625	0.82080078125	0.40869140625	0.1875	5.6875	-26.6875
19	02	10	17	52	51	0.414727801854	0.42247915297	-0.359491795867	-0.16259765625	0.81689453125	0.4111328125	14.125	3.5	-21.125
19	02	10	17	52	51	0.411872610805	0.424690223174	-0.362677393806	-0.1474609375	0.8564453125	0.4189453125	31.0	3.875	-15.5625
19	02	10	17	52	51	0.408813436204	0.427612262474	-0.36682125285	-0.15283203125	0.91552734375	0.40087890625	37.0625	6.1875	-14.375
19	02	10	17	52	51	0.407084491456	0.430093614886	-0.36924455372	-0.158203125	1.00537109375	0.41552734375	23.9375	10.3125	-15.1875
19	02	10	17	52	51	0.407542375784	0.431102561055	-0.36792952542	-0.1796875	1.05517578125	0.462890625	-1.75	14.5	-15.5625
19	02	10	17	52	51	0.409475645298	0.431142638007	-0.363639274808	-0.21484375	1.02001953125	0.47900390625	-21.1875	17.0625	-15.125
19	02	10	17	52	51	0.41180796853	0.431034218728	-0.358890003699	-0.251953125	0.91748046875	0.46923828125	-23.0	16.625	-10.125
19	02	10	17	52	51	0.413821651487	0.431033702478	-0.356814362035	-0.2548828125	0.89404296875	0.439453125	-10.0	12.5625	-1.4375
19	02	10	17	52	51	0.41479091592	0.430843006987	-0.357784630536	-0.2412109375	0.904296875	0.41015625	4.125	4.1875	3.3125
19	02	10	17	52	51	0.414989459847	0.429882448258	-0.359873195361	-0.22998046875	0.8857421875	0.39013671875	8.0625	-4.25	3.625
19	02	10	17	52	51	0.414911957979	0.428522632682	-0.362361326055	-0.2587890625	0.85302734375	0.37353515625	8.5625	-9.3125	6.5625
19	02	10	17	52	51	0.415278993665	0.426692452191	-0.36529170739	-0.2373046875	0.81494140625	0.35302734375	8.75	-10.625	10.6875
19	02	10	17	52	51	0.415522237898	0.425165674089	-0.368220573037	-0.23095703125	0.8125	0.3349609375	8.9375	-9.875	10.4375
19	02	10	17	52	51	0.415830088245	0.423764612166	-0.370420197499	-0.24951171875	0.82177734375	0.32177734375	4.6875	-9.0	8.6875
19	02	10	17	52	51	0.416001298808	0.422470802575	-0.371508202149	-0.251953125	0.828125	0.33349609375	0.0	-7.1875	4.5
19	02	10	17	52	51	0.416245033316	0.421615936972	-0.371385781192	-0.2587890625	0.8212890625	0.349609375	-3.5625	-3.3125	0.3125
19	02	10	17	52	51	0.416138056517	0.421570190139	-0.371155107316	-0.26025390625	0.8212890625	0.3671875	0.25	0.3125	-2.125
19	02	10	17	52	51	0.415886236648	0.422172747122	-0.370659981679	-0.26708984375	0.84521484375	0.3740234375	1.0625	4.0625	-4.9375
19	02	10	17	52	51	0.416260927871	0.422791707824	-0.36938579699	-0.2578125	0.86865234375	0.3984375	-2.6875	7.5625	-5.0
19	02	10	17	52	51	0.417294288408	0.422909481407	-0.367978245548	-0.22802734375	0.86279296875	0.41064453125	-5.1875	8.625	-3.8125
19	02	10	17	52	51	0.418090330477	0.422912102171	-0.366942929464	-0.21337890625	0.84814453125	0.4091796875	-3.5	7.0625	-3.875
19	02	10	17	52	51	0.418929655726	0.422713693992	-0.366502415885	-0.2060546875	0.8701171875	0.39990234375	-2.125	5.1875	-2.375
19	02	10	17	52	51	0.419544524461	0.422291033568	-0.366628449002	-0.19580078125	0.87109375	0.36962890625	-1.6875	2.3125	-2.0
19	02	10	17	52	51	0.420142685313	0.421485384191	-0.366434730188	-0.21142578125	0.8603515625	0.3896484375	-3.5	0.3125	-1.9375
19	02	10	17	52	51	0.420587474744	0.421136783592	-0.366266933092	-0.2197265625	0.84326171875	0.37890625	-1.75	1.75	-1.8125
19	02	10	17	52	51	0.420828488449	0.421316759356	-0.366508349983	-0.2392578125	0.857421875	0.3671875	1.8125	3.0	-1.125
19	02	10	17	52	51	0.420641499285	0.421923198572	-0.366871162537	-0.26806640625	0.8896484375	0.3447265625	2.0625	2.25	-1.75
19	02	10	17	52	51	0.42076546555	0.422108204199	-0.36662868459	-0.2509765625	0.8876953125	0.361328125	-1.875	2.5	-3.5625
19	02	10	17	52	51	0.420475331402	0.422916761691	-0.366336614759	-0.24755859375	0.89501953125	0.3837890625	2.0	5.375	-6.6875
19	02	10	17	52	51	0.419183577719	0.424859767692	-0.365839598843	-0.29736328125	0.900390625	0.38720703125	6.375	7.125	-10.5
19	02	10	17	52	51	0.418273406125	0.42620796658	-0.36529495632	-0.314453125	0.92578125	0.42236328125	5.375	5.8125	-8.5
19	02	10	17	52	51	0.418279427865	0.427862073447	-0.365361251306	-0.26513671875	0.88671875	0.37353515625	6.25	10.1875	-3.5
19	02	10	17	52	51	0.418332977084	0.430234776111	-0.364561259428	-0.23828125	0.8388671875	0.35205078125	5.0	15.5625	-7.6875
19	02	10	17	52	51	0.417476971068	0.432674597647	-0.364804072526	-0.263671875	0.9267578125	0.33203125	8.25	10.875	-9.4375
19	02	10	17	52	51	0.418397844661	0.431581496659	-0.363954244743	-0.23779296875	0.9765625	0.35498046875	-12.5	-0.125	-4.125
19	02	10	17	52	51	0.421016134331	0.427607862732	-0.362056785859	-0.1845703125	0.865234375	0.4111328125	-24.8125	-6.625	2.875
19	02	10	17	52	51	0.422911711456	0.425292077562	-0.363402558812	-0.15771484375	0.802734375	0.4072265625	0.0625	-3.3125	9.5
19	02	10	17	52	51	0.423458874217	0.425534054633	-0.367367968278	-0.19189453125	0.8623046875	0.34326171875	19.625	0.5625	11.6875
19	02	10	17	52	51	0.424683314089	0.424988490371	-0.371033323706	-0.20556640625	0.9091796875	0.3310546875	12.8125	-1.625	15.0625
19	02	10	17	52	51	0.426637823446	0.422792589844	-0.37280455302	-0.189453125	0.92578125	0.36328125	-2.4375	-4.4375	12.25
19	02	10	17	52	51	0.428960114255	0.419743697457	-0.371952609031	-0.22265625	0.8525390625	0.38134765625	-16.8125	-6.0625	9.0
19	02	10	17	52	51	0.430428461244	0.417427715038	-0.371223185095	-0.25927734375	0.826171875	0.39208984375	-11.3125	-5.8125	7.5
19	02	10	17	52	51	0.430726812958	0.415773140126	-0.371705581822	-0.26513671875	0.8212890625	0.37255859375	-2.625	-8.6875	5.4375
19	02	10	17	52	51	0.430422262915	0.414919248908	-0.372194407155	-0.27734375	0.85791015625	0.37255859375	0.0	-6.625	1.6875
19	02	10	17	52	51	0.430108775239	0.414667095072	-0.371698941564	-0.298828125	0.86083984375	0.37646484375	-2.75	-2.75	-1.4375
19	02	10	17	52	51	0.430288762127	0.41454202445	-0.370353504764	-0.29345703125	0.8291015625	0.35791015625	-7.875	0.4375	-1.4375
19	02	10	17	52	51	0.430471146937	0.415090638071	-0.368704976413	-0.2900390625	0.8544921875	0.3515625	-7.8125	4.75	-3.5625
19	02	10	17	52	51	0.43079235798	0.416326816914	-0.366643481777	-0.28564453125	0.87841796875	0.34765625	-8.625	9.5	-6.125
19	02	10	17	52	51	0.431085303306	0.417535687373	-0.363886532395	-0.2705078125	0.8740234375	0.3623046875	-11.5	11.0	-9.875
19	02	10	17	52	51	0.431193571814	0.418865036569	-0.361189463269	-0.26171875	0.88720703125	0.38720703125	-9.5	11.5625	-12.0625
19	02	10	17	52	52	0.431093892575	0.420412676208	-0.358705763367	-0.26708984375	0.90478515625	0.39794921875	-7.1875	12.125	-12.5
19	02	10	17	52	52	0.431080508248	0.421925464182	-0.356741550433	-0.2607421875	0.92578125	0.3828125	-6.3125	11.375	-11.5
19	02	10	17	52	52	0.431270530909	0.422786720578	-0.355099341753	-0.26416015625	0.92041015625	0.37548828125	-7.75	8.25	-8.6875
19	02	10	17	52	52	0.431571006273	0.422904186461	-0.354241001331	-0.2431640625	0.89697265625	0.3916015625	-5.0625	4.0625	-5.25
19	02	10	17	52	52	0.431634764008	0.42308995816	-0.354792545698	-0.24267578125	0.84765625	0.36865234375	2.75	1.5625	-0.6875
19	02	10	17	52	52	0.431567471065	0.423388989786	-0.356496336938	-0.24462890625	0.82177734375	0.359375	9.625	0.125	3.625
19	02	10	17	52	52	0.431389377252	0.424309415769	-0.359002874504	-0.2421875	0.83056640625	0.31396484375	13.3125	1.25	5.5
19	02	10	17	52	52	0.431344291181	0.424996504811	-0.360603094991	-0.259765625	0.8056640625	0.3037109375	7.875	0.9375	4.625
19	02	10	17	52	52	0.431625952066	0.425339544676	-0.361376875309	-0.259765625	0.79833984375	0.3115234375	3.0	1.4375	3.875
19	02	10	17	52	52	0.431448972943	0.426200053482	-0.361870273105	-0.28271484375	0.814453125	0.30517578125	3.3125	2.5	0.875
19	02	10	17	52	52	0.431344407685	0.427010821589	-0.36157977517	-0.29296875	0.83740234375	0.3115234375	-1.0625	2.9375	-1.25
19	02	10	17	52	52	0.431387542876	0.427847577187	-0.360954432452	-0.28662109375	0.85205078125	0.31640625	-2.9375	4.625	-2.375
19	02	10	17	52	52	0.431082256997	0.429068139131	-0.36058813172	-0.28662109375	0.8623046875	0.314453125	-0.125	5.125	-4.125
19	02	10	17	52	52	0.430648759434	0.429977396572	-0.360521856856	-0.27734375	0.8662109375	0.3388671875	2.125	3.4375	-4.125
19	02	10	17	52	52	0.430108417941	0.43047462349	-0.361261774626	-0.25341796875	0.89404296875	0.34619140625	4.5	0.8125	-3.6875
19	02	10	17	52	52	0.429865426658	0.4299874955	-0.362483425944	-0.22216796875	0.92529296875	0.37646484375	4.0625	-2.875	-2.0
19	02	10	17	52	52	0.430173612243	0.42864774103	-0.363218383436	-0.2021484375	0.94921875	0.390625	-2.0	-4.5625	-2.0
19	02	10	17	52	52	0.430541855857	0.427062853052	-0.363098029556	-0.232421875	0.93359375	0.38623046875	-7.375	-5.3125	-2.125
19	02	10	17	52	52	0.431083169116	0.425284938751	-0.362664050812	-0.25439453125	0.904296875	0.39892578125	-8.6875	-6.1875	-0.5
19	02	10	17	52	52	0.431451338775	0.423883087819	-0.362787771633	-0.25830078125	0.87109375	0.3798828125	-4.75	-5.625	1.875
19	02	10	17	52	52	0.431338419511	0.422976545523	-0.363711000689	-0.26904296875	0.8896484375	0.3564453125	-0.125	-6.6875	1.875
19	02	10	17	52	52	0.43156829819	0.421802928693	-0.364370349341	-0.2802734375	0.9033203125	0.35302734375	-3.3125	-6.625	3.5625
19	02	10	17	52	52	0.431892725859	0.421211376646	-0.363776236026	-0.2978515625	0.873046875	0.3544921875	-7.125	-2.6875	1.0625
19	02	10	17	52	52	0.432185208792	0.421015897507	-0.363338306445	-0.31591796875	0.853515625	0.35693359375	-4.25	-0.75	2.625
19	02	10	17	52	52	0.432792267935	0.421073735226	-0.363274513997	-0.29443359375	0.87255859375	0.34228515625	-3.0625	1.4375	3.8125
19	02	10	17	52	52	0.433409037225	0.421507225895	-0.3627305884	-0.29150390625	0.865234375	0.337890625	-4.125	4.0	1.875
19	02	10	17	52	52	0.433832054745	0.422174496718	-0.362177745197	-0.30126953125	0.8740234375	0.32958984375	-3.875	4.625	0.875
19	02	10	17	52	52	0.433472202079	0.42376760054	-0.361084419529	-0.31201171875	0.85302734375	0.3427734375	-0.8125	7.5	-4.9375
19	02	10	17	52	52	0.432258675423	0.426094014844	-0.361334560647	-0.34326171875	0.90380859375	0.3359375	8.0	6.125	-4.5
19	02	10	17	52	52	0.431582646227	0.42779843974	-0.361696897403	-0.3212890625	0.93603515625	0.326171875	4.8125	4.8125	-2.625
19	02	10	17	52	52	0.431460938309	0.429141583993	-0.360964774248	-0.29443359375	0.85888671875	0.3291015625	-0.75	6.875	-3.875
19	02	10	17	52	52	0.430709743487	0.430953875409	-0.361315244643	-0.31591796875	0.82763671875	0.33203125	8.6875	5.625	-1.6875
19	02	10	17	52	52	0.429930829407	0.432982581461	-0.3632195295	-0.2900390625	0.8701171875	0.29345703125	14.1875	5.1875	1.3125
19	02	10	17	52	52	0.430179776412	0.43426916986	-0.364444302633	-0.26806640625	0.88330078125	0.27099609375	5.625	5.4375	3.375
19	02	10	17	52	52	0.431446208571	0.434558919935	-0.363943095446	-0.27197265625	0.84619140625	0.28466796875	-6.5	5.75	4.25
19	02	10	17	52	52	0.432365311623	0.435172878582	-0.363518887073	-0.2734375	0.84033203125	0.28857421875	-4.125	6.25	2.875
19	02	10	17	52	52	0.432792092204	0.43602689419	-0.363518502491	-0.28955078125	0.84814453125	0.30029296875	0.125	5.4375	2.0625
19	02	10	17	52	52	0.432982533072	0.437132915402	-0.363585699113	-0.3056640625	0.87158203125	0.302734375	1.25	5.3125	1.625
19	02	10	17	52	52	0.432992736332	0.438547055335	-0.363716339978	-0.31298828125	0.9072265625	0.29833984375	2.25	6.3125	0.25
19	02	10	17	52	52	0.433467648376	0.439632141827	-0.363522009818	-0.3173828125	0.9365234375	0.3037109375	-1.375	6.5	1.5
19	02	10	17	52	52	0.434383457668	0.440303816723	-0.362667768085	-0.3037109375	0.9306640625	0.314453125	-6.1875	7.3125	1.0
19	02	10	17	52	52	0.435484819414	0.440550725512	-0.361388313349	-0.3037109375	0.87548828125	0.3310546875	-7.8125	6.4375	1.3125
19	02	10	17	52	52	0.436219491879	0.441224388806	-0.361085002652	-0.2900390625	0.876953125	0.3271484375	-1.125	6.5	2.375
19	02	10	17	52	52	0.436469820926	0.442207223131	-0.361090121745	-0.30322265625	0.86962890625	0.31689453125	2.125	5.6875	1.1875
19	02	10	17	52	52	0.43689326325	0.442813722392	-0.36090386499	-0.287109375	0.86669921875	0.31103515625	-0.9375	4.5625	1.0
19	02	10	17	52	52	0.437562571479	0.443421967052	-0.360291792361	-0.30126953125	0.8701171875	0.294921875	-4.625	5.5	1.375
19	02	10	17	52	52	0.438300024181	0.443671198409	-0.358953132184	-0.30419921875	0.84326171875	0.30126953125	-8.375	4.5	-0.125
19	02	10	17	52	52	0.43896014569	0.443842905932	-0.357967360188	-0.29443359375	0.83056640625	0.3134765625	-6.375	4.1875	0.625
19	02	10	17	52	52	0.439084985554	0.44457812549	-0.357603409836	-0.30517578125	0.85595703125	0.30224609375	-1.1875	3.8125	-0.125
19	02	10	17	52	52	0.439577156286	0.444948273997	-0.35711829234	-0.2978515625	0.884765625	0.3076171875	-4.0625	3.75	0.0
19	02	10	17	52	53	0.440249666991	0.445437691626	-0.356386774651	-0.2978515625	0.91845703125	0.31396484375	-5.625	5.625	-0.1875
19	02	10	17	52	53	0.441209217432	0.445603609969	-0.355518562946	-0.2900390625	0.9228515625	0.3154296875	-8.1875	5.0	0.0
19	02	10	17	52	53	0.442695356004	0.445075766714	-0.354742232055	-0.2802734375	0.92236328125	0.34228515625	-9.1875	3.75	3.375
19	02	10	17	52	53	0.444634588797	0.444085280452	-0.354792157128	-0.2705078125	0.92822265625	0.35400390625	-7.1875	2.125	8.625
19	02	10	17	52	53	0.446963601206	0.442263861032	-0.355776434716	-0.255859375	0.87353515625	0.35205078125	-4.9375	-2.0625	15.4375
19	02	10	17	52	53	0.449465593935	0.439760945723	-0.357973344437	-0.25	0.88525390625	0.3720703125	-0.6875	-5.9375	21.375
19	02	10	17	52	53	0.452026494324	0.437133912011	-0.360900980413	-0.2275390625	0.89208984375	0.35546875	1.375	-8.0625	23.6875
19	02	10	17	52	53	0.455392761246	0.434030012762	-0.364326416281	-0.1982421875	0.927734375	0.345703125	-0.0625	-7.4375	28.9375
19	02	10	17	52	53	0.459339831333	0.429982608523	-0.367545105539	-0.17919921875	0.8720703125	0.341796875	-4.6875	-10.125	32.625
19	02	10	17	52	53	0.461293806738	0.426443480772	-0.372367493372	-0.189453125	0.78173828125	0.35009765625	10.75	-17.0625	30.1875
19	02	10	17	52	53	0.461548334715	0.424499956088	-0.378662505762	-0.1904296875	0.8603515625	0.3251953125	23.5	-17.4375	25.25
19	02	10	17	52	53	0.462512978685	0.42302420893	-0.382436833524	-0.228515625	0.8740234375	0.2705078125	8.375	-10.625	21.8125
19	02	10	17	52	53	0.46375180827	0.42139279867	-0.383123203542	-0.26953125	0.8134765625	0.279296875	-6.375	-7.125	15.6875
19	02	10	17	52	53	0.464707428048	0.420214163661	-0.382556627135	-0.2548828125	0.81005859375	0.28125	-10.625	-4.125	7.6875
19	02	10	17	52	53	0.465028323651	0.420533554266	-0.380250223959	-0.2919921875	0.83935546875	0.2890625	-13.625	3.25	-1.5625
19	02	10	17	52	53	0.464342061194	0.422473152942	-0.375782606568	-0.3408203125	0.8056640625	0.27294921875	-17.5	9.125	-13.5625
19	02	10	17	52	53	0.462161835038	0.425784596041	-0.370547345551	-0.38232421875	0.77490234375	0.30712890625	-11.5625	12.0	-23.375
19	02	10	17	52	53	0.458123597288	0.43041401653	-0.366266947419	-0.515625	0.86181640625	0.31640625	-1.0625	8.5	-24.375
19	02	10	17	52	53	0.457452056188	0.431024205577	-0.362360621426	-0.61767578125	0.9755859375	0.35595703125	-19.5	-3.25	1.4375
19	02	10	17	52	53	0.462162979121	0.426518079517	-0.358646284379	-0.35595703125	0.82177734375	0.43701171875	-36.0625	-3.75	22.0625
19	02	10	17	52	53	0.464349001808	0.42431049692	-0.358942754946	-0.1826171875	0.6513671875	0.47900390625	2.875	-1.0625	14.375
19	02	10	17	52	53	0.461720166476	0.426991974179	-0.363699996303	-0.166015625	0.740234375	0.4248046875	44.5	1.75	-0.625
19	02	10	17	52	53	0.458425718047	0.431326660823	-0.3685837986	-0.2373046875	0.92919921875	0.35888671875	44.8125	5.125	-3.3125
19	02	10	17	52	53	0.457216424939	0.433717783422	-0.370973358801	-0.2294921875	0.9794921875	0.326171875	19.4375	5.75	-1.875
19	02	10	17	52	53	0.458008075257	0.433960209898	-0.370727751747	-0.1865234375	0.96875	0.306640625	-5.5	5.3125	-1.6875
19	02	10	17	52	53	0.460076531816	0.433160406779	-0.368891291894	-0.20751953125	0.94482421875	0.31298828125	-18.1875	6.1875	1.4375
19	02	10	17	52	53	0.461806185393	0.43275255808	-0.368053303981	-0.1943359375	0.9404296875	0.3134765625	-11.25	6.125	2.3125
19	02	10	17	52	53	0.463138798593	0.43292613316	-0.367556911588	-0.18896484375	0.90576171875	0.302734375	-6.5625	6.9375	1.5
19	02	10	17	52	53	0.463373724222	0.433955107905	-0.367427531588	-0.23291015625	0.873046875	0.3125	1.0625	6.625	-0.25
19	02	10	17	52	53	0.462935928027	0.435287941818	-0.367785352972	-0.26708984375	0.85205078125	0.314453125	6.6875	4.3125	0.3125
19	02	10	17	52	53	0.463081340002	0.435920249149	-0.36780389546	-0.2705078125	0.86767578125	0.33056640625	2.25	3.0625	2.75
19	02	10	17	52	53	0.463729351185	0.436020332307	-0.366930884355	-0.2744140625	0.86376953125	0.34228515625	-4.375	3.3125	2.0625
19	02	10	17	52	53	0.464604404543	0.435856549244	-0.365055037253	-0.2685546875	0.83935546875	0.36083984375	-9.0	4.5	-0.1875
19	02	10	17	52	53	0.465272776172	0.435914753695	-0.363343675266	-0.26611328125	0.8212890625	0.38232421875	-5.625	5.4375	-0.9375
19	02	10	17	52	53	0.465577744122	0.436585946999	-0.362489017087	-0.26513671875	0.82861328125	0.376953125	1.125	6.0	-0.0625
19	02	10	17	52	53	0.4660653169	0.437256669757	-0.362427429511	-0.26025390625	0.86865234375	0.36181640625	3.125	5.5625	3.375
19	02	10	17	52	53	0.467036552939	0.437678923305	-0.362850536752	-0.24755859375	0.91162109375	0.33251953125	0.875	5.3125	6.3125
19	02	10	17	52	53	0.457216424939	0.433717783422	-0.370973358801	-0.2294921875	0.9794921875	0.326171875	19.4375	5.75	-1.875
19	02	10	17	52	53	0.458008075257	0.433960209898	-0.370727751747	-0.1865234375	0.96875	0.306640625	-5.5	5.3125	-1.6875
19	02	10	17	52	53	0.468319888364	0.437863531751	-0.362790748917	-0.2509765625	0.94921875	0.31787109375	-4.125	5.3125	5.875
19	02	10	17	52	53	0.469299128467	0.438110176113	-0.362243507277	-0.26904296875	0.95361328125	0.31982421875	-6.1875	4.75	3.4375
19	02	10	17	52	53	0.469673888224	0.438789549375	-0.361822847224	-0.2880859375	0.9404296875	0.31640625	-3.25	4.25	1.5625
19	02	10	17	52	53	0.469710356938	0.439621063023	-0.361742890537	-0.26953125	0.91455078125	0.32373046875	0.625	4.0	0.5625
19	02	10	17	52	53	0.469597728228	0.440606446592	-0.361689126265	-0.265625	0.884765625	0.3310546875	3.375	4.3125	-0.25
19	02	10	17	52	53	0.469501769173	0.441546515627	-0.362075467334	-0.26416015625	0.86474609375	0.330078125	5.375	3.8125	1.9375
19	02	10	17	52	53	0.469604427459	0.442321716376	-0.362182567266	-0.2587890625	0.85009765625	0.32373046875	3.125	4.0	1.875
19	02	10	17	52	53	0.469647706521	0.443159453807	-0.361375447733	-0.28662109375	0.8154296875	0.33154296875	0.625	4.8125	0.25
19	02	10	17	52	53	0.469612076952	0.444098969574	-0.360540491104	-0.302734375	0.8271484375	0.33203125	0.6875	4.9375	0.0625
19	02	10	17	52	53	0.469899603505	0.444875725412	-0.359367302954	-0.31591796875	0.85546875	0.32763671875	-3.125	5.125	1.0625
19	02	10	17	52	53	0.470383885337	0.445604352776	-0.357838422178	-0.32080078125	0.8720703125	0.32666015625	-5.5	6.1875	0.75
19	02	10	17	52	53	0.470888478477	0.446535334872	-0.356080801482	-0.33056640625	0.87744140625	0.32080078125	-6.75	7.5625	0.3125
19	02	10	17	52	53	0.471504940376	0.447578734988	-0.35474261663	-0.3330078125	0.908203125	0.31689453125	-5.375	7.6875	1.5
19	02	10	17	52	54	0.471684032977	0.448856674238	-0.353824060451	-0.3388671875	0.89697265625	0.3193359375	-1.25	6.625	1.625
19	02	10	17	52	54	0.471622945428	0.450077339146	-0.353396771583	-0.32861328125	0.90966796875	0.310546875	0.625	5.25	1.25
19	02	10	17	52	54	0.471306490471	0.451409324466	-0.352961076715	-0.32177734375	0.8955078125	0.3203125	2.1875	5.125	-1.0
19	02	10	17	52	54	0.470874732188	0.452747733425	-0.352530454066	-0.3115234375	0.88525390625	0.318359375	2.5625	5.0	-1.75
19	02	10	17	52	54	0.470997925922	0.453542255738	-0.351920959034	-0.298828125	0.88330078125	0.3251953125	-0.4375	4.8125	-0.25
19	02	10	17	52	54	0.471487583936	0.45397082839	-0.350823382843	-0.28662109375	0.83935546875	0.32666015625	-3.75	5.1875	0.0
19	02	10	17	52	54	0.471858428348	0.454463569716	-0.34978924497	-0.2841796875	0.81787109375	0.33056640625	-2.4375	5.125	-0.3125
19	02	10	17	52	54	0.472154776203	0.455187476851	-0.349172372629	-0.28564453125	0.8330078125	0.3232421875	0.0625	5.625	0.6875
19	02	10	17	52	54	0.472408422486	0.45617319763	-0.348569056953	-0.29833984375	0.84814453125	0.31298828125	0.0625	6.3125	1.0625
19	02	10	17	52	54	0.472793283607	0.457045714905	-0.347789327394	-0.31591796875	0.85302734375	0.310546875	-1.6875	6.125	1.6875
19	02	10	17	52	54	0.473141637086	0.458005010926	-0.346921706037	-0.33154296875	0.873046875	0.30810546875	-2.25	6.0625	1.75
19	02	10	17	52	54	0.473462869472	0.458814024729	-0.345956883353	-0.33544921875	0.88818359375	0.3037109375	-3.75	5.0	1.125
19	02	10	17	52	54	0.473862568995	0.459336642743	-0.345143331745	-0.322265625	0.892578125	0.3203125	-3.5625	4.4375	1.125
19	02	10	17	52	54	0.473758026085	0.460208131497	-0.344667814133	-0.298828125	0.8828125	0.32763671875	1.0	4.875	-1.5
19	02	10	17	52	54	0.47345273628	0.46155080466	-0.344118412678	-0.29736328125	0.88134765625	0.31982421875	2.375	6.125	-3.4375
19	02	10	17	52	54	0.473437796079	0.462634845208	-0.343314116662	-0.30078125	0.869140625	0.32275390625	0.25	6.8125	-2.5
19	02	10	17	52	54	0.473816628424	0.463379601055	-0.342224634236	-0.28271484375	0.859375	0.32177734375	-2.8125	7.25	-2.1875
19	02	10	17	52	54	0.474121637752	0.464111860642	-0.340210351291	-0.294921875	0.837890625	0.32373046875	-6.6875	7.6875	-5.4375
19	02	10	17	52	54	0.474244657809	0.464845214141	-0.337830653922	-0.3017578125	0.8203125	0.33203125	-7.3125	7.5625	-7.4375
19	02	10	17	52	54	0.474309402886	0.465703351438	-0.335697042321	-0.31298828125	0.8310546875	0.32861328125	-6.25	7.6875	-6.5
19	02	10	17	52	54	0.474611050244	0.466676451924	-0.333558306273	-0.33837890625	0.84375	0.32275390625	-6.625	8.3125	-3.875
19	02	10	17	52	54	0.475157510751	0.467650205186	-0.331786284964	-0.35595703125	0.859375	0.32080078125	-6.1875	8.375	-0.5
19	02	10	17	52	54	0.475719689372	0.468517364078	-0.33020830376	-0.3515625	0.87353515625	0.3125	-6.25	7.6875	-0.4375
19	02	10	17	52	54	0.475889898896	0.469359153842	-0.328429337689	-0.36181640625	0.869140625	0.32080078125	-6.4375	6.25	-2.625
19	02	10	17	52	54	0.475690290842	0.47031939713	-0.326892121857	-0.3701171875	0.85888671875	0.32763671875	-3.5	5.375	-3.75
19	02	10	17	52	54	0.475152376686	0.471551350324	-0.325740299855	-0.3759765625	0.83642578125	0.32421875	0.125	4.875	-3.0
19	02	10	17	52	54	0.474789906089	0.472714722028	-0.325071479603	-0.36181640625	0.82080078125	0.3291015625	2.75	4.75	-1.1875
19	02	10	17	52	54	0.474418130976	0.473868823993	-0.324701461057	-0.35302734375	0.81201171875	0.33447265625	4.75	5.0	-0.0625
19	02	10	17	52	54	0.473988310789	0.475025884995	-0.324272456248	-0.3388671875	0.8056640625	0.32275390625	4.125	4.9375	-1.5625
19	02	10	17	52	54	0.473675971911	0.475812121765	-0.323596186454	-0.3544921875	0.814453125	0.3369140625	1.875	3.8125	-1.5
19	02	10	17	52	54	0.473930196189	0.476249493994	-0.323053770564	-0.357421875	0.82568359375	0.32861328125	-0.1875	3.3125	2.4375
19	02	10	17	52	54	0.474854993604	0.476319841913	-0.322571804781	-0.35595703125	0.826171875	0.32421875	-3.0625	3.625	6.25
19	02	10	17	52	54	0.475893574878	0.476381858654	-0.322206256481	-0.34814453125	0.833984375	0.31689453125	-3.0	3.6875	6.75
19	02	10	17	52	54	0.476311307083	0.476921649609	-0.32207775083	-0.37646484375	0.84765625	0.3115234375	0.0625	3.25	5.8125
19	02	10	17	52	54	0.476623993252	0.477356415831	-0.322082829093	-0.39892578125	0.869140625	0.32373046875	0.6875	1.4375	6.625
19	02	10	17	52	54	0.477164918299	0.477348020723	-0.322199233013	-0.4111328125	0.89111328125	0.32275390625	-1.0625	-0.3125	8.5
19	02	10	17	52	54	0.477784491764	0.477174138555	-0.322266494189	-0.3955078125	0.888671875	0.3486328125	-0.75	-0.375	8.0625
19	02	10	17	52	54	0.47786066686	0.477616517841	-0.322459816454	-0.3837890625	0.880859375	0.34619140625	3.4375	1.625	5.0625
19	02	10	17	52	54	0.477485166494	0.478644851802	-0.322270443447	-0.38525390625	0.869140625	0.3447265625	4.9375	3.5625	1.0625
19	02	10	17	52	54	0.47736334155	0.479438568965	-0.322148538128	-0.375	0.86474609375	0.341796875	3.4375	3.4375	2.25
19	02	10	17	52	54	0.477791264411	0.47980545855	-0.321843809049	-0.341796875	0.86376953125	0.33447265625	0.3125	3.875	2.5625
19	02	10	17	52	54	0.478457531693	0.479983419981	-0.321230002462	-0.33935546875	0.85205078125	0.32080078125	-3.1875	3.875	2.5625
19	02	10	17	52	54	0.479250748114	0.480105245118	-0.320619482915	-0.33447265625	0.869140625	0.306640625	-4.875	3.75	3.1875
19	02	10	17	52	54	0.48028753573	0.480104429541	-0.319825478107	-0.3359375	0.8681640625	0.298828125	-6.9375	3.9375	3.4375
19	02	10	17	52	54	0.481026650886	0.480172143449	-0.319097491541	-0.35595703125	0.857421875	0.30517578125	-5.5	3.0	3.375
19	02	10	17	52	54	0.481381334572	0.480465812825	-0.318784672305	-0.359375	0.8623046875	0.310546875	-1.8125	2.0625	3.5625
19	02	10	17	52	54	0.481628749897	0.480713221922	-0.318786840795	-0.35986328125	0.88232421875	0.32958984375	0.25	1.4375	3.5
19	02	10	17	52	54	0.481988033913	0.480828381812	-0.318721224908	-0.34423828125	0.89306640625	0.33740234375	-0.375	1.8125	2.625
19	02	10	17	52	54	0.482504675312	0.480856651754	-0.318068546876	-0.34033203125	0.8994140625	0.34521484375	-3.375	3.125	0.625
19	02	10	17	52	55	0.483039828456	0.480903564368	-0.316716410141	-0.35498046875	0.89208984375	0.36279296875	-5.8125	4.1875	-1.125
19	02	10	17	52	55	0.483646432928	0.480838793362	-0.315004952087	-0.3759765625	0.88037109375	0.37158203125	-6.9375	3.9375	-0.6875
19	02	10	17	52	55	0.48413736393	0.480780385234	-0.313175594342	-0.3642578125	0.865234375	0.3740234375	-7.1875	4.375	-2.25
19	02	10	17	52	55	0.484179778259	0.481372231329	-0.311088406629	-0.36669921875	0.8232421875	0.36181640625	-4.625	6.125	-4.9375
19	02	10	17	52	55	0.484004724085	0.48241782335	-0.30932357398	-0.37646484375	0.81982421875	0.33935546875	-2.5625	7.25	-4.3125
19	02	10	17	52	55	0.484195254962	0.483462828004	-0.307497251292	-0.375	0.8232421875	0.3115234375	-5.4375	7.8125	-2.8125
19	02	10	17	52	55	0.484676777726	0.484188499899	-0.305478815328	-0.3779296875	0.80908203125	0.3046875	-7.875	7.125	-1.8125
19	02	10	17	52	55	0.484999547516	0.484938510573	-0.30371982739	-0.36474609375	0.8115234375	0.29296875	-7.3125	6.8125	-2.4375
19	02	10	17	52	55	0.484972568683	0.485888071896	-0.302055026732	-0.38720703125	0.8056640625	0.30517578125	-4.4375	5.8125	-2.625
19	02	10	17	52	55	0.484926265614	0.486574221457	-0.301514883843	-0.376953125	0.826171875	0.3095703125	-0.75	3.375	0.375
19	02	10	17	52	55	0.485174114271	0.48700519031	-0.301212008294	-0.36474609375	0.83642578125	0.32958984375	-0.125	2.875	1.8125
19	02	10	17	52	55	0.485174342915	0.48749370699	-0.30109007845	-0.36181640625	0.8388671875	0.34326171875	2.1875	2.875	0.9375
19	02	10	17	52	55	0.484980394023	0.488154189705	-0.300900244467	-0.37255859375	0.853515625	0.3515625	2.875	3.1875	-0.125
19	02	10	17	52	55	0.485171375094	0.488345222308	-0.299989597256	-0.3720703125	0.83984375	0.3681640625	-1.375	3.4375	-0.8125
19	02	10	17	52	55	0.485428162467	0.488418981022	-0.298471484278	-0.38916015625	0.80517578125	0.37158203125	-3.875	3.25	-0.75
19	02	10	17	52	55	0.485898940277	0.488523441525	-0.297178990103	-0.3759765625	0.794921875	0.357421875	-3.625	4.4375	0.4375
19	02	10	17	52	55	0.486512219134	0.489014665625	-0.295899038811	-0.37060546875	0.79736328125	0.33251953125	-4.0	6.5625	1.0625
19	02	10	17	52	55	0.486993504058	0.489801086611	-0.294368927193	-0.38671875	0.810546875	0.3095703125	-5.625	7.0625	-0.25
19	02	10	17	52	55	0.487785261404	0.490287663271	-0.292658950004	-0.400390625	0.82958984375	0.28955078125	-9.6875	6.0625	1.0625
19	02	10	17	52	55	0.488960962965	0.490364795463	-0.291203689215	-0.3818359375	0.830078125	0.29345703125	-10.625	5.0625	3.125
19	02	10	17	52	55	0.489747078954	0.490723643419	-0.290405857635	-0.35791015625	0.83154296875	0.29248046875	-6.125	4.9375	1.9375
19	02	10	17	52	55	0.489612005599	0.491748183634	-0.289909876165	-0.36376953125	0.8349609375	0.29931640625	-0.0625	5.0625	-1.75
19	02	10	17	52	55	0.489201965799	0.492681006604	-0.28979799546	-0.373046875	0.84814453125	0.322265625	2.75	3.25	-1.875
19	02	10	17	52	55	0.489252445862	0.492914515068	-0.289486570699	-0.3623046875	0.857421875	0.34375	-0.4375	2.3125	-0.8125
19	02	10	17	52	55	0.489762928785	0.492631679738	-0.288339989479	-0.3505859375	0.8115234375	0.369140625	-4.75	2.75	-1.625
19	02	10	17	52	55	0.489976039199	0.492478408109	-0.286795890408	-0.37646484375	0.7998046875	0.38720703125	-4.4375	3.3125	-3.0
19	02	10	17	52	55	0.490479382622	0.492249405282	-0.284729507209	-0.40576171875	0.80322265625	0.39306640625	-7.0625	3.6875	-2.1875
19	02	10	17	52	55	0.491591102375	0.491652139264	-0.2822345738	-0.4140625	0.80615234375	0.392578125	-11.875	4.5625	0.0
19	02	10	17	52	55	0.492684388398	0.491402627724	-0.2799121166	-0.42626953125	0.8232421875	0.38916015625	-10.8125	6.0625	1.0
19	02	10	17	52	55	0.493468699655	0.491820752235	-0.277526552546	-0.4443359375	0.84326171875	0.36181640625	-9.9375	7.25	-0.5
19	02	10	17	52	55	0.494093172117	0.492323103928	-0.275031974498	-0.4365234375	0.8271484375	0.35546875	-10.25	7.8125	-2.125
19	02	10	17	52	55	0.494330642682	0.493170958497	-0.272953035445	-0.42333984375	0.8037109375	0.3359375	-6.6875	7.5625	-2.9375
19	02	10	17	52	55	0.493844990078	0.494699498774	-0.271794801732	-0.4140625	0.7880859375	0.3203125	0.75	7.375	-3.125
19	02	10	17	52	55	0.493099910066	0.496334752897	-0.271543693512	-0.4072265625	0.78662109375	0.31396484375	5.375	5.1875	-1.9375
19	02	10	17	52	55	0.492309579482	0.49774170849	-0.271728520686	-0.40576171875	0.7841796875	0.3115234375	6.5625	3.625	-0.4375
19	02	10	17	52	55	0.491387104282	0.49926052826	-0.271968815884	-0.43896484375	0.77685546875	0.310546875	8.125	3.0	1.1875
19	02	10	17	52	55	0.491027778069	0.5003051208	-0.27215573181	-0.43603515625	0.7900390625	0.30615234375	4.25	2.0625	3.25
19	02	10	17	52	55	0.491028747559	0.500794390767	-0.271545916456	-0.43212890625	0.7802734375	0.310546875	-1.375	2.0625	2.1875
19	02	10	17	52	55	0.491031121919	0.500979919044	-0.270448589338	-0.43212890625	0.75830078125	0.33154296875	-3.0625	1.375	0.5
19	02	10	17	52	55	0.49128823326	0.501176255845	-0.26972328274	-0.439453125	0.76220703125	0.3515625	-0.9375	2.0625	3.5
19	02	10	17	52	55	0.491703343841	0.501469050769	-0.269655582558	-0.45361328125	0.7939453125	0.3466796875	1.25	1.6875	7.25
19	02	10	17	52	55	0.492126276013	0.501769827	-0.26953114658	-0.4501953125	0.81640625	0.33251953125	-0.375	1.875	6.1875
19	02	10	17	52	55	0.49224338143	0.502436145807	-0.269284290003	-0.46875	0.8330078125	0.33837890625	0.8125	2.6875	4.875
19	02	10	17	52	55	0.492177062898	0.503346259638	-0.268915195824	-0.4697265625	0.86083984375	0.333984375	1.0625	3.5	2.875
19	02	10	17	52	55	0.492379587907	0.503915442886	-0.268010260382	-0.4599609375	0.8515625	0.33935546875	-2.8125	3.9375	1.0625
19	02	10	17	52	55	0.492510694227	0.504351947751	-0.26691650339	-0.44384765625	0.82861328125	0.345703125	-2.875	3.75	-0.25
19	02	10	17	52	55	0.492564056461	0.504893416982	-0.266118870653	-0.41650390625	0.81787109375	0.34765625	-0.6875	4.375	-0.8125
19	02	10	17	52	55	0.492613522065	0.505491908034	-0.265380199967	-0.40478515625	0.81396484375	0.34765625	-0.25	5.0	-1.4375
19	02	10	17	52	55	0.492679117051	0.506167977912	-0.264406087099	-0.40380859375	0.79931640625	0.33740234375	-1.125	5.1875	-1.8125
19	02	10	17	52	55	0.492849480025	0.506521094084	-0.263300638616	-0.41357421875	0.80029296875	0.34375	-2.9375	4.625	-1.625
19	02	10	17	52	55	0.49334872832	0.506471328418	-0.261658542411	-0.4072265625	0.76708984375	0.3505859375	-6.3125	4.125	-1.6875
19	02	10	17	52	56	0.493648996807	0.506466292718	-0.259885933284	-0.4326171875	0.744140625	0.359375	-5.625	3.6875	-1.0
19	02	10	17	52	56	0.494251485109	0.506519273268	-0.25866112545	-0.44775390625	0.7734375	0.349609375	-4.8125	3.6875	2.8125
19	02	10	17	52	56	0.495470204124	0.506395206161	-0.257195299357	-0.4677734375	0.8037109375	0.3349609375	-9.0625	4.125	5.5
19	02	10	17	52	56	0.496643022928	0.506164506469	-0.255493141696	-0.4873046875	0.8134765625	0.3427734375	-10.6875	3.5	5.1875
19	02	10	17	52	56	0.497439551423	0.506228667424	-0.25427400874	-0.47802734375	0.833984375	0.34228515625	-7.4375	3.125	3.625
19	02	10	17	52	56	0.49767736582	0.506527404825	-0.253233185037	-0.47119140625	0.8251953125	0.34765625	-4.125	2.875	1.375
19	02	10	17	52	56	0.4974993832	0.507020902496	-0.253052685897	-0.44775390625	0.8115234375	0.35498046875	1.875	1.75	1.125
19	02	10	17	52	56	0.497014158906	0.507756451914	-0.253786672323	-0.4111328125	0.81982421875	0.3544921875	7.4375	1.125	0.75
19	02	10	17	52	56	0.496515869772	0.508234498782	-0.254941215493	-0.37255859375	0.81103515625	0.357421875	8.6875	0.25	0.4375
19	02	10	17	52	56	0.496043065064	0.508616569605	-0.255986786622	-0.35107421875	0.80908203125	0.3671875	8.5625	0.625	-0.9375
19	02	10	17	52	56	0.495909795648	0.508666121468	-0.256652392702	-0.34130859375	0.80224609375	0.37451171875	5.5	1.25	-1.25
19	02	10	17	52	56	0.496278257771	0.508302217527	-0.256653557241	-0.34423828125	0.7783203125	0.376953125	1.1875	1.4375	-0.4375
19	02	10	17	52	56	0.496894350384	0.507575656282	-0.25641237759	-0.357421875	0.759765625	0.38720703125	-1.0625	0.75	1.1875
19	02	10	17	52	56	0.497790423074	0.506762369149	-0.256036148209	-0.37646484375	0.77099609375	0.384765625	-3.0	0.8125	3.125
19	02	10	17	52	56	0.498898900907	0.506101013741	-0.255308796488	-0.39111328125	0.7900390625	0.37158203125	-5.75	2.0625	3.6875
19	02	10	17	52	56	0.500188903312	0.50537695173	-0.254031264867	-0.421875	0.8037109375	0.3779296875	-8.8125	2.75	3.375
19	02	10	17	52	56	0.501533558851	0.504585363396	-0.252628380198	-0.43212890625	0.81884765625	0.37744140625	-10.375	2.375	3.75
19	02	10	17	52	56	0.502624008038	0.504027815225	-0.251281486471	-0.4248046875	0.81689453125	0.37548828125	-9.0	3.125	2.25
19	02	10	17	52	56	0.503182554003	0.503976024794	-0.250553661352	-0.42431640625	0.83154296875	0.3837890625	-2.9375	2.875	1.125
19	02	10	17	52	56	0.503429738098	0.504162177096	-0.250311027636	-0.4169921875	0.85302734375	0.37744140625	-0.5625	2.5	0.5625
19	02	10	17	52	56	0.503842980326	0.504026084983	-0.250120961039	-0.404296875	0.8544921875	0.39013671875	-1.5625	1.75	0.8125
19	02	10	17	52	56	0.504223032407	0.503917849601	-0.250005754841	-0.38134765625	0.85791015625	0.39599609375	-0.3125	2.5	-0.5625
19	02	10	17	52	56	0.504278855682	0.504034711961	-0.24951488284	-0.39697265625	0.83984375	0.40380859375	0.3125	3.25	-2.4375
19	02	10	17	52	56	0.504141945931	0.504264014199	-0.248897198003	-0.390625	0.81591796875	0.4140625	1.625	3.75	-3.6875
19	02	10	17	52	56	0.504088755487	0.504454965989	-0.248107614851	-0.4072265625	0.79248046875	0.42041015625	1.625	4.125	-2.3125
19	02	10	17	52	56	0.504281100663	0.504525245471	-0.247379726578	-0.3955078125	0.77392578125	0.40625	0.5625	3.75	-1.3125
19	02	10	17	52	56	0.504644308926	0.504705344764	-0.246279606497	-0.396484375	0.73974609375	0.3828125	-1.4375	5.125	-0.25
19	02	10	17	52	56	0.505248098339	0.505064993206	-0.24529984383	-0.416015625	0.74365234375	0.3564453125	-2.4375	5.8125	2.4375
19	02	10	17	52	56	0.506169474181	0.505376009431	-0.244204035475	-0.43603515625	0.76416015625	0.3251953125	-6.125	5.3125	4.875
19	02	10	17	52	56	0.507565303806	0.505123912253	-0.243162598649	-0.44189453125	0.78076171875	0.32470703125	-9.4375	3.375	6.9375
19	02	10	17	52	56	0.508494225851	0.505198260397	-0.242497606447	-0.431640625	0.7919921875	0.318359375	-6.375	2.875	5.1875
19	02	10	17	52	56	0.508729321743	0.505677556165	-0.242188116218	-0.45458984375	0.80078125	0.31884765625	-1.875	1.8125	3.8125
19	02	10	17	52	56	0.508856005441	0.505987319792	-0.242739634598	-0.43212890625	0.818359375	0.3427734375	1.875	-0.125	4.75
19	02	10	17	52	56	0.508794277737	0.506230774899	-0.243837948604	-0.42041015625	0.830078125	0.3623046875	5.4375	-1.1875	4.75
19	02	10	17	52	56	0.508371515757	0.506479389813	-0.245488082168	-0.40478515625	0.8671875	0.37890625	8.4375	-2.625	2.75
19	02	10	17	52	56	0.508126248878	0.506234127111	-0.246342046904	-0.3974609375	0.8759765625	0.416015625	5.125	-2.0	-0.25
19	02	10	17	52	56	0.508307138077	0.505682593536	-0.246463043174	-0.38330078125	0.8603515625	0.43994140625	1.5625	-0.125	-1.125
19	02	10	17	52	56	0.50868126068	0.505263196053	-0.246039616247	-0.3798828125	0.8193359375	0.44677734375	0.9375	2.5	-1.25
19	02	10	17	52	56	0.50903180556	0.50488142633	-0.245665829422	-0.38232421875	0.796875	0.44091796875	1.25	2.5625	-0.0625
19	02	10	17	52	56	0.509648181566	0.504643253316	-0.245180448545	-0.3798828125	0.78564453125	0.41357421875	-0.375	3.625	1.125
19	02	10	17	52	56	0.510447410532	0.504465843363	-0.244511817122	-0.40087890625	0.783203125	0.3837890625	-2.875	3.625	2.875
19	02	10	17	52	56	0.51123898771	0.504525008646	-0.243717440058	-0.39892578125	0.78125	0.35400390625	-4.25	4.3125	2.5625
19	02	10	17	52	56	0.511725180074	0.504950192599	-0.242800902473	-0.4306640625	0.7685546875	0.33251953125	-3.6875	4.375	2.5625
19	02	10	17	52	56	0.511900690306	0.505553048504	-0.242675228885	-0.4443359375	0.78857421875	0.32470703125	0.0625	2.125	4.4375
19	02	10	17	52	56	0.512041878576	0.506121260836	-0.243416737604	-0.43408203125	0.81787109375	0.3203125	2.625	0.625	6.3125
19	02	10	17	52	56	0.511964505086	0.50653235905	-0.244568642332	-0.419921875	0.84033203125	0.33740234375	4.8125	-1.0625	5.1875
19	02	10	17	52	56	0.511452023409	0.507118718676	-0.24596081794	-0.40185546875	0.84521484375	0.35791015625	8.625	-1.125	2.3125
19	02	10	17	52	56	0.510444598977	0.50788108431	-0.247501237457	-0.37890625	0.85498046875	0.37939453125	12.125	-0.6875	-1.125
19	02	10	17	52	56	0.509775819272	0.508310946228	-0.248784271953	-0.3603515625	0.8525390625	0.39990234375	10.5	-0.0625	-1.875
19	02	10	17	52	57	0.509581006559	0.508360307058	-0.249755117839	-0.341796875	0.8310546875	0.41357421875	7.9375	0.875	-0.625
19	02	10	17	52	57	0.509879584728	0.508048559166	-0.250118091718	-0.3232421875	0.787109375	0.4130859375	4.5625	2.3125	-0.0625
19	02	10	17	52	57	0.510131914804	0.507995684005	-0.25000003865	-0.337890625	0.76611328125	0.3935546875	2.625	3.3125	-0.6875
19	02	10	17	52	57	0.510316892867	0.50805858345	-0.249329566722	-0.37060546875	0.75927734375	0.3701171875	-0.25	3.25	-1.125
19	02	10	17	52	57	0.510870654311	0.508001966049	-0.248294124461	-0.40966796875	0.759765625	0.34521484375	-4.4375	2.9375	1.375
19	02	10	17	52	57	0.511710089895	0.507864940126	-0.247371301806	-0.423828125	0.78173828125	0.3330078125	-6.25	2.8125	4.1875
19	02	10	17	52	57	0.51250563645	0.507989092792	-0.246578869985	-0.41259765625	0.79736328125	0.31982421875	-5.6875	3.75	3.0625
19	02	10	17	52	57	0.512508918368	0.508663728198	-0.245970101349	-0.42138671875	0.791015625	0.33154296875	-0.5625	3.75	0.5
19	02	10	17	52	57	0.511841510559	0.509888382926	-0.246094081872	-0.39892578125	0.8017578125	0.3408203125	6.625	4.375	-1.75
19	02	10	17	52	57	0.511224097425	0.511163063029	-0.24651792377	-0.3876953125	0.80810546875	0.34619140625	8.25	4.75	-1.3125
19	02	10	17	52	57	0.510866189488	0.511903791067	-0.247132282107	-0.3828125	0.8232421875	0.36181640625	7.1875	3.25	0.125
19	02	10	17	52	57	0.510987510248	0.512086145602	-0.247620201753	-0.369140625	0.8310546875	0.3720703125	4.0625	2.0625	0.75
19	02	10	17	52	57	0.51123642893	0.512029895212	-0.247683551647	-0.35546875	0.8291015625	0.38232421875	1.5625	2.3125	-0.75
19	02	10	17	52	57	0.51106399188	0.512406809009	-0.247383537453	-0.384765625	0.8232421875	0.3779296875	2.4375	3.4375	-2.875
19	02	10	17	52	57	0.511241361782	0.512523127374	-0.246953504032	-0.3984375	0.8349609375	0.38037109375	0.125	3.3125	-1.125
19	02	10	17	52	57	0.512092495427	0.512214567536	-0.24615840692	-0.40185546875	0.83447265625	0.380859375	-4.3125	3.4375	1.375
19	02	10	17	52	57	0.512563811506	0.511953471173	-0.245295779762	-0.4111328125	0.82275390625	0.37744140625	-3.75	2.5	-0.25
19	02	10	17	52	57	0.512699123826	0.512088767726	-0.244203475527	-0.404296875	0.80419921875	0.37060546875	-2.75	3.8125	-2.8125
19	02	10	17	52	57	0.512402896582	0.512891189992	-0.243109081249	-0.419921875	0.77490234375	0.34521484375	0.0	5.125	-3.125
19	02	10	17	52	57	0.512197828636	0.513845748247	-0.242244182776	-0.42822265625	0.76611328125	0.32275390625	0.6875	5.25	-1.0
19	02	10	17	52	57	0.512334172721	0.514592495855	-0.241457468106	-0.431640625	0.75830078125	0.30126953125	-1.5625	4.75	1.625
19	02	10	17	52	57	0.512383621147	0.515374305773	-0.241024767113	-0.4375	0.7607421875	0.3056640625	0.25	3.75	2.6875
19	02	10	17	52	57	0.511779089275	0.516600860062	-0.240966469226	-0.45751953125	0.7861328125	0.29248046875	3.75	2.6875	1.1875
19	02	10	17	52	57	0.511182921962	0.517591782477	-0.240545897965	-0.482421875	0.79541015625	0.2978515625	1.375	1.375	0.75
19	02	10	17	52	57	0.51080740526	0.518375826607	-0.240175306452	-0.47265625	0.7880859375	0.322265625	2.0	1.75	1.1875
19	02	10	17	52	57	0.510336473352	0.519309019887	-0.240244511316	-0.4677734375	0.7978515625	0.3330078125	5.1875	2.4375	2.4375
19	02	10	17	52	57	0.510203105272	0.519968926164	-0.240605412248	-0.4462890625	0.810546875	0.35009765625	5.4375	2.4375	3.5
19	02	10	17	52	57	0.510019173411	0.5206394865	-0.240849169253	-0.439453125	0.82373046875	0.3525390625	5.25	2.875	2.0625
19	02	10	17	52	57	0.509522994333	0.521485920409	-0.240906475639	-0.45263671875	0.83056640625	0.33935546875	4.6875	2.25	-0.0625
19	02	10	17	52	57	0.509100531064	0.52204014413	-0.240420452207	-0.47314453125	0.80126953125	0.33740234375	1.5	1.625	0.125
19	02	10	17	52	57	0.509038879783	0.522344692229	-0.240053946545	-0.47607421875	0.77685546875	0.33544921875	1.25	0.875	3.1875
19	02	10	17	52	57	0.508713562208	0.523117449512	-0.240105477351	-0.46826171875	0.7734375	0.32470703125	4.9375	2.125	3.5625
19	02	10	17	52	57	0.508007855618	0.524426708575	-0.240118094918	-0.490234375	0.78759765625	0.30810546875	6.1875	2.9375	2.4375
19	02	10	17	52	57	0.507642463253	0.525587261161	-0.239813302648	-0.4970703125	0.80126953125	0.30322265625	3.25	3.75	3.0625
19	02	10	17	52	57	0.507814946995	0.526430759355	-0.239258965411	-0.49853515625	0.81494140625	0.2939453125	-0.6875	4.1875	4.1875
19	02	10	17	52	57	0.508176046402	0.526913741122	-0.2385851748	-0.4814453125	0.80712890625	0.29638671875	-2.9375	2.9375	3.875
19	02	10	17	52	57	0.508196968159	0.527484770457	-0.238350848025	-0.44677734375	0.81640625	0.29541015625	-0.1875	2.875	1.375
19	02	10	17	52	57	0.507444613245	0.528684777475	-0.238341498042	-0.46484375	0.8232421875	0.291015625	4.5	2.5625	-0.875
19	02	10	17	52	57	0.507031892917	0.529432362966	-0.238653509246	-0.46044921875	0.8408203125	0.29248046875	3.0625	0.8125	1.1875
19	02	10	17	52	57	0.507266666352	0.529544651337	-0.239076348466	-0.439453125	0.8330078125	0.31005859375	1.125	0.375	3.9375
19	02	10	17	52	57	0.507190104407	0.529772575963	-0.239435232201	-0.435546875	0.8134765625	0.322265625	3.0625	0.0	2.3125
19	02	10	17	52	57	0.50664420104	0.530142335891	-0.239436839017	-0.46337890625	0.82080078125	0.34228515625	4.0625	0.0625	-0.4375
19	02	10	17	52	57	0.506346108555	0.530149746734	-0.23889087137	-0.48974609375	0.84814453125	0.3759765625	1.0	0.25	-0.9375
19	02	10	17	52	57	0.506981159437	0.529443122677	-0.237559676442	-0.4873046875	0.85791015625	0.39013671875	-6.0	1.125	0.125
19	02	10	17	52	57	0.507942190388	0.52851134662	-0.235660273623	-0.478515625	0.84130859375	0.40625	-9.375	2.625	-0.75
19	02	10	17	52	57	0.508602392182	0.528133505286	-0.233457836325	-0.478515625	0.818359375	0.39404296875	-7.9375	4.875	-2.3125
19	02	10	17	52	57	0.509320391243	0.528057522472	-0.231437138837	-0.4736328125	0.8212890625	0.3720703125	-7.625	6.1875	-2.0625
19	02	10	17	52	57	0.509953331622	0.528508186536	-0.229433222449	-0.48828125	0.826171875	0.3330078125	-7.8125	7.5	-0.875
19	02	10	17	52	57	0.510681287417	0.528930803962	-0.227356017166	-0.4970703125	0.845703125	0.306640625	-10.4375	7.1875	-1.125
19	02	10	17	52	57	0.51141367043	0.529296974575	-0.224670452423	-0.50537109375	0.83447265625	0.29931640625	-13.5	7.3125	-2.9375
19	02	10	17	52	58	0.51190965044	0.529793223539	-0.221805135293	-0.4970703125	0.818359375	0.2919921875	-13.1875	7.6875	-4.875
19	02	10	17	52	58	0.512202670298	0.530452026639	-0.219053310736	-0.4892578125	0.80615234375	0.29150390625	-11.8125	7.875	-6.375
19	02	10	17	52	58	0.512394414398	0.531132363798	-0.216554542261	-0.48388671875	0.7724609375	0.28173828125	-10.4375	6.875	-4.75
19	02	10	17	52	58	0.512711805618	0.53169434985	-0.215094809881	-0.44580078125	0.74853515625	0.287109375	-5.5625	6.0	-2.0
19	02	10	17	52	58	0.51244881424	0.532834462639	-0.214781726693	-0.4404296875	0.7265625	0.271484375	2.0	5.0625	0.3125
19	02	10	17	52	58	0.511905807737	0.534000704887	-0.215150586893	-0.46923828125	0.7470703125	0.26904296875	5.0	2.1875	2.6875
19	02	10	17	52	58	0.512336468819	0.534187368967	-0.215457199778	-0.466796875	0.7802734375	0.27587890625	-1.5	-0.125	5.75
19	02	10	17	52	58	0.513199645622	0.533830173717	-0.215338766622	-0.47216796875	0.77978515625	0.3017578125	-4.875	-0.1875	6.1875
19	02	10	17	52	58	0.51349743612	0.533700413816	-0.215518774152	-0.48388671875	0.7802734375	0.330078125	0.4375	-1.0	5.1875
19	02	10	17	52	58	0.513806814787	0.533704774115	-0.216375048518	-0.4775390625	0.82666015625	0.35400390625	3.75	-0.375	6.25
19	02	10	17	52	58	0.514218454003	0.533566495536	-0.217406069217	-0.45556640625	0.8505859375	0.3828125	4.8125	0.25	5.75
19	02	10	17	52	58	0.51475679894	0.533249958779	-0.218194872683	-0.42626953125	0.86328125	0.40673828125	3.875	1.3125	3.3125
19	02	10	17	52	58	0.515614312707	0.532581734456	-0.218501330432	-0.4052734375	0.8671875	0.42724609375	1.0625	2.5	1.5625
19	02	10	17	52	58	0.516732786172	0.531930809294	-0.218082476375	-0.38916015625	0.8408203125	0.4150390625	-2.25	4.6875	0.1875
19	02	10	17	52	58	0.518137644613	0.531321497981	-0.217472544205	-0.390625	0.82275390625	0.38720703125	-5.0625	5.4375	2.0
19	02	10	17	52	58	0.519731319324	0.530779043199	-0.216926025705	-0.3720703125	0.81005859375	0.3505859375	-7.0	5.6875	2.8125
19	02	10	17	52	58	0.521119206553	0.530518639418	-0.216247991194	-0.38134765625	0.77734375	0.32275390625	-6.75	5.6875	3.0
19	02	10	17	52	58	0.522176491783	0.53066071532	-0.216134068662	-0.3837890625	0.76904296875	0.3046875	-2.875	5.375	4.5
19	02	10	17	52	58	0.523084642303	0.531080451888	-0.216497225933	-0.3876953125	0.80908203125	0.28369140625	-1.6875	4.875	4.875
19	02	10	17	52	58	0.524112116114	0.531192237864	-0.216615104238	-0.39306640625	0.81787109375	0.2919921875	-3.5625	4.0	4.4375
19	02	10	17	52	58	0.524891134701	0.531238655399	-0.216792245402	-0.4091796875	0.81005859375	0.31884765625	-1.625	2.8125	4.1875
19	02	10	17	52	58	0.525448603609	0.531430014128	-0.217772170714	-0.4248046875	0.8310546875	0.34326171875	3.75	1.6875	7.125
19	02	10	17	52	58	0.526602688658	0.530997147812	-0.220089162645	-0.4052734375	0.8662109375	0.36474609375	6.0	-1.3125	13.25
19	02	10	17	52	58	0.528064418026	0.530200600947	-0.221979922372	-0.37451171875	0.88818359375	0.38720703125	3.1875	-0.3125	10.875
19	02	10	17	52	58	0.528993051088	0.529603404211	-0.224060631192	-0.39990234375	0.8857421875	0.412109375	7.25	-1.1875	10.4375
19	02	10	17	52	58	0.530139590847	0.528796847237	-0.226008163125	-0.40283203125	0.90771484375	0.40576171875	4.6875	-2.0	11.0625
19	02	10	17	52	58	0.532114252033	0.527292386248	-0.227665308566	-0.3896484375	0.876953125	0.39599609375	-0.9375	-2.5625	14.75
19	02	10	17	52	58	0.534736711201	0.525337161661	-0.229373423204	-0.345703125	0.84423828125	0.3720703125	-4.0625	-2.75	17.125
19	02	10	17	52	58	0.538328054652	0.522703113383	-0.23113926791	-0.3251953125	0.85302734375	0.34033203125	-11.3125	-3.75	21.6875
19	02	10	17	52	58	0.542545377433	0.519107710099	-0.232301463214	-0.29541015625	0.81787109375	0.35595703125	-17.1875	-5.3125	21.6875
19	02	10	17	52	58	0.546220667462	0.516129395917	-0.233527799051	-0.30859375	0.78271484375	0.3330078125	-14.0625	-4.5625	21.75
19	02	10	17	52	58	0.549483909805	0.513474190069	-0.235039713058	-0.361328125	0.81005859375	0.3349609375	-11.375	-6.6875	23.9375
19	02	10	17	52	58	0.551998602305	0.511654608925	-0.23785256006	-0.361328125	0.857421875	0.32958984375	-2.8125	-7.125	24.75
19	02	10	17	52	58	0.554445191449	0.510072486233	-0.241028628471	-0.3544921875	0.88623046875	0.326171875	-1.0625	-6.875	26.0625
19	02	10	17	52	58	0.556786468126	0.508139371535	-0.243967936099	-0.3564453125	0.85986328125	0.34033203125	-1.8125	-8.875	25.25
19	02	10	17	52	58	0.557864684441	0.506838986827	-0.247743189731	-0.33447265625	0.84033203125	0.34814453125	7.75	-11.1875	21.5625
19	02	10	17	52	58	0.558527769094	0.505854895667	-0.251401582439	-0.32763671875	0.830078125	0.32861328125	8.3125	-11.0625	18.75
19	02	10	17	52	58	0.559392977384	0.504826984827	-0.25415301231	-0.30810546875	0.81298828125	0.3203125	4.25	-8.5	16.0625
19	02	10	17	52	58	0.56024195071	0.504089581753	-0.256225700957	-0.2783203125	0.80712890625	0.31396484375	2.8125	-4.75	12.0
19	02	10	17	52	58	0.560976523324	0.503786337017	-0.257081179006	-0.27587890625	0.7939453125	0.30029296875	-0.5625	-0.5	7.1875
19	02	10	17	52	58	0.561457504902	0.504390131591	-0.257016801081	-0.28564453125	0.7890625	0.287109375	-0.75	4.625	3.1875
19	02	10	17	52	58	0.561466408866	0.505862984747	-0.25622741433	-0.30078125	0.79931640625	0.265625	0.0	8.75	-1.0
19	02	10	17	52	58	0.561405004138	0.507632683128	-0.25457928596	-0.31298828125	0.82275390625	0.27294921875	-2.625	12.0625	-4.6875
19	02	10	17	52	58	0.561723068328	0.509231289695	-0.252082611344	-0.3193359375	0.82470703125	0.28076171875	-6.875	14.1875	-6.25
19	02	10	17	52	58	0.56218688056	0.510796005146	-0.24938612463	-0.31201171875	0.80712890625	0.30126953125	-6.1875	15.875	-6.25
19	02	10	17	52	58	0.562199894682	0.512944079351	-0.24725564796	-0.31103515625	0.8125	0.3173828125	0.1875	16.75	-6.375
19	02	10	17	52	58	0.562155050736	0.514973090452	-0.245309571	-0.31591796875	0.8564453125	0.3330078125	0.6875	16.0625	-7.25
19	02	10	17	52	58	0.562429945016	0.516227072702	-0.242854991993	-0.32470703125	0.86181640625	0.35400390625	-4.25	14.3125	-7.875
19	02	10	17	52	58	0.562749082918	0.516972313701	-0.240785806086	-0.32958984375	0.86181640625	0.390625	-2.8125	11.375	-6.5625
19	02	10	17	52	58	0.562791695046	0.517870896049	-0.24016758703	-0.31884765625	0.9013671875	0.41015625	4.375	8.9375	-4.125
19	02	10	17	52	59	0.562702611232	0.518694738068	-0.240181665604	-0.31689453125	0.927734375	0.39404296875	5.3125	6.625	-2.8125
19	02	10	17	52	59	0.562932104013	0.518986412276	-0.240114376796	-0.30517578125	0.89501953125	0.39404296875	3.0625	5.125	-1.6875
19	02	10	17	52	59	0.56310813845	0.519590243076	-0.240233430841	-0.29150390625	0.87109375	0.369140625	4.3125	5.8125	-0.8125
19	02	10	17	52	59	0.563613890997	0.520094646435	-0.240179842005	-0.294921875	0.859375	0.34716796875	1.8125	6.875	0.6875
19	02	10	17	52	59	0.564376528653	0.520554494742	-0.239739483568	-0.30810546875	0.85791015625	0.32373046875	-2.125	7.375	1.4375
19	02	10	17	52	59	0.565182517113	0.520932266043	-0.238951355777	-0.31787109375	0.873046875	0.31787109375	-4.125	7.3125	0.375
19	02	10	17	52	59	0.565750374261	0.521376599087	-0.237799488415	-0.3359375	0.87060546875	0.3134765625	-5.4375	6.875	-1.25
19	02	10	17	52	59	0.566279419496	0.521663095326	-0.236570276996	-0.34912109375	0.87158203125	0.328125	-5.4375	6.125	-1.5
19	02	10	17	52	59	0.566829586471	0.521908021311	-0.235472008679	-0.34814453125	0.87255859375	0.3408203125	-4.3125	6.1875	-1.375
19	02	10	17	52	59	0.567749928672	0.521851417991	-0.23413123268	-0.3408203125	0.86572265625	0.36328125	-5.9375	6.875	-0.3125
19	02	10	17	52	59	0.568851796001	0.52173231247	-0.232789780037	-0.33251953125	0.83935546875	0.3681640625	-5.8125	7.6875	0.375
19	02	10	17	52	59	0.569826242813	0.521669333475	-0.231324063867	-0.32275390625	0.8056640625	0.369140625	-4.875	8.0	0.125
19	02	10	17	52	59	0.570930336107	0.521613283341	-0.229800375822	-0.32861328125	0.79052734375	0.36279296875	-5.5625	8.1875	0.75
19	02	10	17	52	59	0.572080309517	0.521482360452	-0.22851474222	-0.3232421875	0.7890625	0.35693359375	-5.25	7.625	1.6875
19	02	10	17	52	59	0.573068117834	0.521553633709	-0.227420578022	-0.3359375	0.8203125	0.34375	-5.0	7.5625	2.0625
19	02	10	17	52	59	0.573812021115	0.522052357898	-0.226265414559	-0.341796875	0.86181640625	0.3330078125	-4.75	8.25	-0.125
19	02	10	17	52	59	0.574223095695	0.5228311052	-0.224733146083	-0.35400390625	0.89013671875	0.330078125	-5.1875	9.25	-3.5625
19	02	10	17	52	59	0.574470678393	0.523749775955	-0.222903412398	-0.361328125	0.9208984375	0.33251953125	-6.0625	10.125	-5.8125
19	02	10	17	52	59	0.575076208245	0.524355731802	-0.220887369735	-0.34814453125	0.9228515625	0.34375	-8.0625	10.5	-6.1875
19	02	10	17	52	59	0.57587064763	0.524600764852	-0.218873571002	-0.3291015625	0.8935546875	0.35498046875	-9.0	10.25	-5.8125
19	02	10	17	52	59	0.576858371289	0.524671945783	-0.217046700699	-0.306640625	0.876953125	0.36572265625	-8.1875	10.3125	-5.25
19	02	10	17	52	59	0.577749563367	0.524954996252	-0.215206524449	-0.3173828125	0.85107421875	0.3623046875	-7.0	10.875	-4.3125
19	02	10	17	52	59	0.578500126576	0.525459758355	-0.213565303111	-0.33203125	0.83203125	0.35693359375	-4.6875	10.625	-2.8125
19	02	10	17	52	59	0.579283667737	0.526000068334	-0.211974731646	-0.34521484375	0.8232421875	0.33740234375	-5.3125	10.375	-1.125
19	02	10	17	52	59	0.580208826032	0.526313981367	-0.210147168949	-0.3515625	0.802734375	0.33154296875	-7.5	9.75	-0.9375
19	02	10	17	52	59	0.580940679869	0.526801744899	-0.208254843424	-0.36865234375	0.80712890625	0.3232421875	-7.5	9.3125	-1.3125
19	02	10	17	52	59	0.581610753119	0.527349869551	-0.20636225798	-0.37548828125	0.833984375	0.31787109375	-7.75	9.3125	-2.0625
19	02	10	17	52	59	0.582350849388	0.527784068196	-0.20416765446	-0.37939453125	0.82958984375	0.3193359375	-9.4375	9.5625	-2.9375
19	02	10	17	52	59	0.583034942178	0.528283859354	-0.202096806276	-0.36865234375	0.830078125	0.3369140625	-7.6875	10.375	-3.125
19	02	10	17	52	59	0.583500943318	0.529301274106	-0.200258012032	-0.3642578125	0.837890625	0.33935546875	-4.4375	12.125	-3.6875
19	02	10	17	52	59	0.583928885809	0.530278473911	-0.198366141829	-0.35498046875	0.82177734375	0.3486328125	-3.5	12.6875	-4.3125
19	02	10	17	52	59	0.584308066231	0.531327871779	-0.196722542303	-0.357421875	0.8115234375	0.35009765625	-1.75	12.375	-3.0
19	02	10	17	52	59	0.58479028128	0.532298929448	-0.195560803801	-0.35595703125	0.82177734375	0.3427734375	-1.0625	11.125	-1.0625
19	02	10	17	52	59	0.585278688487	0.5333366545	-0.194706331867	-0.36474609375	0.82958984375	0.33447265625	-0.375	10.3125	0.6875
19	02	10	17	52	59	0.585697428619	0.534366505582	-0.193910038633	-0.38720703125	0.83642578125	0.322265625	-0.875	9.25	1.75
19	02	10	17	52	59	0.585995892635	0.535520046035	-0.193114363535	-0.40087890625	0.84521484375	0.31396484375	-0.5625	8.9375	1.6875
19	02	10	17	52	59	0.586239918596	0.536740639681	-0.192626047172	-0.40966796875	0.84765625	0.2998046875	0.1875	7.8125	3.0625
19	02	10	17	52	59	0.586369264534	0.537723870151	-0.192201188094	-0.40087890625	0.8232421875	0.31396484375	1.25	6.4375	2.1875
19	02	10	17	52	59	0.585958227756	0.539020532221	-0.192145468852	-0.39599609375	0.79296875	0.3193359375	6.25	5.625	1.625
19	02	10	17	52	59	0.585626452395	0.540338820537	-0.19280812539	-0.37109375	0.80419921875	0.33056640625	9.3125	5.25	3.1875
19	02	10	17	52	59	0.585630782889	0.541380411071	-0.193480936087	-0.36669921875	0.828125	0.3369140625	7.5	5.5	4.25
19	02	10	17	52	59	0.586436550563	0.541757995712	-0.193729143577	-0.35400390625	0.8583984375	0.34033203125	0.9375	6.0625	4.75
19	02	10	17	52	59	0.587662750463	0.541518895109	-0.192998506124	-0.3701171875	0.8662109375	0.3525390625	-5.375	6.5625	3.3125
19	02	10	17	52	59	0.589117290973	0.54096006526	-0.191957509336	-0.3857421875	0.87060546875	0.37158203125	-7.75	6.125	3.4375
19	02	10	17	52	59	0.59071610904	0.540360582076	-0.191045817451	-0.37646484375	0.8623046875	0.3779296875	-7.3125	6.375	4.6875
19	02	10	17	52	59	0.591925065579	0.540227753706	-0.190431656487	-0.36767578125	0.85693359375	0.38427734375	-2.625	7.375	4.0
19	02	10	17	52	59	0.592727023327	0.54066275076	-0.18994609171	-0.38232421875	0.8515625	0.359375	-0.4375	7.8125	3.875
19	02	10	17	52	59	0.593742946405	0.540765060151	-0.189267771053	-0.39599609375	0.841796875	0.34033203125	-3.8125	6.5	5.1875
19	02	10	17	52	59	0.595362325056	0.540245226479	-0.188484607317	-0.3701171875	0.8125	0.33447265625	-7.9375	5.625	6.875
19	02	10	17	52	59	0.596992875193	0.539802166262	-0.187563552343	-0.36376953125	0.7939453125	0.3271484375	-7.9375	6.25	6.625
19	02	10	17	53	00	0.597958293829	0.539975199092	-0.186949704399	-0.37353515625	0.79443359375	0.30810546875	-4.4375	6.25	5.5625
19	02	10	17	53	00	0.598689053666	0.540584050191	-0.186705047932	-0.3720703125	0.81640625	0.30615234375	-0.9375	6.4375	5.75
19	02	10	17	53	00	0.599203041686	0.541461768646	-0.186652022153	-0.3828125	0.83935546875	0.29833984375	0.375	6.75	5.5625
19	02	10	17	53	00	0.599969121064	0.541986347411	-0.18639935867	-0.3671875	0.845703125	0.30712890625	-1.8125	6.625	5.0
19	02	10	17	53	00	0.600964277077	0.542308308128	-0.186038910881	-0.353515625	0.83935546875	0.32373046875	-2.6875	7.3125	4.875
19	02	10	17	53	00	0.601964136613	0.54257343443	-0.185618833851	-0.35107421875	0.83740234375	0.3388671875	-1.875	7.6875	4.5
19	02	10	17	53	00	0.603267706596	0.54241603688	-0.185057434885	-0.34765625	0.82373046875	0.35302734375	-3.75	7.0625	5.375
19	02	10	17	53	00	0.604432937935	0.542360000655	-0.184876034435	-0.34375	0.82373046875	0.36474609375	-0.9375	6.75	5.9375
19	02	10	17	53	00	0.605238837766	0.54292047821	-0.184757761387	-0.3564453125	0.83837890625	0.3427734375	1.0	7.6875	5.8125
19	02	10	17	53	00	0.606192868367	0.543449587187	-0.184506750007	-0.35693359375	0.84814453125	0.32763671875	-0.875	8.25	6.0625
19	02	10	17	53	00	0.607250752445	0.543895010055	-0.184207736544	-0.3515625	0.8515625	0.31884765625	-2.25	8.1875	6.125
19	02	10	17	53	00	0.60839649062	0.544126676753	-0.183959372264	-0.34912109375	0.86474609375	0.32080078125	-3.25	7.375	6.0625
19	02	10	17	53	00	0.609501174379	0.544254153008	-0.184083270772	-0.33203125	0.88818359375	0.33154296875	-2.125	6.1875	5.5625
19	02	10	17	53	00	0.610369507622	0.544327526897	-0.1842095174	-0.3291015625	0.89111328125	0.3486328125	-1.0	5.1875	3.5
19	02	10	17	53	00	0.611236671315	0.544460865602	-0.18433540517	-0.32275390625	0.8935546875	0.37109375	0.3125	6.4375	3.4375
19	02	10	17	53	00	0.612061251428	0.544861467042	-0.184631560188	-0.31396484375	0.89404296875	0.36376953125	2.375	7.5	4.3125
19	02	10	17	53	00	0.613536266752	0.54474842626	-0.184878765618	-0.2763671875	0.88037109375	0.37353515625	-0.8125	8.25	5.5625
19	02	10	17	53	00	0.61530061112	0.544377160061	-0.184938086667	-0.244140625	0.8642578125	0.37744140625	-2.5625	9.3125	4.75
19	02	10	17	53	00	0.616775627796	0.544264054731	-0.185307353388	-0.21875	0.853515625	0.36083984375	-0.1875	9.125	3.75
19	02	10	17	53	00	0.617857821033	0.544432654708	-0.18566862507	-0.22705078125	0.85302734375	0.34130859375	0.8125	8.1875	2.5
19	02	10	17	53	00	0.61915579642	0.544630044505	-0.18652800807	-0.2119140625	0.86669921875	0.32421875	0.75	8.1875	5.0625
19	02	10	17	53	00	0.620607677816	0.545045885415	-0.188355162642	-0.2060546875	0.89306640625	0.29296875	2.125	7.25	10.5625
19	02	10	17	53	00	0.622125263993	0.545160684586	-0.189390237827	-0.24560546875	0.87158203125	0.2822265625	-1.8125	6.4375	9.9375
19	02	10	17	53	00	0.62352423566	0.545583706203	-0.18987704553	-0.271484375	0.849609375	0.2763671875	-1.5625	8.125	9.9375
19	02	10	17	53	00	0.624574601326	0.546327299567	-0.190003003413	-0.31689453125	0.853515625	0.28125	-0.5	8.75	9.625
19	02	10	17	53	00	0.625562378443	0.546947455676	-0.189823299537	-0.3466796875	0.87841796875	0.291015625	-1.6875	8.0	8.75
19	02	10	17	53	00	0.626656744427	0.547615107724	-0.189333712011	-0.3623046875	0.916015625	0.296875	-3.5	9.125	8.5625
19	02	10	17	53	00	0.627562934181	0.548461440045	-0.188598469813	-0.36767578125	0.927734375	0.3017578125	-2.5625	10.0625	6.4375
19	02	10	17	53	00	0.628189754484	0.549574480118	-0.187932010694	-0.3369140625	0.912109375	0.30517578125	0.0	11.3125	4.375
19	02	10	17	53	00	0.628587532481	0.550891452391	-0.187007690021	-0.3310546875	0.84765625	0.32080078125	3.0625	12.3125	3.0625
19	02	10	17	53	00	0.628967203148	0.552307056894	-0.186401342884	-0.30224609375	0.82421875	0.33056640625	6.0625	13.25	3.4375
19	02	10	17	53	00	0.629873247226	0.553580460498	-0.185971296928	-0.24951171875	0.83935546875	0.31982421875	4.125	15.5625	4.25
19	02	10	17	53	00	0.631183255975	0.554337716929	-0.185247189042	-0.22705078125	0.8486328125	0.314453125	-0.625	15.375	2.8125
19	02	10	17	53	00	0.632773539838	0.554523739696	-0.18445467709	-0.228515625	0.849609375	0.30126953125	-4.6875	13.0625	3.5
19	02	10	17	53	00	0.634297801263	0.554888501855	-0.184332116995	-0.2333984375	0.85546875	0.29150390625	-2.5	11.75	6.5625
19	02	10	17	53	00	0.635491083239	0.555596939178	-0.184995531435	-0.23193359375	0.86767578125	0.28173828125	1.9375	10.1875	8.8125
19	02	10	17	53	00	0.636403321832	0.556387521034	-0.186276295985	-0.25146484375	0.88134765625	0.2822265625	4.75	7.5625	10.8125
19	02	10	17	53	00	0.637328741866	0.557067556695	-0.187438859057	-0.28076171875	0.88671875	0.287109375	4.0625	6.375	12.25
19	02	10	17	53	00	0.638201037589	0.557815539645	-0.188359640589	-0.29248046875	0.90625	0.29150390625	4.125	7.25	11.3125
19	02	10	17	53	00	0.638913490303	0.558835681813	-0.18841478263	-0.31640625	0.92138671875	0.2861328125	2.1875	9.3125	8.6875
19	02	10	17	53	00	0.63991607997	0.559529826887	-0.187689998656	-0.33544921875	0.9482421875	0.29150390625	-2.5625	11.0625	7.0625
19	02	10	17	53	00	0.641345282478	0.559803857146	-0.186214737042	-0.33544921875	0.94140625	0.3017578125	-7.0625	12.0625	5.4375
19	02	10	17	53	00	0.642531296109	0.560070976831	-0.184635429916	-0.31494140625	0.92431640625	0.3232421875	-5.4375	12.125	2.25
19	02	10	17	53	00	0.643141479071	0.560803256117	-0.183353611382	-0.29833984375	0.92138671875	0.32275390625	-0.6875	12.0625	-0.3125
19	02	10	17	53	00	0.643680177221	0.561770562406	-0.182251944736	-0.28466796875	0.9140625	0.30615234375	0.0625	12.5	0.0
19	02	10	17	53	00	0.64443728068	0.562585566966	-0.1814043946	-0.25146484375	0.90185546875	0.2880859375	-0.8125	12.3125	0.6875
19	02	10	17	53	00	0.645219304901	0.563430082635	-0.180912876712	-0.24072265625	0.87841796875	0.27197265625	-0.1875	11.9375	2.5
19	02	10	17	53	00	0.646067188154	0.564095697017	-0.180544803265	-0.24658203125	0.87255859375	0.2724609375	-0.625	10.625	3.6875
19	02	10	17	53	00	0.647218642557	0.564393699333	-0.180054224401	-0.24560546875	0.86962890625	0.28271484375	-2.5	10.0	4.125
19	02	10	17	53	00	0.648572804756	0.56428153397	-0.179080802668	-0.26904296875	0.8466796875	0.30810546875	-4.375	10.0	4.4375
19	02	10	17	53	01	0.649979262021	0.564222771915	-0.177738718284	-0.3037109375	0.818359375	0.306640625	-4.875	10.875	6.1875
19	02	10	17	53	01	0.65131092979	0.564457265364	-0.176881180258	-0.32763671875	0.80419921875	0.32177734375	-0.375	11.125	10.375
19	02	10	17	53	01	0.651859913892	0.565738721148	-0.177308338001	-0.318359375	0.81298828125	0.30224609375	8.875	9.9375	13.6875
19	02	10	17	53	01	0.651876369357	0.567584115978	-0.178777704667	-0.3134765625	0.86767578125	0.287109375	14.125	8.5	15.0
19	02	10	17	53	01	0.652011804924	0.569487936711	-0.179880058895	-0.2919921875	0.92529296875	0.2705078125	11.3125	10.1875	12.1875
19	02	10	17	53	01	0.65245089922	0.57121496406	-0.180171660851	-0.2705078125	0.9482421875	0.22900390625	4.4375	12.875	8.5
19	02	10	17	53	01	0.653591537387	0.57228934017	-0.179450795659	-0.2529296875	0.95361328125	0.224609375	-3.4375	15.0	5.875
19	02	10	17	53	01	0.654926377981	0.573319987733	-0.178349941888	-0.2529296875	0.95458984375	0.2216796875	-4.9375	16.6875	5.8125
19	02	10	17	53	01	0.656305156355	0.574091537308	-0.177732782973	-0.2255859375	0.96435546875	0.232421875	-4.4375	14.9375	5.75
19	02	10	17	53	01	0.657297213469	0.574715438947	-0.177492830975	-0.22998046875	0.96240234375	0.25634765625	-1.5	11.3125	4.4375
19	02	10	17	53	01	0.658202363656	0.574889471743	-0.177490029072	-0.25439453125	0.947265625	0.29052734375	-0.3125	7.375	5.25
19	02	10	17	53	01	0.65942359721	0.574828900271	-0.176879820873	-0.28662109375	0.92333984375	0.326171875	-1.4375	9.0	6.625
19	02	10	17	53	01	0.661258941246	0.57410020319	-0.176270613099	-0.2685546875	0.8935546875	0.31982421875	-5.8125	8.625	8.6875
19	02	10	17	53	01	0.663169064211	0.573078172469	-0.174871547995	-0.279296875	0.86181640625	0.3193359375	-9.25	8.5	5.5625
19	02	10	17	53	01	0.664753259869	0.57234334017	-0.172978673994	-0.29833984375	0.8349609375	0.302734375	-9.5	9.125	3.75
19	02	10	17	53	01	0.666324303247	0.571902420209	-0.171570726063	-0.26708984375	0.841796875	0.2919921875	-7.375	10.3125	5.0
19	02	10	17	53	01	0.667570816339	0.572046602425	-0.170478676971	-0.24609375	0.84326171875	0.28125	-3.875	11.4375	4.9375
19	02	10	17	53	01	0.668364136397	0.57290098486	-0.169746179299	-0.25	0.880859375	0.28271484375	1.4375	12.9375	5.125
19	02	10	17	53	01	0.668826479994	0.574221529822	-0.169068201276	-0.2578125	0.9443359375	0.26611328125	2.375	13.5	3.875
19	02	10	17	53	01	0.66994384407	0.574664840736	-0.167546998175	-0.26513671875	0.95849609375	0.26513671875	-6.3125	13.5625	2.1875
19	02	10	17	53	01	0.671705603513	0.574291505993	-0.165286576494	-0.27490234375	0.94921875	0.2958984375	-11.6875	14.0	1.1875
19	02	10	17	53	01	0.673348722359	0.574043213723	-0.162843944095	-0.296875	0.91455078125	0.29150390625	-11.1875	14.5625	2.375
19	02	10	17	53	01	0.675258362305	0.573447736948	-0.161078081725	-0.265625	0.88671875	0.30712890625	-10.0	12.75	4.75
19	02	10	17	53	01	0.67662743171	0.573418250127	-0.159604973292	-0.24072265625	0.8564453125	0.30126953125	-4.875	12.875	3.125
19	02	10	17	53	01	0.676892856684	0.574657010431	-0.158450302611	-0.24951171875	0.8173828125	0.2646484375	2.625	13.375	1.9375
19	02	10	17	53	01	0.677200149955	0.576123678722	-0.15777939501	-0.25048828125	0.822265625	0.251953125	5.0	13.625	5.375
19	02	10	17	53	01	0.677554848698	0.577578734639	-0.156922215657	-0.27734375	0.84423828125	0.23046875	2.1875	13.375	6.3125
19	02	10	17	53	01	0.678288993966	0.578556768992	-0.155946043335	-0.29296875	0.87353515625	0.22412109375	-2.0625	12.75	7.75
19	02	10	17	53	01	0.679109331796	0.579190045786	-0.15479249195	-0.294921875	0.8876953125	0.236328125	-3.6875	11.3125	5.8125
19	02	10	17	53	01	0.679196028172	0.580563679006	-0.153990975834	-0.29736328125	0.9150390625	0.2431640625	2.3125	11.1875	4.25
19	02	10	17	53	01	0.678915236365	0.582537716072	-0.153569247028	-0.29736328125	0.9462890625	0.2451171875	7.1875	12.4375	4.75
19	02	10	17	53	01	0.67848871503	0.584735686397	-0.153752525473	-0.271484375	0.951171875	0.25	10.5	12.0	5.875
19	02	10	17	53	01	0.678100721085	0.586731073969	-0.154174835415	-0.2607421875	0.94775390625	0.26513671875	11.8125	11.0	6.25
19	02	10	17	53	01	0.678172789095	0.588083414898	-0.154421488292	-0.25732421875	0.935546875	0.27099609375	8.0625	9.9375	6.4375
19	02	10	17	53	01	0.678970757828	0.588453530764	-0.15405629205	-0.2451171875	0.900390625	0.27685546875	0.9375	9.4375	5.625
19	02	10	17	53	01	0.679763867247	0.58881943318	-0.152896514991	-0.26953125	0.86328125	0.271484375	-1.0625	11.1875	4.1875
19	02	10	17	53	01	0.680393618835	0.58969074653	-0.151924259198	-0.27978515625	0.876953125	0.26513671875	2.0625	13.0	5.9375
19	02	10	17	53	01	0.680925082161	0.590834958347	-0.151004719726	-0.28857421875	0.93310546875	0.24951171875	2.125	13.6875	6.5
19	02	10	17	53	01	0.681848825698	0.591330357476	-0.149785786256	-0.28662109375	0.96044921875	0.25390625	-3.25	12.75	5.125
19	02	10	17	53	01	0.682691741302	0.59156444852	-0.148318366684	-0.2783203125	0.92724609375	0.2802734375	-2.625	11.4375	1.8125
19	02	10	17	53	01	0.682809760554	0.592476476776	-0.147279874159	-0.26708984375	0.9052734375	0.27294921875	3.0625	10.5	0.4375
19	02	10	17	53	01	0.683855697034	0.592300578724	-0.145938858587	-0.2841796875	0.8857421875	0.28466796875	-3.875	9.8125	3.4375
19	02	10	17	53	01	0.684511282924	0.592347926953	-0.14453167347	-0.3017578125	0.8310546875	0.27880859375	-1.5	8.375	2.5625
19	02	10	17	53	01	0.685023509473	0.592551744628	-0.143926350827	-0.2763671875	0.83642578125	0.2822265625	1.75	7.1875	4.5625
19	02	10	17	53	01	0.685244662951	0.59320324924	-0.143433237546	-0.2626953125	0.86474609375	0.26220703125	3.25	7.625	3.1875
19	02	10	17	53	01	0.685616891785	0.593696742312	-0.142641028764	-0.25244140625	0.86767578125	0.25	0.5	8.5625	1.5625
19	02	10	17	53	01	0.686091264948	0.594172979652	-0.141783649895	-0.25244140625	0.89990234375	0.23681640625	-1.1875	9.25	1.75
19	02	10	17	53	01	0.686920323587	0.594386894535	-0.141058545211	-0.2509765625	0.92431640625	0.2392578125	-3.5	9.25	3.5625
19	02	10	17	53	01	0.688008865274	0.594317097336	-0.140140911521	-0.23681640625	0.90771484375	0.2451171875	-5.0	9.9375	3.125
19	02	10	17	53	01	0.688860594683	0.594436765162	-0.138858572825	-0.22998046875	0.8984375	0.2587890625	-3.8125	10.6875	0.125
19	02	10	17	53	01	0.689899008238	0.59437640823	-0.137210737903	-0.25537109375	0.87890625	0.26123046875	-5.25	11.6875	0.8125
19	02	10	17	53	02	0.691308327637	0.593953852749	-0.135563817383	-0.25927734375	0.845703125	0.24560546875	-8.5	10.875	3.5
19	02	10	17	53	02	0.692448071715	0.593997764119	-0.134644376043	-0.2646484375	0.83935546875	0.228515625	-4.875	10.5	7.4375
19	02	10	17	53	02	0.692951007261	0.595047949422	-0.134036854747	-0.26220703125	0.85791015625	0.1953125	0.25	11.9375	8.125
19	02	10	17	53	02	0.693183436768	0.596563785416	-0.133790445839	-0.24853515625	0.91015625	0.17578125	2.25	12.5	8.0625
19	02	10	17	53	02	0.693567991516	0.597678233998	-0.13269531053	-0.28857421875	0.95166015625	0.1865234375	-2.375	12.5625	5.3125
19	02	10	17	53	02	0.694614777973	0.597502993109	-0.13147629453	-0.29052734375	0.97509765625	0.24169921875	-7.4375	8.75	3.4375
19	02	10	17	53	02	0.695945872939	0.596699425877	-0.130558517998	-0.25439453125	1.00439453125	0.330078125	-5.5	7.6875	1.0625
19	02	10	17	53	02	0.696677715589	0.596393723412	-0.129459736706	-0.234375	1.0126953125	0.44873046875	5.375	10.1875	-3.75
19	02	10	17	53	02	0.697473886293	0.596457059321	-0.128422600574	-0.26708984375	1.009765625	0.40673828125	4.5625	12.0	1.25
19	02	10	17	53	02	0.69936493052	0.594991215108	-0.126713352746	-0.2705078125	0.95068359375	0.36962890625	-8.625	9.0	1.125
19	02	10	17	53	02	0.701025103273	0.593353507089	-0.125555823895	-0.259765625	0.88818359375	0.34912109375	-8.5	4.8125	1.4375
19	02	10	17	53	02	0.700985903552	0.593015153584	-0.124694314406	-0.3095703125	0.8154296875	0.31591796875	1.4375	-0.125	-1.875
19	02	10	17	53	02	0.699163967187	0.594548773843	-0.123170046773	-0.3447265625	0.76416015625	0.27734375	11.9375	2.0	-8.9375
19	02	10	17	53	02	0.695273247881	0.598102234746	-0.120426136254	-0.39794921875	0.78515625	0.2294921875	20.625	5.0625	-19.875
19	02	10	17	53	02	0.690891069059	0.601531185226	-0.117681595649	-0.408203125	0.90380859375	0.1845703125	16.5	0.4375	-27.625
19	02	10	17	53	02	0.689420213198	0.601648078042	-0.114079360643	-0.34619140625	0.91357421875	0.20458984375	-7.4375	-0.5625	-27.375
19	02	10	17	53	02	0.68946139287	0.60065417557	-0.110535993492	-0.25048828125	0.85791015625	0.224609375	-14.6875	4.0	-24.125
19	02	10	17	53	02	0.688248887611	0.602065185118	-0.106447859169	-0.30224609375	0.79248046875	0.21630859375	-0.1875	13.9375	-20.8125
19	02	10	17	53	02	0.683874410612	0.606660814627	-0.104680883095	-0.3623046875	0.953125	0.208984375	25.8125	9.8125	-21.875
19	02	10	17	53	02	0.680364161146	0.610844579237	-0.104431961938	-0.287109375	1.03515625	0.24072265625	26.75	10.5625	-16.125
19	02	10	17	53	02	0.679088611068	0.612864348709	-0.103395299942	-0.23779296875	1.02880859375	0.2841796875	12.125	12.9375	-14.1875
19	02	10	17	53	02	0.678915513325	0.61330064532	-0.101443637791	-0.263671875	0.92626953125	0.3037109375	2.625	11.25	-13.625
19	02	10	17	53	02	0.679003751795	0.613636289488	-0.101011344649	-0.228515625	0.873046875	0.29736328125	5.375	7.75	-5.5625
19	02	10	17	53	02	0.67940729795	0.614280392289	-0.102054532582	-0.1640625	0.83154296875	0.22412109375	5.75	7.3125	2.5
19	02	10	17	53	02	0.680196724506	0.614398800151	-0.103946071593	-0.13134765625	0.78466796875	0.16455078125	1.25	2.625	6.5625
19	02	10	17	53	02	0.681304985667	0.614041225212	-0.106877354408	-0.0751953125	0.74853515625	0.1357421875	-0.375	-1.9375	9.125
19	02	10	17	53	02	0.682203651162	0.614087047897	-0.109621343606	-0.05224609375	0.7548828125	0.13134765625	1.125	0.625	7.75
19	02	10	17	53	02	0.68239001561	0.614944490811	-0.110842600031	-0.13037109375	0.82861328125	0.13037109375	2.625	5.0625	2.25
19	02	10	17	53	02	0.682685357644	0.615240805101	-0.110108572659	-0.251953125	0.9267578125	0.17724609375	-3.8125	6.75	-3.25
19	02	10	17	53	02	0.683785480679	0.614326596718	-0.107728409658	-0.3408203125	0.9833984375	0.236328125	-12.75	7.3125	-6.125
19	02	10	17	53	02	0.685976279184	0.612184543128	-0.10467562228	-0.33056640625	0.96923828125	0.32470703125	-17.5625	9.375	-6.5
19	02	10	17	53	02	0.687991965529	0.610476901989	-0.1011357955	-0.3076171875	0.94921875	0.388671875	-12.0625	15.1875	-9.375
19	02	10	17	53	02	0.688755160289	0.610260022383	-0.0968676390799	-0.35595703125	0.97216796875	0.404296875	-3.1875	19.75	-13.1875
19	02	10	17	53	02	0.688315552884	0.611347750083	-0.0928374528631	-0.43701171875	1.06884765625	0.35546875	2.375	19.125	-13.125
19	02	10	17	53	02	0.688845689873	0.61090346535	-0.0890506699916	-0.455078125	1.138671875	0.33984375	-9.625	12.5	-12.8125
19	02	10	17	53	02	0.690385511265	0.608779514575	-0.0850240489075	-0.4638671875	1.08056640625	0.33349609375	-20.5	6.75	-12.6875
19	02	10	17	53	02	0.691590554773	0.606690505202	-0.0819093217284	-0.46923828125	1.00048828125	0.349609375	-15.75	2.4375	-9.25
19	02	10	17	53	02	0.692456001547	0.605479377289	-0.0800795305447	-0.439453125	0.98388671875	0.3642578125	-6.5	3.5625	-3.5625
19	02	10	17	53	02	0.692880454466	0.605171750002	-0.078431235376	-0.4375	0.9404296875	0.3515625	-1.125	6.9375	-0.75
19	02	10	17	53	02	0.693310072227	0.604990706569	-0.0772107792382	-0.404296875	0.91552734375	0.34326171875	0.5625	6.8125	0.1875
19	02	10	17	53	02	0.69460666246	0.603782873906	-0.0758696029383	-0.3525390625	0.8583984375	0.35498046875	-5.5	6.375	-0.0625
19	02	10	17	53	02	0.69580354181	0.602663523845	-0.0741580090614	-0.3037109375	0.7861328125	0.31005859375	-7.375	7.25	-3.25
19	02	10	17	53	02	0.697026385523	0.601322587581	-0.07226613314	-0.3017578125	0.7373046875	0.29541015625	-9.1875	5.8125	-4.25
19	02	10	17	53	02	0.698203180641	0.600177626999	-0.0706809409199	-0.279296875	0.7060546875	0.23779296875	-10.375	5.375	-2.625
19	02	10	17	53	02	0.699554610016	0.599086336036	-0.0695220923836	-0.27685546875	0.669921875	0.1962890625	-12.0625	4.5625	1.875
19	02	10	17	53	02	0.700827579344	0.598285310289	-0.0693381057425	-0.265625	0.68115234375	0.17138671875	-10.125	2.0625	6.1875
19	02	10	17	53	02	0.702042240998	0.597669763854	-0.0697647610381	-0.26318359375	0.67724609375	0.15869140625	-8.3125	0.9375	9.0625
19	02	10	17	53	02	0.702693780191	0.597591835477	-0.0702510675757	-0.30224609375	0.68359375	0.15869140625	-4.1875	0.1875	9.6875
19	02	10	17	53	02	0.702711346984	0.598339210847	-0.0712294051881	-0.33056640625	0.7509765625	0.1796875	2.625	0.5625	10.8125
19	02	10	17	53	03	0.702418553407	0.599570511828	-0.0724514097058	-0.34033203125	0.822265625	0.18212890625	4.875	1.25	10.625
19	02	10	17	53	03	0.702735614912	0.599824796989	-0.0729409415287	-0.349609375	0.80810546875	0.22509765625	0.375	1.25	9.25
19	02	10	17	53	03	0.703274944016	0.599694178525	-0.0735502783839	-0.3330078125	0.787109375	0.294921875	3.0	1.5625	8.5625
19	02	10	17	53	03	0.703085297216	0.600665197491	-0.0748924090359	-0.3134765625	0.84228515625	0.31787109375	12.25	3.5	9.125
19	02	10	17	53	03	0.702675687789	0.601778978971	-0.0761150610383	-0.3369140625	0.9130859375	0.31884765625	12.375	2.8125	7.6875
19	02	10	17	53	03	0.703317660901	0.601570673075	-0.0769663777139	-0.330078125	0.98193359375	0.34765625	3.125	2.25	6.125
19	02	10	17	53	03	0.704355388111	0.600777303741	-0.0769053543345	-0.3544921875	1.0244140625	0.36083984375	-2.9375	3.0	3.125
19	02	10	17	53	03	0.705386091476	0.59942864103	-0.0762332117551	-0.3876953125	1.02978515625	0.38916015625	-5.5	1.25	-0.875
19	02	10	17	53	03	0.706140037495	0.59816512814	-0.0749537527914	-0.41064453125	1.021484375	0.41552734375	-3.9375	1.8125	-4.375
19	02	10	17	53	03	0.706544458511	0.597413369031	-0.0732423419327	-0.40576171875	1.0166015625	0.4326171875	-0.875	5.25	-6.375
19	02	10	17	53	03	0.707413362638	0.596448954245	-0.0714127380748	-0.3662109375	1.00341796875	0.42822265625	-3.4375	7.875	-6.4375
19	02	10	17	53	03	0.708831157813	0.594934753742	-0.0692778234839	-0.3671875	0.953125	0.39990234375	-9.25	8.0	-4.0
19	02	10	17	53	03	0.711016227648	0.592544041377	-0.0673844892543	-0.35205078125	0.91015625	0.4169921875	-13.4375	6.5625	-1.125
19	02	10	17	53	03	0.712953119606	0.590333239691	-0.0656739625628	-0.34423828125	0.86376953125	0.3984375	-12.5	5.125	-0.8125
19	02	10	17	53	03	0.714487012014	0.588203599418	-0.063904655867	-0.3681640625	0.82080078125	0.39697265625	-10.4375	2.5625	-1.875
19	02	10	17	53	03	0.715470626835	0.586805545674	-0.0628676629961	-0.3671875	0.85107421875	0.3984375	-4.5625	2.0	-1.4375
19	02	10	17	53	03	0.716060317128	0.585689976403	-0.0618892909621	-0.3896484375	0.84716796875	0.38037109375	-3.5625	0.125	-1.25
19	02	10	17	53	03	0.717054258396	0.583995160396	-0.0611583560532	-0.3896484375	0.830078125	0.3896484375	-6.0625	-2.125	0.25
19	02	10	17	53	03	0.717586307514	0.583065577586	-0.0612179183836	-0.36962890625	0.81396484375	0.3603515625	-1.375	-2.625	3.0
19	02	10	17	53	03	0.717624128085	0.582791118053	-0.0625029435365	-0.33251953125	0.7919921875	0.3115234375	3.5625	-6.1875	4.9375
19	02	10	17	53	03	0.718393994924	0.581551230555	-0.0645150766894	-0.27587890625	0.81201171875	0.3525390625	0.4375	-8.625	6.0
19	02	10	17	53	03	0.719095722512	0.580965375339	-0.0654333770081	-0.2939453125	0.81787109375	0.36669921875	2.0	-0.5	5.5625
19	02	10	17	53	03	0.719213675843	0.581206197181	-0.0658602695608	-0.31884765625	0.8388671875	0.33154296875	3.6875	1.875	4.0625
19	02	10	17	53	03	0.720665093949	0.579547308126	-0.0660421471714	-0.29248046875	0.8359375	0.34228515625	-8.6875	-1.375	3.625
19	02	10	17	53	03	0.722868448743	0.576927516467	-0.0659206218562	-0.29345703125	0.80322265625	0.361328125	-14.125	-1.625	5.0
19	02	10	17	53	03	0.724267409652	0.575092493995	-0.065920175495	-0.30859375	0.78369140625	0.35791015625	-8.375	-2.6875	4.0625
19	02	10	17	53	03	0.724722421282	0.574394703275	-0.0664054231392	-0.3232421875	0.81884765625	0.36083984375	-0.0625	-2.75	3.125
19	02	10	17	53	03	0.724559953228	0.574655206777	-0.0668956034654	-0.34033203125	0.86962890625	0.34423828125	3.875	-0.875	2.6875
19	02	10	17	53	03	0.724700703003	0.574608979876	-0.0670804407143	-0.34130859375	0.8955078125	0.34765625	0.6875	0.25	2.0625
19	02	10	17	53	03	0.725170659023	0.574289262751	-0.0668345990766	-0.3388671875	0.90478515625	0.3544921875	-2.4375	2.125	1.5
19	02	10	17	53	03	0.725736491929	0.573875062836	-0.0665919691081	-0.3291015625	0.88671875	0.3564453125	-2.5625	2.3125	1.8125
19	02	10	17	53	03	0.726335414297	0.573438757758	-0.0665909190755	-0.306640625	0.857421875	0.37109375	-0.625	2.5625	2.625
19	02	10	17	53	03	0.726493115655	0.573601806345	-0.0669547969313	-0.29833984375	0.85009765625	0.36669921875	3.875	2.3125	2.8125
19	02	10	17	53	03	0.726396963706	0.573927455653	-0.067506515575	-0.302734375	0.8466796875	0.36328125	5.6875	1.125	2.375
19	02	10	17	53	03	0.72688648755	0.573501170293	-0.0678728502944	-0.2958984375	0.84423828125	0.37646484375	1.4375	0.5625	2.9375
19	02	10	17	53	03	0.727396531448	0.572907933555	-0.06769176415	-0.31640625	0.81982421875	0.3681640625	-1.0	0.875	1.75
19	02	10	17	53	03	0.728037142813	0.572212291572	-0.0674447554333	-0.3212890625	0.82666015625	0.380859375	-1.625	1.375	2.0625
19	02	10	17	53	03	0.728355621241	0.571978591021	-0.0669576901451	-0.32421875	0.8603515625	0.36865234375	-0.4375	2.9375	0.125
19	02	10	17	53	03	0.728955296291	0.571298800409	-0.0659190923548	-0.34423828125	0.9013671875	0.38720703125	-4.4375	3.6875	-1.5625
19	02	10	17	53	03	0.729337452073	0.570945060398	-0.0646997823414	-0.361328125	0.93896484375	0.384765625	-3.8125	4.8125	-2.5
19	02	10	17	53	03	0.729433497422	0.570802616341	-0.0635378019259	-0.380859375	0.94775390625	0.37255859375	-3.25	3.25	-2.8125
19	02	10	17	53	03	0.730008571181	0.56990719307	-0.0627465561182	-0.36865234375	0.89697265625	0.38671875	-5.1875	0.6875	-0.9375
19	02	10	17	53	03	0.730249927151	0.569538788887	-0.062929427858	-0.35302734375	0.85009765625	0.3974609375	2.0625	-0.9375	2.9375
19	02	10	17	53	03	0.729640319632	0.570454946234	-0.0642112779197	-0.3310546875	0.8359375	0.3603515625	11.0	-2.0	5.3125
19	02	10	17	53	03	0.729123540138	0.571348188451	-0.0657346436237	-0.306640625	0.81787109375	0.32275390625	9.3125	-2.375	6.0625
19	02	10	17	53	03	0.728977564387	0.571682480788	-0.0670808292105	-0.2880859375	0.802734375	0.310546875	5.25	-3.0	5.5
19	02	10	17	53	03	0.729330060029	0.571366532089	-0.067995119832	-0.2705078125	0.787109375	0.30908203125	0.0625	-2.6875	4.0
19	02	10	17	53	03	0.729885929206	0.570761274796	-0.0684229910219	-0.27978515625	0.7998046875	0.3359375	-1.625	-1.25	3.125
19	02	10	17	53	03	0.730120981663	0.570632089748	-0.0686662852676	-0.2900390625	0.81201171875	0.3310546875	0.5625	0.375	2.125
19	02	10	17	53	03	0.730618105151	0.570150686734	-0.0686671151457	-0.2939453125	0.833984375	0.3564453125	-1.375	1.0	2.0
19	02	10	17	53	03	0.731110611561	0.569665665195	-0.0684233591218	-0.30615234375	0.85546875	0.3759765625	-1.375	2.0	0.75
19	02	10	17	53	04	0.731531149812	0.56923316672	-0.0678733949596	-0.3212890625	0.87646484375	0.3955078125	-1.0	2.625	-0.5
19	02	10	17	53	04	0.731582207537	0.569225401927	-0.0670789960023	-0.3466796875	0.90576171875	0.37451171875	-0.4375	3.1875	-1.6875
19	02	10	17	53	04	0.73217752026	0.568481279069	-0.0659179494733	-0.35791015625	0.931640625	0.38623046875	-6.25	3.1875	-2.1875
19	02	10	17	53	04	0.732887472113	0.567473542786	-0.0648837663743	-0.34326171875	0.89208984375	0.3798828125	-7.125	1.8125	-1.9375
19	02	10	17	53	04	0.733732169305	0.566367257215	-0.0643335584766	-0.33154296875	0.845703125	0.38671875	-5.5	0.4375	0.875
19	02	10	17	53	04	0.733500311029	0.566742979771	-0.0643346365836	-0.33056640625	0.8330078125	0.341796875	2.8125	0.6875	1.3125
19	02	10	17	53	04	0.732865650896	0.567700792787	-0.064942871038	-0.32177734375	0.84912109375	0.31787109375	6.5	-0.25	2.25
19	02	10	17	53	04	0.73285454718	0.567875298322	-0.0653081007314	-0.2978515625	0.8447265625	0.3134765625	0.3125	-0.375	1.3125
19	02	10	17	53	04	0.733112151308	0.567519505692	-0.0651261897798	-0.30859375	0.8154296875	0.33935546875	-1.4375	0.0625	0.375
19	02	10	17	53	04	0.733257255036	0.567415253709	-0.0653723899228	-0.29541015625	0.81689453125	0.35498046875	1.5	0.25	1.4375
19	02	10	17	53	04	0.733625344178	0.567111496194	-0.0652504778206	-0.29345703125	0.8076171875	0.365234375	0.125	2.0	1.4375
19	02	10	17	53	04	0.733841137765	0.56702854278	-0.0650038103402	-0.30322265625	0.79541015625	0.36767578125	1.5625	2.5625	1.4375
19	02	10	17	53	04	0.734013916108	0.567020562169	-0.0648808242827	-0.3134765625	0.82080078125	0.369140625	2.25	2.1875	2.125
19	02	10	17	53	04	0.734137066197	0.567021395491	-0.0645147056011	-0.33349609375	0.853515625	0.35302734375	-0.375	2.125	1.0
19	02	10	17	53	04	0.734338232957	0.566791192024	-0.0638448833574	-0.35546875	0.88232421875	0.361328125	-2.375	1.6875	-0.125
19	02	10	17	53	04	0.734390954105	0.566662700956	-0.0629896496539	-0.380859375	0.91943359375	0.36865234375	-2.3125	1.25	-1.25
19	02	10	17	53	04	0.734092902792	0.566790279814	-0.0620747054244	-0.3974609375	0.91455078125	0.37158203125	-0.25	1.3125	-2.5
19	02	10	17	53	04	0.733251330964	0.567715860259	-0.0613433436792	-0.3984375	0.89892578125	0.3583984375	5.125	1.9375	-2.25
19	02	10	17	53	04	0.732171611047	0.569148072108	-0.0610956804483	-0.375	0.86376953125	0.33642578125	8.75	2.4375	-0.5
19	02	10	17	53	04	0.730850511406	0.570934999473	-0.0612806007559	-0.361328125	0.82373046875	0.31201171875	11.6875	1.9375	1.0625
19	02	10	17	53	04	0.729881759284	0.572406015936	-0.0620137035819	-0.34130859375	0.81201171875	0.302734375	10.6875	-0.0625	3.875
19	02	10	17	53	04	0.729307263082	0.573301792796	-0.0627439841366	-0.32958984375	0.8154296875	0.29931640625	6.5	-0.6875	3.9375
19	02	10	17	53	04	0.729197157809	0.573555343762	-0.0627450136626	-0.3515625	0.80908203125	0.3115234375	2.0625	-0.0625	3.3125
19	02	10	17	53	04	0.728963462425	0.574051860011	-0.062318654872	-0.357421875	0.8232421875	0.29345703125	0.875	1.9375	1.875
19	02	10	17	53	04	0.729027527644	0.574237356001	-0.0616475052679	-0.3779296875	0.85400390625	0.318359375	-1.1875	2.625	2.6875
19	02	10	17	53	04	0.72922779967	0.574556062467	-0.0613437631764	-0.35498046875	0.90869140625	0.306640625	-1.9375	3.6875	3.5
19	02	10	17	53	04	0.730030677933	0.574136166943	-0.0607951969248	-0.353515625	0.9091796875	0.3232421875	-6.4375	3.75	4.3125
19	02	10	17	53	04	0.731291449962	0.573204073666	-0.0603661834582	-0.33984375	0.90966796875	0.3388671875	-9.0	3.25	5.5625
19	02	10	17	53	04	0.732064205551	0.572760589036	-0.0600592945025	-0.365234375	0.8828125	0.31640625	-6.0	2.0	6.5
19	02	10	17	53	04	0.732727009837	0.572509733634	-0.0606689419224	-0.37255859375	0.85693359375	0.29248046875	-3.9375	-1.625	11.125
19	02	10	17	53	04	0.733783536191	0.571914135261	-0.0618302048046	-0.34716796875	0.83740234375	0.291015625	-4.9375	-2.6875	14.4375
19	02	10	17	53	04	0.73458763346	0.571617215401	-0.0631739261015	-0.33203125	0.82080078125	0.28076171875	-2.75	-3.25	14.5
19	02	10	17	53	04	0.735528290515	0.571162039884	-0.0647577392944	-0.30810546875	0.8310546875	0.29736328125	-2.4375	-2.9375	14.1875
19	02	10	17	53	04	0.73610336512	0.570937883692	-0.0658586675758	-0.29638671875	0.84716796875	0.3056640625	-1.4375	-2.1875	8.9375
19	02	10	17	53	04	0.736402599772	0.570811198762	-0.0656139904479	-0.298828125	0.82958984375	0.30322265625	-2.6875	1.75	1.6875
19	02	10	17	53	04	0.736202668994	0.571164365482	-0.0641476542126	-0.3154296875	0.85546875	0.30517578125	-2.25	5.625	-4.6875
19	02	10	17	53	04	0.735924112377	0.5717953956	-0.0619526394678	-0.31884765625	0.912109375	0.30712890625	-3.625	9.9375	-8.375
19	02	10	17	53	04	0.735920756554	0.571792788206	-0.0591446639381	-0.34619140625	0.88330078125	0.30908203125	-7.6875	8.9375	-9.6875
19	02	10	17	53	04	0.736296490399	0.571311875167	-0.0568259995492	-0.35498046875	0.8779296875	0.33740234375	-8.4375	6.9375	-6.6875
19	02	10	17	53	04	0.736281459839	0.571300212558	-0.0552378944835	-0.365234375	0.83740234375	0.35205078125	-1.5	5.0	-3.0
19	02	10	17	53	04	0.735748425298	0.571984278535	-0.0548118538176	-0.37060546875	0.82763671875	0.345703125	5.375	2.0625	0.6875
19	02	10	17	53	04	0.734989392934	0.573123268531	-0.0551760846381	-0.3603515625	0.82568359375	0.32470703125	8.75	0.625	3.6875
19	02	10	17	53	04	0.734333319503	0.574233884954	-0.055482419369	-0.34716796875	0.83447265625	0.30126953125	6.375	0.9375	3.6875
19	02	10	17	53	04	0.734256785131	0.57458797799	-0.0552371064458	-0.337890625	0.8349609375	0.29931640625	0.4375	1.8125	1.8125
19	02	10	17	53	04	0.734317187322	0.57477058873	-0.0545046337195	-0.33642578125	0.85546875	0.29736328125	-2.5625	3.8125	0.0
19	02	10	17	53	04	0.734739961443	0.574400878646	-0.0531004956351	-0.35302734375	0.841796875	0.3076171875	-6.4375	4.0625	-1.25
19	02	10	17	53	04	0.735249644791	0.573929305161	-0.0518813048375	-0.34130859375	0.8427734375	0.326171875	-5.75	4.4375	-0.875
19	02	10	17	53	04	0.735781847	0.573610767159	-0.05084249511	-0.341796875	0.85546875	0.3515625	-3.8125	5.625	0.5
19	02	10	17	53	04	0.736114800957	0.573693450597	-0.049684697179	-0.345703125	0.88134765625	0.33935546875	-2.75	6.9375	0.25
19	02	10	17	53	05	0.736892685322	0.573131973426	-0.0481577345083	-0.36572265625	0.896484375	0.357421875	-7.1875	6.9375	0.0
19	02	10	17	53	05	0.738061247564	0.572040192868	-0.0463271987182	-0.3671875	0.9052734375	0.36181640625	-11.4375	7.0	-0.4375
19	02	10	17	53	05	0.739388037363	0.570379825751	-0.0447392629509	-0.35986328125	0.8466796875	0.369140625	-12.625	3.4375	-0.5625
19	02	10	17	53	05	0.740637726987	0.568632031037	-0.0432760959645	-0.36328125	0.78662109375	0.38037109375	-10.375	1.75	0.1875
19	02	10	17	53	05	0.74080082105	0.568494590695	-0.0423593779195	-0.3740234375	0.76220703125	0.36669921875	0.75	3.125	1.75
19	02	10	17	53	05	0.739459608856	0.569838622227	-0.0426036159291	-0.3974609375	0.7998046875	0.32568359375	10.5	-2.375	0.3125
19	02	10	17	53	05	0.738527770443	0.570436408476	-0.0426637116975	-0.36572265625	0.78515625	0.31591796875	6.0625	-3.5	-2.5
19	02	10	17	53	05	0.73727244503	0.571311373912	-0.0418107148643	-0.3857421875	0.77001953125	0.32421875	6.625	-0.75	-6.3125
19	02	10	17	53	05	0.735869515107	0.572715963856	-0.0410172788779	-0.3798828125	0.8037109375	0.3125	8.75	2.1875	-5.5
19	02	10	17	53	05	0.734946655187	0.573992055924	-0.0402844275744	-0.3681640625	0.90673828125	0.3095703125	4.5625	4.6875	-4.375
19	02	10	17	53	05	0.735013245501	0.574057430156	-0.0391860574333	-0.34423828125	0.935546875	0.33056640625	-4.1875	5.0625	-5.25
19	02	10	17	53	05	0.735439466635	0.573507280978	-0.0375379925289	-0.35986328125	0.92626953125	0.37109375	-6.875	5.9375	-6.3125
19	02	10	17	53	05	0.735495884167	0.573564715644	-0.0361339056786	-0.38134765625	0.94775390625	0.38134765625	-2.125	6.875	-4.6875
19	02	10	17	53	05	0.735720481326	0.573610509665	-0.0351563793963	-0.3916015625	0.92578125	0.3759765625	-1.5	5.875	-0.75
19	02	10	17	53	05	0.736266050321	0.57311930801	-0.0342406743124	-0.40283203125	0.8662109375	0.37646484375	-3.3125	3.625	2.0625
19	02	10	17	53	05	0.736341782956	0.57319178413	-0.0338751400481	-0.3955078125	0.80615234375	0.36376953125	2.125	2.375	3.4375
19	02	10	17	53	05	0.735961220421	0.573913033307	-0.0338744797921	-0.38623046875	0.8046875	0.337890625	5.9375	1.8125	3.875
19	02	10	17	53	05	0.735809286181	0.574181497727	-0.0337538395071	-0.37158203125	0.79541015625	0.33203125	2.75	0.9375	2.1875
19	02	10	17	53	05	0.735794746596	0.574170151906	-0.0336921360532	-0.35302734375	0.7939453125	0.33154296875	0.6875	0.5	0.5625
19	02	10	17	53	05	0.736114427981	0.573815235278	-0.0333265736051	-0.345703125	0.8154296875	0.333984375	-2.25	1.3125	-0.25
19	02	10	17	53	05	0.736485669839	0.573513952744	-0.0328995339005	-0.349609375	0.86328125	0.33740234375	-3.5	2.4375	-0.1875
19	02	10	17	53	05	0.737074148396	0.572947584547	-0.0323492297656	-0.36962890625	0.9208984375	0.34619140625	-6.3125	2.0	-0.4375
19	02	10	17	53	05	0.737689532217	0.5720969705	-0.031311826082	-0.40087890625	0.90625	0.36328125	-7.75	1.5625	-1.125
19	02	10	17	53	05	0.738193878458	0.571315917179	-0.0300917464924	-0.43212890625	0.88037109375	0.3828125	-5.3125	1.9375	-0.5625
19	02	10	17	53	05	0.738373122009	0.571129809262	-0.0292370608781	-0.4306640625	0.8642578125	0.384765625	-1.0625	2.5625	1.4375
19	02	10	17	53	05	0.738344310937	0.571168559291	-0.0286255668206	-0.41650390625	0.82421875	0.3681640625	1.375	1.9375	1.8125
19	02	10	17	53	05	0.738304829554	0.571246271478	-0.027954994373	-0.39404296875	0.78369140625	0.34326171875	1.0625	2.3125	1.375
19	02	10	17	53	05	0.737866532893	0.571848088897	-0.0272831781126	-0.3916015625	0.78515625	0.3203125	2.75	2.875	0.25
19	02	10	17	53	05	0.737498049063	0.572273583383	-0.0267337702135	-0.39208984375	0.80517578125	0.306640625	1.1875	1.1875	-0.5625
19	02	10	17	53	05	0.737648595352	0.571807367915	-0.0258192267964	-0.3759765625	0.7890625	0.3193359375	-4.3125	0.5	-2.4375
19	02	10	17	53	05	0.73744561208	0.571669889318	-0.0245977968605	-0.38818359375	0.7626953125	0.32958984375	-1.125	1.75	-4.1875
19	02	10	17	53	05	0.736847021526	0.572167327683	-0.0237436623073	-0.39208984375	0.7958984375	0.34423828125	3.6875	2.625	-3.5
19	02	10	17	53	05	0.73647822853	0.572531558396	-0.0227059424012	-0.408203125	0.80810546875	0.3486328125	2.125	3.5	-2.1875
19	02	10	17	53	05	0.736599573517	0.572408916179	-0.0218513960324	-0.412109375	0.837890625	0.36474609375	-0.8125	3.0	-0.0625
19	02	10	17	53	05	0.736901308312	0.571978974587	-0.0209357366645	-0.41162109375	0.82958984375	0.37255859375	-2.1875	2.5625	-0.1875
19	02	10	17	53	05	0.737067285073	0.571538428075	-0.0198976428398	-0.4267578125	0.81396484375	0.37841796875	-1.9375	2.125	-1.0
19	02	10	17	53	05	0.736790578956	0.571682591542	-0.0191049168431	-0.44140625	0.81005859375	0.3720703125	2.5625	1.5625	-0.3125
19	02	10	17	53	05	0.736138444826	0.572504652389	-0.0188596948388	-0.43115234375	0.818359375	0.3369140625	5.625	1.125	1.625
19	02	10	17	53	05	0.7359186962	0.573011920041	-0.0187992832736	-0.4111328125	0.80322265625	0.31396484375	2.5	1.0	3.6875
19	02	10	17	53	05	0.736004504147	0.573275361001	-0.0188609547007	-0.3798828125	0.78125	0.2998046875	0.125	1.375	4.4375
19	02	10	17	53	05	0.735990398944	0.573569562023	-0.0187385182017	-0.37890625	0.74755859375	0.294921875	0.9375	1.3125	4.125
19	02	10	17	53	05	0.735582326705	0.574378034544	-0.0191662808551	-0.36865234375	0.74560546875	0.2861328125	5.0625	0.4375	4.375
19	02	10	17	53	05	0.735310826809	0.575028081627	-0.0194707523659	-0.36474609375	0.7431640625	0.29443359375	4.3125	0.8125	4.5
19	02	10	17	53	05	0.734894855784	0.575891442219	-0.0196541647477	-0.3798828125	0.771484375	0.29931640625	5.5625	1.75	3.9375
19	02	10	17	53	05	0.734398281057	0.576678437453	-0.0196539433594	-0.40771484375	0.82568359375	0.29736328125	3.5	0.75	2.375
19	02	10	17	53	05	0.734436223939	0.576599269306	-0.0196533253643	-0.40966796875	0.8740234375	0.3291015625	-1.1875	-1.0	1.0625
19	02	10	17	53	05	0.734154809633	0.576617932042	-0.0194098128919	-0.4345703125	0.90234375	0.3603515625	1.0625	-1.375	-1.8125
19	02	10	17	53	05	0.733491898231	0.576929801288	-0.0193489998951	-0.4443359375	0.9228515625	0.38623046875	4.875	-2.0	-3.375
19	02	10	17	53	05	0.732930731315	0.57716463985	-0.0189824664756	-0.45556640625	0.9267578125	0.4033203125	4.5625	-0.25	-3.375
19	02	10	17	53	05	0.732750484337	0.577227932559	-0.0181890582534	-0.4638671875	0.90283203125	0.38427734375	1.25	1.9375	-1.0625
19	02	10	17	53	06	0.733106157771	0.576731336673	-0.0172732530721	-0.458984375	0.86962890625	0.35986328125	-3.75	1.75	0.875
19	02	10	17	53	06	0.73389605397	0.57575195252	-0.0164186658781	-0.43408203125	0.8076171875	0.34765625	-6.75	0.8125	2.75
19	02	10	17	53	06	0.734339847087	0.575154549007	-0.0159917745771	-0.4150390625	0.7822265625	0.32958984375	-3.375	-0.5	2.6875
19	02	10	17	53	06	0.734441122778	0.574955154705	-0.0159913217126	-0.40234375	0.75634765625	0.3076171875	-0.75	-1.875	3.25
19	02	10	17	53	06	0.734508990923	0.574899466969	-0.0161745789093	-0.39453125	0.74658203125	0.296875	0.0	-1.875	4.125
19	02	10	17	53	06	0.734331609666	0.575270170484	-0.0164188515502	-0.39794921875	0.76318359375	0.2890625	1.9375	-1.0625	4.5
19	02	10	17	53	06	0.733974398462	0.576131754435	-0.0167852773037	-0.37841796875	0.8203125	0.28076171875	3.1875	1.1875	3.5
19	02	10	17	53	06	0.732786086332	0.578123422433	-0.0161742722704	-0.38916015625	0.83349609375	0.2294921875	5.375	6.3125	-1.0
19	02	10	17	53	06	0.733494505252	0.57705392799	-0.0117803478001	-0.42822265625	0.78857421875	0.3349609375	-14.125	14.125	-11.375
19	02	10	17	53	06	0.732081748995	0.578694935986	-0.00726344239873	-0.45849609375	0.7783203125	0.31298828125	2.8125	19.3125	-14.25
19	02	10	17	53	06	0.730317992375	0.580836273751	-0.00390642302649	-0.4951171875	0.82568359375	0.29736328125	6.6875	15.0625	-9.8125
19	02	10	17	53	06	0.729927811475	0.581305500167	-0.00207521913121	-0.46923828125	0.8330078125	0.33544921875	0.6875	7.5625	-3.5625
19	02	10	17	53	06	0.729555413211	0.581849891587	-0.00213623688299	-0.4130859375	0.82275390625	0.3623046875	6.5625	2.5	0.5625
19	02	10	17	53	06	0.728981372125	0.582367183408	-0.00268568871921	-0.41259765625	0.8359375	0.3740234375	8.625	-0.5625	-0.3125
19	02	10	17	53	06	0.728422667976	0.582725926861	-0.00335706776761	-0.451171875	0.83740234375	0.35595703125	7.0	-4.0625	1.1875
19	02	10	17	53	06	0.729444441872	0.581370455094	-0.00415046624109	-0.4658203125	0.83544921875	0.36376953125	-4.4375	-6.4375	7.8125
19	02	10	17	53	06	0.731020043497	0.579530375971	-0.00567628488313	-0.4619140625	0.82666015625	0.35693359375	-7.6875	-9.625	13.3125
19	02	10	17	53	06	0.732445487079	0.578143637801	-0.00842312310141	-0.4609375	0.853515625	0.3466796875	-4.0	-12.9375	18.5625
19	02	10	17	53	06	0.733650479447	0.577154653382	-0.0123902701604	-0.45947265625	0.8544921875	0.31103515625	-1.375	-17.5625	23.8125
19	02	10	17	53	06	0.735374107413	0.57576228048	-0.0177007379772	-0.41259765625	0.85205078125	0.30908203125	-2.0	-21.5	29.3125
19	02	10	17	53	06	0.736909208181	0.574853882436	-0.0239268126901	-0.376953125	0.82666015625	0.30078125	2.8125	-22.0625	33.6875
19	02	10	17	53	06	0.738418716835	0.574169686665	-0.0308233965946	-0.3544921875	0.79736328125	0.30859375	6.0	-22.4375	38.25
19	02	10	17	53	06	0.739455658446	0.574474342327	-0.0382698058477	-0.328125	0.8056640625	0.31201171875	13.6875	-19.625	41.5625
19	02	10	17	53	06	0.740005053345	0.575695122332	-0.0456552111434	-0.30859375	0.86962890625	0.30224609375	17.5625	-15.8125	41.25
19	02	10	17	53	06	0.740622851686	0.57667749322	-0.0524918124649	-0.28515625	0.8955078125	0.31787109375	15.875	-13.125	38.25
19	02	10	17	53	06	0.741429484933	0.577298103935	-0.0583523987483	-0.287109375	0.89794921875	0.3173828125	11.625	-10.9375	35.875
19	02	10	17	53	06	0.743748807053	0.576016207809	-0.0630523198757	-0.26806640625	0.85302734375	0.361328125	0.3125	-7.875	36.0
