19	01	14	15	41	06	-0.163810762335	-0.255420283299	0.0473000524627	0.57470703125	-0.02587890625	0.74365234375	8.375	28.9375	-51.3125
19	01	14	15	41	06	-0.172110013317	-0.252428019531	0.0423561522134	0.59521484375	0.01220703125	0.78076171875	11.4375	31.9375	-51.75
19	01	14	15	41	06	-0.179742857756	-0.24919867172	0.0372302693484	0.62255859375	0.02978515625	0.79736328125	13.0625	34.875	-48.5625
19	01	14	15	41	06	-0.187555413513	-0.245903274014	0.03094389673	0.626953125	0.07275390625	0.810546875	17.125	37.0625	-50.25
19	01	14	15	41	06	-0.19554942518	-0.242422695635	0.0231314707063	0.58349609375	0.09375	0.76708984375	24.1875	38.6875	-53.4375
19	01	14	15	41	06	-0.202630828673	-0.238640524131	0.0147090450935	0.5908203125	0.119140625	0.78173828125	28.375	42.25	-49.0
19	01	14	15	41	06	-0.208364107504	-0.23460797576	0.00579806391707	0.61474609375	0.12841796875	0.7626953125	32.4375	47.0625	-42.9375
19	01	14	15	41	06	-0.214101920736	-0.230153461544	-0.00457743559157	0.58740234375	0.16015625	0.74853515625	39.25	50.5625	-44.5625
19	01	14	15	41	06	-0.221249814633	-0.225217052689	-0.0160520555168	0.52587890625	0.1708984375	0.7568359375	43.125	50.875	-54.6875
19	01	14	15	41	06	-0.229664560557	-0.220326618021	-0.028074859914	0.4853515625	0.16357421875	0.77197265625	46.3125	48.375	-63.75
19	01	14	15	41	07	-0.239184035064	-0.215076432652	-0.0403420890985	0.5234375	0.1640625	0.82763671875	48.0	51.75	-72.0625
19	01	14	15	41	07	-0.249198716742	-0.208733678976	-0.0511458546729	0.572265625	0.13720703125	0.87255859375	41.6875	58.8125	-75.6875
19	01	14	15	41	07	-0.258591269593	-0.202259019927	-0.0614589116074	0.6103515625	0.134765625	0.9453125	42.0	60.8125	-73.9375
19	01	14	15	41	07	-0.266890431184	-0.196582227039	-0.0740311212042	0.63427734375	0.2060546875	0.916015625	53.125	63.3125	-70.1875
19	01	14	15	41	07	-0.273914992637	-0.190727351157	-0.088375425432	0.59765625	0.29248046875	0.91064453125	60.0	67.1875	-64.5
19	01	14	15	41	07	-0.279833509112	-0.184134721263	-0.103327836625	0.54345703125	0.40380859375	0.88818359375	57.0	70.6875	-57.75
19	01	14	15	41	07	-0.284894184884	-0.177540099363	-0.117851471939	0.50048828125	0.5380859375	0.8515625	48.1875	69.75	-50.4375
19	01	14	15	41	07	-0.288679419526	-0.170583293356	-0.129875222992	0.45654296875	0.5458984375	0.8408203125	35.75	67.8125	-40.9375
19	01	14	15	41	07	-0.291424783232	-0.162831690401	-0.140311115529	0.38916015625	0.55322265625	0.8603515625	27.0625	67.375	-33.1875
19	01	14	15	41	07	-0.293068482557	-0.154651298375	-0.14995194953	0.33203125	0.5849609375	0.8564453125	21.5	67.1875	-25.625
19	01	14	15	41	07	-0.29363141275	-0.145625556188	-0.1588697916	0.265625	0.568359375	0.8603515625	18.875	68.625	-18.6875
19	01	14	15	41	07	-0.293200515068	-0.135492327946	-0.166374813504	0.2080078125	0.5732421875	0.89794921875	11.0	70.75	-12.125
19	01	14	15	41	07	-0.292349464252	-0.124935146832	-0.172541113871	0.1640625	0.58935546875	0.90966796875	2.625	70.3125	-8.125
19	01	14	15	41	07	-0.291306484073	-0.113886004459	-0.177359447458	0.12158203125	0.5498046875	0.90087890625	-2.9375	69.5625	-6.5
19	01	14	15	41	07	-0.290031316851	-0.102780458244	-0.181574740663	0.06884765625	0.52099609375	0.9189453125	-3.6875	67.1875	-4.375
19	01	14	15	41	07	-0.288569837057	-0.091673412703	-0.185666126127	0.04150390625	0.53857421875	0.93115234375	-5.0	66.75	-3.75
19	01	14	15	41	07	-0.287227070099	-0.0806262132597	-0.189755410314	-0.00927734375	0.52587890625	0.92724609375	-4.125	64.25	-3.875
19	01	14	15	41	07	-0.28611777451	-0.0698205490699	-0.192555797479	-0.02685546875	0.48828125	0.9638671875	-7.25	60.875	-4.5625
19	01	14	15	41	07	-0.28514329201	-0.0596286379053	-0.193533685566	-0.01318359375	0.443359375	0.97119140625	-13.75	56.6875	-4.5
19	01	14	15	41	07	-0.284107859675	-0.0499858941083	-0.192131373203	-0.00341796875	0.38525390625	1.017578125	-21.1875	51.9375	-3.375
19	01	14	15	41	07	-0.283862602735	-0.0424176540315	-0.191947513567	0.0087890625	0.3681640625	0.99853515625	-10.625	43.625	-7.0
19	01	14	15	41	07	-0.284290468409	-0.036253443159	-0.192863434988	0.01025390625	0.39306640625	0.99462890625	-4.0625	37.4375	-10.875
19	01	14	15	41	07	-0.285014826529	-0.030881692125	-0.192857998251	-0.0146484375	0.3955078125	0.9990234375	-7.9375	30.875	-11.0
19	01	14	15	41	07	-0.286065767516	-0.0267938706933	-0.191097059546	-0.015625	0.39794921875	0.99560546875	-16.1875	21.125	-11.0625
19	01	14	15	41	07	-0.287646408303	-0.0234364992125	-0.1883464494	-0.005859375	0.3759765625	0.994140625	-19.625	16.0625	-12.9375
19	01	14	15	41	07	-0.289470073701	-0.0203233258575	-0.186632824241	-0.05419921875	0.361328125	0.96875	-13.625	12.9375	-13.625
19	01	14	15	41	07	-0.290941433934	-0.0178214597669	-0.186026744416	-0.078125	0.38134765625	0.96044921875	-8.0	11.0	-11.125
19	01	14	15	41	07	-0.29204144432	-0.0162346968003	-0.18627178434	-0.07958984375	0.40234375	0.947265625	-3.625	7.625	-8.3125
19	01	14	15	41	07	-0.292777893152	-0.0148311503098	-0.186396432288	-0.08203125	0.408203125	0.96240234375	-3.75	7.25	-6.375
19	01	14	15	41	07	-0.293313532118	-0.0129385078671	-0.184678890593	-0.08251953125	0.35400390625	0.95263671875	-12.3125	6.9375	-4.375
19	01	14	15	41	07	-0.29337804983	-0.0111687503888	-0.181507451673	-0.0595703125	0.33642578125	0.94482421875	-19.8125	5.6875	-1.8125
19	01	14	15	41	07	-0.293571900575	-0.00927711619279	-0.177607948165	-0.037109375	0.3310546875	0.93408203125	-24.3125	6.875	-2.6875
19	01	14	15	41	07	-0.294174085947	-0.00701867632446	-0.175222780239	-0.0625	0.33056640625	0.9375	-17.125	9.4375	-5.75
19	01	14	15	41	07	-0.294600307289	-0.00476047730859	-0.173940517045	-0.08544921875	0.3388671875	0.9443359375	-11.3125	9.875	-4.3125
19	01	14	15	41	07	-0.294532693565	-0.00256327665349	-0.172227778956	-0.08447265625	0.33984375	0.96044921875	-13.9375	10.1875	-1.8125
19	01	14	15	41	07	-0.294600144333	0.000244126906429	-0.169668199968	-0.0888671875	0.357421875	0.98291015625	-20.5625	11.625	-2.6875
19	01	14	15	41	07	-0.295023412516	0.0042111326983	-0.165515824316	-0.09716796875	0.28955078125	0.974609375	-27.625	14.875	-5.3125
19	01	14	15	41	07	-0.295401523295	0.00848363878886	-0.162348771067	-0.10595703125	0.265625	0.9609375	-22.4375	17.8125	-5.5625
19	01	14	15	41	07	-0.295755642412	0.0126944229513	-0.160938429435	-0.14306640625	0.2890625	0.9482421875	-14.125	18.375	-5.0625
19	01	14	15	41	07	-0.29606640339	0.0166617456453	-0.159537740355	-0.173828125	0.30859375	0.95849609375	-15.4375	15.75	-4.5
19	01	14	15	41	07	-0.295894131429	0.0198971713791	-0.157468411528	-0.15869140625	0.2880859375	0.97119140625	-17.0	12.375	-1.25
19	01	14	15	41	07	-0.296008137249	0.0229482597125	-0.154778687848	-0.16357421875	0.2685546875	0.9716796875	-18.8125	9.9375	-2.375
19	01	14	15	41	07	-0.296370289609	0.026121598837	-0.152152210048	-0.19482421875	0.24609375	0.9453125	-18.4375	8.625	-3.6875
19	01	14	15	41	07	-0.296681388455	0.0291127385915	-0.149347738644	-0.22802734375	0.23291015625	0.9443359375	-18.4375	5.25	-2.375
19	01	14	15	41	07	-0.297160691386	0.0313089822718	-0.146169615089	-0.23193359375	0.20751953125	0.9560546875	-17.5625	0.25	-2.375
19	01	14	15	41	07	-0.29808755133	0.0327749826094	-0.143306627871	-0.2177734375	0.1982421875	0.96044921875	-14.5625	-2.375	-4.625
19	01	14	15	41	07	-0.299245362246	0.0341785443316	-0.140986495368	-0.21923828125	0.1787109375	0.921875	-10.875	-2.625	-6.125
19	01	14	15	41	07	-0.300896753429	0.0354606518747	-0.139523322178	-0.2509765625	0.17333984375	0.89111328125	-5.875	-4.0625	-8.4375
19	01	14	15	41	07	-0.302961807985	0.0360087563882	-0.138420100828	-0.2529296875	0.19921875	0.89599609375	-4.625	-7.9375	-10.625
19	01	14	15	41	07	-0.30541373824	0.0360100131018	-0.136532880184	-0.2353515625	0.19873046875	0.8896484375	-8.0625	-11.625	-12.9375
19	01	14	15	41	08	-0.308144742244	0.0359471683861	-0.134084769006	-0.21435546875	0.169921875	0.89013671875	-9.3125	-11.875	-14.5
19	01	14	15	41	08	-0.310037963003	0.0355200973362	-0.133230880558	-0.220703125	0.17626953125	0.85009765625	-1.1875	-11.25	-9.1875
19	01	14	15	41	08	-0.310845956332	0.0344231532243	-0.134335745118	-0.22900390625	0.23291015625	0.8134765625	5.625	-11.375	-2.875
19	01	14	15	41	08	-0.311086522957	0.0329579600543	-0.135921068594	-0.22314453125	0.26904296875	0.79296875	6.3125	-12.25	0.6875
19	01	14	15	41	08	-0.310293044351	0.0317983233885	-0.137996178851	-0.236328125	0.28173828125	0.79345703125	7.5	-9.625	6.6875
19	01	14	15	41	08	-0.308648780926	0.0313104260659	-0.142880521287	-0.26416015625	0.3388671875	0.7451171875	17.125	-2.6875	10.9375
19	01	14	15	41	08	-0.30479668259	0.0332017211312	-0.148736386759	-0.32275390625	0.38427734375	0.67919921875	13.9375	9.25	22.375
19	01	14	15	41	08	-0.296240763453	0.0394255321778	-0.152331467981	-0.43896484375	0.42138671875	0.716796875	-9.5625	25.625	48.125
19	01	14	15	41	08	-0.28043671772	0.0507166294723	-0.150074839798	-0.4306640625	0.49853515625	0.91845703125	-55.5	52.4375	84.5
19	01	14	15	41	08	-0.26226537621	0.0625603934409	-0.135679760604	-0.74560546875	0.24658203125	1.04638671875	-108.0625	46.125	97.0
19	01	14	15	41	08	-0.24473916409	0.0706752997547	-0.117425972995	-0.82373046875	0.03564453125	1.05908203125	-120.1875	17.9375	95.4375
19	01	14	15	41	08	-0.227530771674	0.078427318026	-0.0984461198256	-0.25634765625	-0.20166015625	1.02294921875	-120.0625	24.5	91.375
19	01	14	15	41	08	-0.228571088475	0.0843485298459	-0.0796489373726	-0.26171875	-0.83056640625	1.40966796875	-43.0625	9.25	-2.75
19	01	14	15	41	08	-0.240964490791	0.0846549515518	-0.0649407847521	-0.14501953125	-0.74658203125	1.56787109375	-13.375	-11.375	-66.9375
19	01	14	15	41	08	-0.244250716709	0.0817220663852	-0.0775108471316	-0.041015625	0.19189453125	1.10888671875	71.1875	13.5	-15.1875
19	01	14	15	41	08	-0.241264042414	0.0844088466122	-0.103634288899	-0.92822265625	0.36083984375	0.41748046875	135.0625	39.625	25.8125
19	01	14	15	41	08	-0.242966419422	0.0935612964012	-0.113091377842	-0.6787109375	0.56298828125	0.7041015625	11.9375	29.375	-14.875
19	01	14	15	41	08	-0.24119826806	0.104974954723	-0.103266060111	-0.24755859375	0.3916015625	0.4833984375	-92.125	41.9375	-6.375
19	01	14	15	41	08	-0.237047780208	0.127251447408	-0.0917308994987	-0.7294921875	0.1220703125	0.6005859375	-99.625	72.8125	6.125
19	01	14	15	41	08	-0.231859824749	0.14977204789	-0.0812333315979	-0.72021484375	0.1298828125	0.60888671875	-96.5625	79.1875	9.5
19	01	14	15	41	08	-0.224840983834	0.172597801922	-0.0771441377758	-0.59228515625	0.126953125	0.47802734375	-63.8125	98.5625	22.125
19	01	14	15	41	08	-0.217952203218	0.190547963721	-0.0714097109396	0.0703125	0.30078125	0.9697265625	-64.8125	103.0625	20.125
19	01	14	15	41	08	-0.223627792842	0.192317460493	-0.0751325908812	0.32958984375	0.16650390625	1.359375	20.0625	73.875	-36.125
19	01	14	15	41	08	-0.240343404013	0.181264578446	-0.0854445824324	0.25927734375	0.10107421875	1.59033203125	93.0625	9.5	-81.75
19	01	14	15	41	08	-0.250968533444	0.169672306171	-0.103634379812	-0.15673828125	0.26904296875	1.18115234375	125.0625	-35.625	-38.125
19	01	14	15	41	08	-0.244015454011	0.169492475185	-0.118223595403	-0.87109375	0.31298828125	0.61669921875	58.875	-16.0625	52.125
19	01	14	15	41	08	-0.23588456569	0.182848682745	-0.1157146537	-0.96484375	0.2080078125	0.41015625	-49.3125	24.9375	36.125
19	01	14	15	41	08	-0.230216909319	0.191338815142	-0.0994839772509	-0.4921875	-0.205078125	0.79052734375	-87.6875	18.0625	19.5
19	01	14	15	41	08	-0.228207217867	0.199337997741	-0.0894762721028	-0.63232421875	-0.337890625	0.87060546875	-40.75	16.9375	8.6875
19	01	14	15	41	08	-0.229245545504	0.20019312813	-0.0925893217599	-0.595703125	0.009765625	0.85498046875	21.75	-3.5	-0.0625
19	01	14	15	41	08	-0.229546380033	0.196710444787	-0.106014906173	-0.49462890625	0.291015625	0.8203125	65.875	-7.3125	9.3125
19	01	14	15	41	08	-0.22869402817	0.194209873936	-0.117246124397	-0.51123046875	0.41015625	0.7109375	44.375	-8.875	10.5
19	01	14	15	41	08	-0.227161207156	0.193593591912	-0.121880959347	-0.61962890625	0.3916015625	0.70849609375	6.9375	-14.125	8.4375
19	01	14	15	41	08	-0.225390703254	0.193837225436	-0.119561437226	-0.57763671875	0.20654296875	0.8271484375	-20.375	-13.1875	7.125
19	01	14	15	41	08	-0.224420810304	0.193903974527	-0.115170538223	-0.5244140625	0.03125	0.9140625	-18.9375	-11.625	5.25
19	01	14	15	41	08	-0.225330014668	0.193532360919	-0.114740094143	-0.58837890625	0.03515625	0.94580078125	5.4375	-12.375	-0.75
19	01	14	15	41	08	-0.226550483504	0.192738800352	-0.117181284571	-0.59423828125	0.06591796875	0.93798828125	20.6875	-11.375	-0.4375
19	01	14	15	41	08	-0.227287128038	0.197747125361	-0.120052035674	-0.91015625	0.0009765625	0.71337890625	17.75	-3.9375	2.625
19	01	14	15	41	08	-0.226671566236	0.212573253958	-0.122429499695	-1.1884765625	-0.119140625	0.44775390625	6.875	28.625	6.125
19	01	14	15	41	08	-0.2225318067	0.227963877681	-0.121702803774	-0.666015625	-0.15234375	0.56005859375	-12.6875	66.75	18.3125
19	01	14	15	41	08	-0.227779216277	0.239497761166	-0.127378141578	-0.5419921875	-0.09521484375	0.6708984375	37.8125	63.5	-27.0625
19	01	14	15	41	08	-0.237906560702	0.245596716333	-0.138850032221	-0.4345703125	0.09375	1.02734375	76.1875	60.1875	-49.625
19	01	14	15	41	08	-0.247916898196	0.234794758089	-0.149775496842	-0.1162109375	0.73876953125	1.20849609375	58.25	-11.4375	-56.4375
19	01	14	15	41	08	-0.252915503323	0.234483919828	-0.168752742926	-1.11181640625	0.1845703125	0.54443359375	111.1875	16.125	-5.5625
19	01	14	15	41	08	-0.2478591256	0.23907022777	-0.161801167684	-0.18798828125	0.36669921875	0.95068359375	-61.1875	40.75	3.8125
19	01	14	15	41	08	-0.252065883707	0.231192631351	-0.167108084646	-0.03173828125	0.4814453125	0.84619140625	28.5	-9.25	-24.75
19	01	14	15	41	08	-0.249441511214	0.228141024937	-0.171136285159	-0.64306640625	0.28759765625	0.87744140625	17.0625	-15.1875	22.25
19	01	14	15	41	08	-0.243944993878	0.228809052301	-0.164908524758	-0.513671875	0.31396484375	0.70166015625	-52.5625	-8.5625	19.5625
19	01	14	15	41	08	-0.240413366521	0.230525840404	-0.159176963668	-0.70263671875	0.134765625	0.76904296875	-36.875	-12.0625	16.125
19	01	14	15	41	08	-0.238515175319	0.229055131262	-0.153863039145	-0.62158203125	0.11279296875	0.80810546875	-27.125	-24.375	10.6875
19	01	14	15	41	08	-0.237105028964	0.22782833285	-0.148305076031	-0.58349609375	0.1328125	0.8046875	-29.8125	-22.0	5.75
19	01	14	15	41	09	-0.237111783673	0.225332485282	-0.140191960643	-0.57861328125	0.14013671875	0.92822265625	-39.75	-29.875	-4.375
19	01	14	15	41	09	-0.239123678763	0.221607472586	-0.133660249232	-0.55712890625	0.12841796875	0.83203125	-27.9375	-37.9375	-13.375
19	01	14	15	41	09	-0.240891919391	0.21660132301	-0.127922336722	-0.53125	0.166015625	0.8173828125	-25.4375	-43.6875	-11.125
19	01	14	15	41	09	-0.242726115136	0.211050265562	-0.122797320507	-0.55517578125	0.17822265625	0.81494140625	-22.4375	-48.5625	-10.75
19	01	14	15	41	09	-0.242724156781	0.204212981793	-0.117974803887	-0.578125	0.18896484375	0.87744140625	-22.0	-54.875	0.8125
19	01	14	15	41	09	-0.239682259412	0.194089530158	-0.113585099253	-0.46923828125	0.25048828125	1.01220703125	-23.0625	-62.375	19.4375
19	01	14	15	41	09	-0.234423453927	0.17955579314	-0.107416110104	-0.31201171875	0.267578125	1.107421875	-30.1875	-78.8125	32.8125
19	01	14	15	41	09	-0.227714568998	0.163385661005	-0.100765680358	-0.2705078125	0.1669921875	1.08447265625	-26.625	-88.5625	44.5625
19	01	14	15	41	09	-0.219048883128	0.145076398773	-0.0962496764261	-0.18310546875	0.15771484375	1.048828125	-13.625	-94.25	58.8125
19	01	14	15	41	09	-0.209833564654	0.126400614427	-0.0923438578597	-0.13818359375	0.16650390625	1.03271484375	-8.9375	-104.1875	63.3125
19	01	14	15	41	09	-0.19969430952	0.106499562993	-0.0850165565896	-0.0712890625	0.25390625	1.05419921875	-28.9375	-114.3125	66.875
19	01	14	15	41	09	-0.18957444319	0.0858150892225	-0.0711056749247	-0.005859375	0.21533203125	1.12109375	-64.0625	-125.375	62.8125
19	01	14	15	41	09	-0.180042025557	0.0642658484446	-0.0556604499349	0.06591796875	0.103515625	1.046875	-69.75	-132.0	58.9375
19	01	14	15	41	09	-0.170469475514	0.0424190066174	-0.0415645230309	0.07275390625	0.0185546875	1.05908203125	-60.25	-132.4375	58.9375
19	01	14	15	41	09	-0.162221850752	0.0202014419108	-0.0301495839999	0.0888671875	0.03662109375	1.03759765625	-45.0625	-132.5	51.4375
19	01	14	15	41	09	-0.154899573104	-0.00164786779897	-0.0220326027937	0.08154296875	0.021484375	1.03564453125	-26.5	-128.6875	45.375
19	01	14	15	41	09	-0.147880987367	-0.0219715870624	-0.0178824305813	0.08935546875	-0.015625	0.9736328125	-4.5625	-117.0625	43.25
19	01	14	15	41	09	-0.141290566741	-0.040342576508	-0.0184928905929	0.0654296875	-0.021484375	0.92919921875	20.9375	-102.9375	39.3125
19	01	14	15	41	09	-0.133966812606	-0.0550515102373	-0.0216666143395	0.08349609375	0.0380859375	0.8876953125	32.625	-80.1875	42.375
19	01	14	15	41	09	-0.12774064782	-0.065426648095	-0.0249011869615	0.03125	0.03857421875	0.82080078125	29.3125	-60.5	35.75
19	01	14	15	41	09	-0.123040144393	-0.072749926645	-0.0261216179564	0.05615234375	0.0029296875	0.8876953125	18.125	-44.75	27.0625
19	01	14	15	41	09	-0.119928752861	-0.0779994636926	-0.0273425350033	0.1005859375	-0.05517578125	0.8876953125	20.0	-30.5	16.8125
19	01	14	15	41	09	-0.116331271321	-0.0807483063785	-0.0293574719335	0.103515625	-0.01513671875	0.912109375	20.875	-16.4375	19.3125
19	01	14	15	41	09	-0.112361093492	-0.0824550990262	-0.0306383861666	0.13037109375	0.0263671875	0.89453125	13.3125	-8.6875	21.8125
19	01	14	15	41	09	-0.10870031894	-0.0843480296321	-0.0304556199612	0.14208984375	0.021484375	0.888671875	5.125	-10.25	21.0
19	01	14	15	41	09	-0.105284756753	-0.0869743642746	-0.0303952515149	0.16845703125	0.046875	0.94580078125	5.0	-13.6875	19.3125
19	01	14	15	41	09	-0.102594606812	-0.0910595796333	-0.0310652319258	0.154296875	0.09033203125	0.91357421875	6.625	-22.9375	16.0
19	01	14	15	41	09	-0.0999728218167	-0.0960666798165	-0.0314932698763	0.1513671875	0.10595703125	0.93115234375	4.75	-29.375	15.6875
19	01	14	15	41	09	-0.0977157182472	-0.101560871432	-0.0324701824532	0.16259765625	0.091796875	0.94970703125	9.0	-32.0625	13.625
19	01	14	15	41	09	-0.0962473684247	-0.107111053637	-0.0349102693335	0.16796875	0.08984375	0.96142578125	17.8125	-32.5625	7.6875
19	01	14	15	41	09	-0.0950913506316	-0.111936801706	-0.0373529567308	0.1689453125	0.07177734375	0.96435546875	18.875	-28.9375	5.8125
19	01	14	15	41	09	-0.0937468958814	-0.115413658927	-0.0386950078052	0.16650390625	0.06787109375	0.95947265625	12.375	-22.5	6.875
19	01	14	15	41	09	-0.0922821900097	-0.117488899318	-0.0390612444485	0.17626953125	0.0224609375	0.94775390625	9.25	-14.25	7.6875
19	01	14	15	41	09	-0.0908171326843	-0.118098892301	-0.0391831983759	0.1669921875	0.0146484375	0.927734375	7.1875	-6.625	7.4375
19	01	14	15	41	09	-0.0897152913856	-0.11772843339	-0.0391207495089	0.16748046875	0.001953125	0.92236328125	6.3125	-0.75	5.3125
19	01	14	15	41	09	-0.0889876795315	-0.116269910499	-0.0391838753493	0.1455078125	0.02392578125	0.88037109375	4.6875	4.875	3.1875
19	01	14	15	41	09	-0.0883153282875	-0.113522122056	-0.0397937761185	0.1220703125	0.05078125	0.853515625	4.6875	11.5625	2.875
19	01	14	15	41	09	-0.0874602816014	-0.109615258727	-0.0421127664375	0.09423828125	0.06201171875	0.82958984375	13.1875	17.75	2.6875
19	01	14	15	41	09	-0.0869114728605	-0.104733207464	-0.0466905033274	0.05517578125	0.07470703125	0.79638671875	24.75	23.0	-0.25
19	01	14	15	41	09	-0.0872151759656	-0.0980178954519	-0.0540135974315	0.0146484375	0.10205078125	0.80859375	38.25	32.3125	-6.625
19	01	14	15	41	09	-0.0883141607561	-0.0897789429663	-0.0634128631828	0.01416015625	0.11279296875	0.8232421875	48.75	42.625	-12.8125
19	01	14	15	41	09	-0.0892936309257	-0.0795891283166	-0.0742180828473	0.03466796875	0.13232421875	0.8564453125	56.3125	56.5	-14.0
19	01	14	15	41	09	-0.0903269986133	-0.0678673124716	-0.0859327121943	0.03759765625	0.15380859375	0.888671875	60.75	67.0625	-15.4375
19	01	14	15	41	09	-0.0916708833194	-0.0545020631186	-0.0979572355044	0.00244140625	0.154296875	0.91162109375	63.3125	75.5625	-18.25
19	01	14	15	41	09	-0.0937468785955	-0.0402818618965	-0.10949342461	-0.00830078125	0.16015625	0.96435546875	61.9375	80.8125	-23.0625
19	01	14	15	41	09	-0.0967343143459	-0.0255110052975	-0.119437888438	0.00927734375	0.18115234375	1.013671875	53.0625	85.75	-29.0625
19	01	14	15	41	09	-0.10064386043	-0.0098873895632	-0.127071265868	0.009765625	0.171875	1.005859375	40.9375	90.875	-35.0
19	01	14	15	41	09	-0.105893576749	0.00659164627602	-0.132321195615	-0.02587890625	0.1630859375	0.97705078125	27.25	93.4375	-42.8125
19	01	14	15	41	09	-0.112728241704	0.0228264008648	-0.135798775198	-0.03466796875	0.220703125	0.990234375	14.5625	91.5625	-52.375
19	01	14	15	41	09	-0.121939907454	0.0380833344602	-0.140493326807	-0.0478515625	0.27880859375	0.99169921875	19.3125	86.4375	-65.75
19	01	14	15	41	10	-0.133171303352	0.0496798537711	-0.146476227335	-0.05029296875	0.26318359375	1.03515625	32.6875	67.75	-74.9375
19	01	14	15	41	10	-0.144650760182	0.0577992699969	-0.154538280499	-0.09765625	0.3125	1.05029296875	45.25	48.125	-72.8125
19	01	14	15	41	10	-0.152645873866	0.0616442753318	-0.164303355637	-0.0087890625	0.4189453125	1.0869140625	52.3125	36.125	-52.25
19	01	14	15	41	10	-0.158686889005	0.0620709869687	-0.176081413377	0.05859375	0.47998046875	1.10791015625	63.75	26.0	-39.5
19	01	14	15	41	10	-0.163448589798	0.0611558950628	-0.188045222244	0.044921875	0.51318359375	1.05126953125	64.1875	18.125	-31.5
19	01	14	15	41	10	-0.166619720265	0.0601173715976	-0.195854462393	-0.00537109375	0.591796875	0.98046875	33.8125	11.25	-22.875
19	01	14	15	41	10	-0.168568095578	0.059993641547	-0.196459340936	-0.0556640625	0.5244140625	0.90478515625	-6.125	6.0	-16.375
19	01	14	15	41	10	-0.170101840303	0.060118519088	-0.192745465259	-0.064453125	0.42919921875	0.86865234375	-26.9375	2.1875	-13.25
19	01	14	15	41	10	-0.172292661761	0.0606655705952	-0.189869808976	-0.1044921875	0.38232421875	0.830078125	-20.6875	1.5	-16.25
19	01	14	15	41	10	-0.175283920265	0.0625578058048	-0.188039609448	-0.16943359375	0.3486328125	0.767578125	-14.625	4.75	-20.0625
19	01	14	15	41	10	-0.178585091423	0.065611405769	-0.185603985994	-0.19775390625	0.36279296875	0.81298828125	-19.5	9.0	-22.8125
19	01	14	15	41	10	-0.181632613151	0.0704924960314	-0.182853262433	-0.25	0.35546875	0.8466796875	-22.5	17.0	-22.875
19	01	14	15	41	10	-0.184620688284	0.0770219202031	-0.179188872992	-0.31298828125	0.2451171875	0.85400390625	-22.4375	21.875	-21.9375
19	01	14	15	41	10	-0.187551865487	0.083980269089	-0.175894720577	-0.30615234375	0.1923828125	0.8740234375	-17.125	26.3125	-21.875
19	01	14	15	41	10	-0.190418913603	0.0909372375862	-0.174733765912	-0.265625	0.22998046875	0.93115234375	-7.0	33.125	-22.8125
19	01	14	15	41	10	-0.193529691523	0.0984432016482	-0.176685101532	-0.28759765625	0.27197265625	0.9482421875	8.375	39.9375	-24.3125
19	01	14	15	41	10	-0.196530092322	0.106931901164	-0.179745690028	-0.3076171875	0.2841796875	0.93017578125	12.8125	46.375	-24.75
19	01	14	15	41	10	-0.199339395645	0.116210106953	-0.181883465714	-0.31005859375	0.30029296875	0.91845703125	5.375	50.9375	-25.875
19	01	14	15	41	10	-0.202021427634	0.126278650687	-0.182551688837	-0.3427734375	0.31494140625	0.92431640625	-4.625	53.125	-26.625
19	01	14	15	41	10	-0.204464799438	0.136045384462	-0.182004188634	-0.376953125	0.3193359375	0.896484375	-12.625	48.75	-26.0
19	01	14	15	41	10	-0.206410621048	0.144890246709	-0.180166810566	-0.38916015625	0.30126953125	0.89208984375	-18.625	42.5	-22.625
19	01	14	15	41	10	-0.207940083812	0.15288814498	-0.177484521199	-0.39697265625	0.2802734375	0.884765625	-22.25	37.5625	-19.375
19	01	14	15	41	10	-0.208857406892	0.160213528081	-0.176753667551	-0.412109375	0.27099609375	0.8388671875	-11.9375	36.0	-14.25
19	01	14	15	41	10	-0.208790686583	0.166129274738	-0.177725366656	-0.4951171875	0.35302734375	0.89111328125	-5.6875	28.0625	-6.5
19	01	14	15	41	10	-0.208608110629	0.169547493074	-0.178275099809	-0.6015625	0.333984375	0.8994140625	-4.625	7.625	-0.8125
19	01	14	15	41	10	-0.208066568075	0.170286220278	-0.177366220835	-0.419921875	0.25048828125	0.9609375	-4.125	4.375	2.0625
19	01	14	15	41	10	-0.207817880794	0.17058765839	-0.179742631113	-0.4482421875	0.2646484375	0.93505859375	14.3125	3.5	4.0625
19	01	14	15	41	10	-0.207272528283	0.171689523575	-0.182736734299	-0.4541015625	0.27490234375	0.81884765625	13.625	5.9375	4.875
19	01	14	15	41	10	-0.205006614313	0.175650204225	-0.182974048738	-0.47509765625	0.31982421875	0.78466796875	-9.8125	17.5625	8.0
19	01	14	15	41	10	-0.201038513435	0.180531852684	-0.180104630585	-0.47216796875	0.3017578125	0.7822265625	-29.5625	20.625	14.125
19	01	14	15	41	10	-0.197565244887	0.18615199163	-0.176447674689	-0.4599609375	0.22021484375	0.791015625	-29.1875	25.0625	11.5
19	01	14	15	41	10	-0.194021040869	0.192434206311	-0.174063544687	-0.45947265625	0.22998046875	0.80712890625	-23.0625	31.4375	11.25
19	01	14	15	41	10	-0.190847711558	0.198537769651	-0.173026307089	-0.4443359375	0.2705078125	0.79833984375	-18.0625	33.6875	8.8125
19	01	14	15	41	10	-0.187682895018	0.205138930132	-0.171874807275	-0.431640625	0.24853515625	0.78857421875	-17.6875	37.375	8.4375
19	01	14	15	41	10	-0.184382822731	0.212397293315	-0.171443677276	-0.41015625	0.23828125	0.77587890625	-14.125	43.8125	8.6875
19	01	14	15	41	10	-0.181447895328	0.220325227761	-0.172110011714	-0.421875	0.2783203125	0.75390625	-10.625	48.5625	5.3125
19	01	14	15	41	10	-0.178522292938	0.228630601485	-0.172907232784	-0.466796875	0.31005859375	0.76171875	-11.8125	49.25	4.25
19	01	14	15	41	10	-0.176023486043	0.236935912905	-0.172483485283	-0.4814453125	0.3056640625	0.7939453125	-17.125	49.125	0.3125
19	01	14	15	41	10	-0.173765101595	0.245236451777	-0.171811998943	-0.49560546875	0.30810546875	0.82958984375	-17.375	50.125	-1.6875
19	01	14	15	41	10	-0.171381261409	0.253531965775	-0.171259194984	-0.58837890625	0.2880859375	0.85302734375	-15.625	47.25	0.875
19	01	14	15	41	10	-0.16955009671	0.259329863542	-0.169061831493	-0.6533203125	0.279296875	0.9443359375	-19.875	30.6875	0.125
19	01	14	15	41	10	-0.168087985635	0.260188483211	-0.165707654684	-0.6328125	0.25	1.0068359375	-20.1875	4.375	2.8125
19	01	14	15	41	10	-0.167657989677	0.258109078393	-0.164301167896	-0.52685546875	0.158203125	0.9658203125	-1.25	-6.875	5.1875
19	01	14	15	41	10	-0.1672267431	0.257065343773	-0.165456825016	-0.55078125	0.23828125	0.82080078125	5.9375	-5.0	4.875
19	01	14	15	41	10	-0.165466452217	0.25781272378	-0.164367818451	-0.5791015625	0.27734375	0.7373046875	-13.75	-0.9375	6.0625
19	01	14	15	41	10	-0.163384657402	0.259328131977	-0.160760249383	-0.57421875	0.2021484375	0.7216796875	-25.25	0.375	5.9375
19	01	14	15	41	10	-0.161738748226	0.261406437227	-0.158259839302	-0.56201171875	0.166015625	0.7197265625	-16.875	5.4375	5.5625
19	01	14	15	41	10	-0.16058148671	0.263485472492	-0.158079076617	-0.5771484375	0.203125	0.73291015625	-4.6875	7.875	4.3125
19	01	14	15	41	10	-0.16009302878	0.2649499954	-0.160459234717	-0.55615234375	0.234375	0.7216796875	8.875	7.875	3.8125
19	01	14	15	41	10	-0.15948271793	0.266842113583	-0.162900640703	-0.57861328125	0.22998046875	0.7138671875	9.125	9.0	4.0625
19	01	14	15	41	11	-0.158928901774	0.268543459219	-0.164299770958	-0.55859375	0.20556640625	0.7314453125	5.5	9.125	3.75
19	01	14	15	41	11	-0.158139194373	0.269953553343	-0.165402244983	-0.54736328125	0.21484375	0.74462890625	3.4375	8.4375	4.1875
19	01	14	15	41	11	-0.156974326167	0.271348310319	-0.16612912746	-0.5595703125	0.248046875	0.7822265625	-0.5	8.875	4.9375
19	01	14	15	41	11	-0.15563970033	0.272461028342	-0.166320856235	-0.5703125	0.26220703125	0.81787109375	-3.625	8.25	5.0
19	01	14	15	41	11	-0.154113412431	0.273497901427	-0.165710065247	-0.5830078125	0.2958984375	0.8486328125	-9.6875	7.3125	3.5625
19	01	14	15	41	11	-0.152706781801	0.274774553025	-0.164303220067	-0.60791015625	0.30224609375	0.84521484375	-14.6875	6.3125	1.9375
19	01	14	15	41	11	-0.151116709839	0.276355598607	-0.162529805453	-0.63720703125	0.2900390625	0.8349609375	-16.9375	5.8125	2.4375
19	01	14	15	41	11	-0.149160254446	0.278180212671	-0.160634120173	-0.63330078125	0.26611328125	0.8017578125	-17.5625	6.25	4.8125
19	01	14	15	41	11	-0.146972260671	0.279845438197	-0.159057189082	-0.603515625	0.244140625	0.76123046875	-15.5625	6.25	7.0
19	01	14	15	41	11	-0.144708948299	0.281483622757	-0.157708950825	-0.58544921875	0.24267578125	0.734375	-14.75	6.5	7.8125
19	01	14	15	41	11	-0.14232975196	0.283011603704	-0.156367420463	-0.568359375	0.23583984375	0.7138671875	-14.9375	6.4375	8.0
19	01	14	15	41	11	-0.140194565251	0.284722528034	-0.155514041036	-0.56640625	0.23193359375	0.70654296875	-12.125	7.625	7.5625
19	01	14	15	41	11	-0.138177601656	0.28630350237	-0.155266704334	-0.5732421875	0.2275390625	0.6982421875	-7.75	7.0625	8.0
19	01	14	15	41	11	-0.13635112088	0.287472595948	-0.155638029653	-0.58544921875	0.2392578125	0.69970703125	-4.9375	4.5	8.4375
19	01	14	15	41	11	-0.13469885473	0.288317802332	-0.156060249907	-0.61279296875	0.23828125	0.7158203125	-3.1875	1.875	7.875
19	01	14	15	41	11	-0.133233985999	0.288866905971	-0.156670472771	-0.63427734375	0.24462890625	0.73388671875	-1.875	-0.25	7.9375
19	01	14	15	41	11	-0.131892081494	0.289295912208	-0.157342797821	-0.66064453125	0.24462890625	0.74267578125	-1.0	-1.8125	7.9375
19	01	14	15	41	11	-0.130674970019	0.289792040005	-0.158018448099	-0.67822265625	0.24560546875	0.74365234375	-1.0	-2.3125	7.5
19	01	14	15	41	11	-0.129204075712	0.29026669064	-0.158255157449	-0.68994140625	0.2490234375	0.75927734375	-3.25	-2.8125	8.625
19	01	14	15	41	11	-0.127502115569	0.290587636296	-0.158385825707	-0.6748046875	0.2607421875	0.74658203125	-5.3125	-3.3125	8.8125
19	01	14	15	41	11	-0.125669021161	0.291010147108	-0.158444283115	-0.66796875	0.2890625	0.7587890625	-7.0625	-1.75	8.1875
19	01	14	15	41	11	-0.12334520516	0.291853919383	-0.158560535876	-0.6708984375	0.34033203125	0.7529296875	-11.0	0.8125	8.375
19	01	14	15	41	11	-0.120117093979	0.29339576766	-0.157165404977	-0.68115234375	0.36328125	0.7333984375	-22.1875	2.75	9.25
19	01	14	15	41	11	-0.116146301864	0.29540099896	-0.153986925698	-0.69873046875	0.35009765625	0.720703125	-33.6875	3.0625	10.75
19	01	14	15	41	11	-0.111688977243	0.297287982595	-0.149223797464	-0.73095703125	0.2744140625	0.70703125	-39.375	-1.0	14.3125
19	01	14	15	41	11	-0.106932949211	0.297605628057	-0.143675891806	-0.6748046875	0.21142578125	0.74072265625	-40.125	-6.5625	17.5
19	01	14	15	41	11	-0.102722204514	0.295776472415	-0.138427783623	-0.64111328125	0.24462890625	0.79541015625	-38.25	-15.3125	15.4375
19	01	14	15	41	11	-0.0988763112895	0.291135805463	-0.134032333081	-0.62451171875	0.30517578125	0.87158203125	-34.75	-28.4375	14.1875
19	01	14	15	41	11	-0.0960073605101	0.284237938904	-0.131590508112	-0.59814453125	0.32080078125	0.86669921875	-22.3125	-40.5625	13.8125
19	01	14	15	41	11	-0.0929514021991	0.275253331529	-0.130363883846	-0.50244140625	0.345703125	0.9677734375	-15.75	-43.8125	16.4375
19	01	14	15	41	11	-0.0889866724723	0.263420081201	-0.128475271299	-0.572265625	0.38525390625	0.8876953125	-23.3125	-69.375	22.9375
19	01	14	15	41	11	-0.0864239889482	0.255548899524	-0.129758051203	-0.54736328125	0.09716796875	0.83154296875	11.8125	-45.75	27.125
19	01	14	15	41	11	-0.0825800066672	0.248838645367	-0.129027445746	-0.48974609375	0.17138671875	0.76171875	-7.4375	-39.9375	26.9375
19	01	14	15	41	11	-0.0815398733455	0.240957649677	-0.128107929755	-0.5654296875	0.3447265625	0.8779296875	-12.3125	-50.25	8.0
19	01	14	15	41	11	-0.0822701242396	0.230698122868	-0.123771373856	-0.37890625	0.17822265625	1.0234375	-16.625	-52.625	-1.75
19	01	14	15	41	11	-0.0822111468413	0.219595921555	-0.116023303746	-0.27734375	0.2705078125	1.099609375	-42.0625	-52.25	-5.25
19	01	14	15	41	11	-0.0831905710263	0.204039676406	-0.110229032482	-0.17529296875	0.31982421875	1.23046875	-30.875	-69.3125	-8.0625
19	01	14	15	41	11	-0.0873975651611	0.186696335075	-0.104669570008	-0.0634765625	0.125	1.24169921875	-13.0	-76.8125	-19.5625
19	01	14	15	41	11	-0.0960647565746	0.175650806494	-0.101313529806	-0.419921875	-0.0302734375	0.87353515625	7.0625	-75.1875	-39.0
19	01	14	15	41	11	-0.107481294358	0.182797544919	-0.110471972055	-1.17041015625	-0.23095703125	0.43994140625	80.25	-21.125	-41.0
19	01	14	15	41	11	-0.114988438039	0.185727079062	-0.129575612504	-1.65576171875	-0.24169921875	-0.1279296875	114.625	27.0	-25.9375
19	01	14	15	41	11	-0.114742178821	0.207634517207	-0.141535698237	-1.2373046875	0.40869140625	0.05615234375	32.3125	62.3125	0.6875
19	01	14	15	41	11	-0.105584655973	0.220995398427	-0.134635694264	-0.853515625	0.78759765625	0.4248046875	-98.6875	38.6875	19.5625
19	01	14	15	41	11	-0.0942969356127	0.22515300678	-0.106869860361	-0.49169921875	0.44482421875	0.93505859375	-176.5625	10.125	23.6875
19	01	14	15	41	11	-0.0863022899144	0.222408447276	-0.0793443966681	0.40771484375	0.6162109375	1.6904296875	-169.625	-11.4375	6.5
19	01	14	15	41	11	-0.0858145184331	0.201047669786	-0.0606683010829	0.541015625	0.01953125	1.38037109375	-89.3125	-61.25	-13.5
19	01	14	15	41	11	-0.0889282665513	0.193420505629	-0.0631103827139	-0.19384765625	-0.53857421875	1.01318359375	61.5	-28.75	5.125
19	01	14	15	41	11	-0.0869716212643	0.193534744582	-0.0820890039302	-1.51416015625	-0.2802734375	0.40087890625	109.75	-8.875	35.8125
19	01	14	15	41	11	-0.0913054580593	0.190606247005	-0.108760913277	-0.5693359375	0.33203125	0.5419921875	152.75	-7.4375	4.8125
19	01	14	15	41	11	-0.091979604239	0.189391315165	-0.124206034921	-0.06396484375	0.8681640625	0.66259765625	43.1875	17.0	-9.3125
19	01	14	15	41	12	-0.0894142657085	0.190058719055	-0.116391129492	-0.58349609375	0.33935546875	0.5107421875	-62.125	-22.875	4.4375
19	01	14	15	41	12	-0.0856902443131	0.195671597769	-0.101375709262	-0.91259765625	-0.19384765625	0.48046875	-73.125	-18.875	17.625
19	01	14	15	41	12	-0.0869715867617	0.203971258216	-0.094234477165	-0.88818359375	-0.31103515625	0.45556640625	-17.75	0.625	-2.375
19	01	14	15	41	12	-0.0911247204123	0.21014227219	-0.0958854224834	-0.837890625	-0.44140625	0.5087890625	44.9375	-2.5	-4.1875
19	01	14	15	41	12	-0.0969803735774	0.206106180976	-0.111017809652	-0.70458984375	-0.4208984375	0.6240234375	102.1875	-22.625	-7.5
19	01	14	15	41	12	-0.103754445377	0.202565296591	-0.134026330616	-0.67626953125	-0.05615234375	0.76171875	142.875	-12.375	-7.125
19	01	14	15	41	12	-0.110589266376	0.19896302891	-0.157766696237	-0.73193359375	0.3701171875	0.802734375	142.0625	-12.375	-9.0625
19	01	14	15	41	12	-0.116634191076	0.194085153125	-0.177423125829	-0.72021484375	0.67041015625	0.7763671875	115.125	-21.1875	-9.625
19	01	14	15	41	12	-0.119689318294	0.189146964505	-0.192137671591	-0.60791015625	0.6474609375	0.77880859375	68.125	-32.3125	-2.1875
19	01	14	15	41	12	-0.120601437694	0.181512487704	-0.198357627786	-0.5615234375	0.57666015625	0.95361328125	28.125	-46.0625	7.4375
19	01	14	15	41	12	-0.120842343579	0.169179281011	-0.205859204491	-0.45947265625	0.63037109375	0.99072265625	35.4375	-65.0	15.3125
19	01	14	15	41	12	-0.11870780462	0.153984468409	-0.210683466091	-0.38671875	0.61474609375	1.07861328125	23.125	-76.5625	30.4375
19	01	14	15	41	12	-0.113889312221	0.135251187503	-0.213008413531	-0.248046875	0.591796875	1.15380859375	12.0	-88.0625	46.75
19	01	14	15	41	12	-0.106197803244	0.113826955776	-0.215752433602	-0.09619140625	0.45166015625	1.1416015625	22.875	-93.4375	67.0
19	01	14	15	41	12	-0.0970415579083	0.0922199962261	-0.220021897019	0.03271484375	0.41455078125	1.1962890625	29.8125	-101.9375	79.625
19	01	14	15	41	12	-0.0877664509175	0.0690291070846	-0.224237789062	0.1552734375	0.4609375	1.16015625	30.625	-109.5625	81.4375
19	01	14	15	41	12	-0.0783048152156	0.0443096616107	-0.225881622068	0.236328125	0.6015625	1.15576171875	14.4375	-118.9375	82.5
19	01	14	15	41	12	-0.0664638726114	0.0180654786896	-0.221485210015	0.25732421875	0.6650390625	1.111328125	-21.25	-127.8125	97.3125
19	01	14	15	41	12	-0.0513296813615	-0.010009593036	-0.21056765838	0.29833984375	0.65966796875	1.08203125	-59.0625	-137.25	118.0
19	01	14	15	41	12	-0.0347279563992	-0.0401599214599	-0.195123508978	0.40869140625	0.57763671875	1.08984375	-82.4375	-148.0	128.6875
19	01	14	15	41	12	-0.0175161178024	-0.0714071701352	-0.179067211262	0.51904296875	0.52294921875	1.08447265625	-83.8125	-153.375	133.625
19	01	14	15	41	12	0.000366200118858	-0.102780166693	-0.162043552595	0.55712890625	0.51611328125	1.0341796875	-88.5	-154.4375	138.375
19	01	14	15	41	12	0.0198965329352	-0.132440111869	-0.144341412244	0.51953125	0.47900390625	0.953125	-90.3125	-145.5625	147.5
19	01	14	15	41	12	0.0408307900404	-0.159539140756	-0.123407858687	0.478515625	0.3779296875	0.9130859375	-105.875	-131.3125	156.3125
19	01	14	15	41	12	0.0616420530576	-0.18425481008	-0.101739903413	0.47998046875	0.3251953125	0.8515625	-108.875	-119.875	155.0
19	01	14	15	41	12	0.0816606917162	-0.206715069389	-0.0808672769238	0.52294921875	0.2568359375	0.83056640625	-103.6875	-108.4375	149.4375
19	01	14	15	41	12	0.100766646915	-0.22558057359	-0.059996131991	0.564453125	0.1708984375	0.81884765625	-102.125	-89.625	142.4375
19	01	14	15	41	12	0.118586331734	-0.240285325804	-0.0413190666927	0.59130859375	0.0908203125	0.7685546875	-88.5625	-68.0625	131.0
19	01	14	15	41	12	0.135001161718	-0.250106130524	-0.0272199449033	0.57373046875	0.0732421875	0.77392578125	-62.25	-44.0625	115.875
19	01	14	15	41	12	0.15080921079	-0.255173334809	-0.0175160839728	0.45458984375	0.0830078125	0.73095703125	-35.8125	-22.4375	105.1875
19	01	14	15	41	12	0.165336698888	-0.256030805403	-0.0119623451392	0.35009765625	0.11865234375	0.68603515625	-20.125	-4.625	95.5
19	01	14	15	41	12	0.178699824171	-0.254561805539	-0.00646932423571	0.2568359375	0.0517578125	0.6552734375	-15.5	4.625	85.875
19	01	14	15	41	12	0.189571329215	-0.252314190269	-0.000122067823062	0.17822265625	0.04443359375	0.669921875	-23.25	5.0625	72.75
19	01	14	15	41	12	0.198782468998	-0.250843091059	0.0100703430717	0.14013671875	0.015625	0.69091796875	-47.1875	2.625	68.25
19	01	14	15	41	12	0.207332607971	-0.250849873053	0.0249018852082	0.12548828125	-0.12060546875	0.6806640625	-67.9375	-1.0	67.625
19	01	14	15	41	12	0.215996712116	-0.251640136777	0.040587118835	0.1171875	-0.26416015625	0.70849609375	-66.875	-6.25	65.8125
19	01	14	15	41	12	0.225327429151	-0.252730466986	0.0527310126723	0.111328125	-0.3388671875	0.6962890625	-44.0625	-12.5625	62.75
19	01	14	15	41	12	0.235770387917	-0.254019247867	0.0606057455867	0.16015625	-0.33740234375	0.6875	-20.5	-16.75	63.75
19	01	14	15	41	12	0.246276838037	-0.25555418113	0.065307612565	0.21923828125	-0.29345703125	0.671875	-7.5	-18.1875	61.875
19	01	14	15	41	12	0.255846335946	-0.257860393457	0.0695765321989	0.2568359375	-0.28857421875	0.6591796875	-8.0	-20.0	57.4375
19	01	14	15	41	12	0.264881020473	-0.260547713456	0.0735441543017	0.30029296875	-0.30224609375	0.65625	-7.625	-19.6875	54.5
19	01	14	15	41	12	0.273244815089	-0.262869202276	0.0788546573811	0.3349609375	-0.33251953125	0.7041015625	-15.1875	-15.0	53.0
19	01	14	15	41	12	0.281119813071	-0.264335629703	0.0844702173882	0.3232421875	-0.40185546875	0.72314453125	-13.1875	-10.25	49.125
19	01	14	15	41	12	0.287527684844	-0.264823312362	0.0891085586654	0.25146484375	-0.39501953125	0.7490234375	-9.9375	-10.25	38.1875
19	01	14	15	41	12	0.292890360841	-0.265914420126	0.093012067081	0.23779296875	-0.40673828125	0.74755859375	-8.3125	-14.0625	30.6875
19	01	14	15	41	12	0.296192997613	-0.26720233743	0.0965541566503	0.2294921875	-0.47216796875	0.74755859375	-6.3125	-14.5625	16.3125
19	01	14	15	41	12	0.296632046191	-0.268433691183	0.0977787115222	0.23486328125	-0.43701171875	0.84423828125	-2.8125	-17.25	-3.25
19	01	14	15	41	12	0.297363349378	-0.271362366858	0.0971679910117	0.1669921875	-0.37890625	0.8896484375	0.125	-35.75	-4.5
19	01	14	15	41	12	0.302428371708	-0.274047101709	0.092773183652	0.294921875	-0.4267578125	0.9091796875	28.4375	-38.5625	15.125
19	01	14	15	41	12	0.308635401446	-0.277631489258	0.0838570380832	0.48046875	-0.33203125	0.87841796875	48.25	-40.6875	20.75
19	01	14	15	41	13	0.313290168753	-0.280514633857	0.0744010745588	0.53515625	-0.1640625	0.81591796875	42.375	-31.9375	17.125
19	01	14	15	41	13	0.31615090089	-0.283498249929	0.0688452154834	0.54833984375	-0.208984375	0.857421875	21.0625	-25.375	12.1875
19	01	14	15	41	13	0.317501986772	-0.28631330641	0.0657952982968	0.5478515625	-0.2861328125	0.88330078125	10.3125	-19.75	4.8125
19	01	14	15	41	13	0.318345166119	-0.287767917609	0.0632906321444	0.48193359375	-0.26904296875	0.88427734375	8.3125	-15.125	1.9375
19	01	14	15	41	13	0.320248595646	-0.288144391089	0.0592035711409	0.435546875	-0.267578125	0.904296875	20.5	-16.3125	3.5
19	01	14	15	41	13	0.322327581143	-0.289185396602	0.0545655855978	0.47900390625	-0.220703125	0.89013671875	20.25	-18.5625	6.1875
19	01	14	15	41	13	0.323896871549	-0.290024106576	0.0494359272573	0.50390625	-0.1943359375	0.900390625	20.875	-16.9375	3.4375
19	01	14	15	41	13	0.325547205933	-0.290270437086	0.044553704599	0.5322265625	-0.2314453125	0.87646484375	24.25	-10.875	3.3125
19	01	14	15	41	13	0.327253510752	-0.289047487304	0.0412576227655	0.50341796875	-0.2314453125	0.88671875	19.0	-1.75	5.0625
19	01	14	15	41	13	0.328961355022	-0.287215609783	0.0405251094127	0.44384765625	-0.2626953125	0.88232421875	9.0625	3.3125	7.125
19	01	14	15	41	13	0.329887635605	-0.285149867446	0.0401602338997	0.37158203125	-0.28173828125	0.8681640625	7.9375	2.25	1.1875
19	01	14	15	41	13	0.332086369929	-0.283198080586	0.039855247117	0.38330078125	-0.2666015625	0.837890625	9.25	3.0	9.1875
19	01	14	15	41	13	0.334647429778	-0.281181964069	0.0397328974623	0.4248046875	-0.17138671875	0.78564453125	4.0625	7.6875	16.25
19	01	14	15	41	13	0.336664137685	-0.279536212944	0.0396721699593	0.43896484375	-0.16552734375	0.77685546875	2.4375	7.375	13.8125
19	01	14	15	41	13	0.337450439187	-0.278004476487	0.0400375272394	0.375	-0.1357421875	0.7861328125	-4.0	4.75	6.6875
19	01	14	15	41	13	0.338122672373	-0.27654040226	0.040342795386	0.31640625	-0.1513671875	0.8115234375	-3.6875	0.375	4.8125
19	01	14	15	41	13	0.339291008918	-0.275448879879	0.0388179675611	0.36962890625	-0.18115234375	0.83935546875	7.5	-3.3125	4.6875
19	01	14	15	41	13	0.340930608874	-0.273367024194	0.0352771020281	0.4111328125	-0.12890625	0.8603515625	17.5	-0.1875	5.875
19	01	14	15	41	13	0.342529004667	-0.271301038087	0.0316772190702	0.4306640625	-0.11572265625	0.8828125	16.875	0.375	6.375
19	01	14	15	41	13	0.343366955332	-0.269518036749	0.0285020206435	0.37646484375	-0.1552734375	0.88916015625	15.625	-3.375	0.25
19	01	14	15	41	13	0.344969441791	-0.267394041841	0.0258177766945	0.29052734375	-0.2060546875	0.86962890625	18.75	-5.3125	2.25
19	01	14	15	41	13	0.347281895154	-0.265557737401	0.0227045456937	0.302734375	-0.2138671875	0.8564453125	22.4375	-6.9375	5.5625
19	01	14	15	41	13	0.349842920881	-0.263724923434	0.0192254919884	0.3720703125	-0.1591796875	0.8583984375	21.75	-3.5625	9.5
19	01	14	15	41	13	0.352221648715	-0.262197921136	0.0166620187314	0.41943359375	-0.11474609375	0.87451171875	13.375	-1.125	12.0
19	01	14	15	41	13	0.35320482097	-0.261958716365	0.0150754433695	0.392578125	-0.11962890625	0.8984375	4.0	-7.6875	5.3125
19	01	14	15	41	13	0.354675341856	-0.26153568058	0.0122070329326	0.36279296875	-0.12353515625	0.90771484375	12.0	-11.875	5.4375
19	01	14	15	41	13	0.357110325618	-0.261347874602	0.00872787157126	0.39111328125	-0.078125	0.87451171875	14.0	-12.1875	11.9375
19	01	14	15	41	13	0.359002435187	-0.260737572785	0.00494376015813	0.369140625	-0.06103515625	0.87890625	15.1875	-11.875	8.3125
19	01	14	15	41	13	0.360339833729	-0.259818203283	0.00152582924174	0.33203125	-0.072265625	0.8916015625	13.875	-11.8125	4.5
19	01	14	15	41	13	0.362283951966	-0.259506631361	-0.00115960159827	0.384765625	-0.07421875	0.91015625	9.875	-11.4375	9.8125
19	01	14	15	41	13	0.364545820356	-0.259448230761	-0.00311264638175	0.41650390625	-0.134765625	0.90966796875	9.75	-9.5625	11.5625
19	01	14	15	41	13	0.366742371182	-0.257983025959	-0.00610321802599	0.3583984375	-0.1123046875	0.9150390625	17.25	-7.5	8.625
19	01	14	15	41	13	0.370046771555	-0.257561830111	-0.00848367165531	0.42333984375	-0.04736328125	0.89208984375	9.75	-8.125	19.75
19	01	14	15	41	13	0.37292186923	-0.257749435967	-0.00988761748205	0.423828125	-0.08984375	0.869140625	5.625	-8.375	17.375
19	01	14	15	41	13	0.373837794624	-0.257627645895	-0.0112914272662	0.30615234375	-0.07177734375	0.8857421875	2.4375	-13.3125	4.875
19	01	14	15	41	13	0.374744724084	-0.258781372983	-0.0139156021321	0.36279296875	-0.0576171875	0.92431640625	4.9375	-21.0	4.75
19	01	14	15	41	13	0.37517506775	-0.259821093771	-0.0172115453238	0.42626953125	-0.10302734375	0.9453125	10.1875	-19.0625	0.0
19	01	14	15	41	13	0.375773163049	-0.259568501291	-0.021544246639	0.4296875	-0.07470703125	0.98193359375	17.375	-15.25	-0.6875
19	01	14	15	41	13	0.376635956598	-0.259330121469	-0.0257560158296	0.4443359375	-0.078125	0.99267578125	17.6875	-14.8125	1.0625
19	01	14	15	41	13	0.377744365686	-0.258726509314	-0.029296703107	0.44970703125	-0.12744140625	1.0107421875	18.4375	-12.125	1.375
19	01	14	15	41	13	0.379128538455	-0.257736609449	-0.03246883169	0.4482421875	-0.150390625	1.005859375	19.8125	-8.9375	2.125
19	01	14	15	41	13	0.380597718111	-0.255603470726	-0.0350935997296	0.41357421875	-0.13525390625	0.97265625	19.1875	-2.6875	2.625
19	01	14	15	41	13	0.381882019776	-0.253041849767	-0.03643656158	0.35888671875	-0.12109375	0.94189453125	13.0625	0.9375	3.0625
19	01	14	15	41	13	0.382677686591	-0.251944735287	-0.0370471061819	0.40625	-0.1103515625	0.9736328125	4.8125	-3.5	2.8125
19	01	14	15	41	13	0.383168704178	-0.25133620959	-0.0374135736956	0.40771484375	-0.119140625	0.9501953125	2.625	-4.25	1.6875
19	01	14	15	41	13	0.383769333092	-0.249926116255	-0.0383281076943	0.359375	-0.095703125	0.880859375	6.8125	-2.125	1.125
19	01	14	15	41	13	0.383779344309	-0.249688501522	-0.0405873511395	0.43408203125	-0.0908203125	0.9091796875	9.75	-7.4375	-2.4375
19	01	14	15	41	13	0.382310069426	-0.249075254363	-0.0436385216538	0.4208984375	-0.08544921875	0.88720703125	12.8125	-6.875	-13.0625
19	01	14	15	41	13	0.380492561649	-0.247863377102	-0.0469969959046	0.390625	0.00146484375	0.90771484375	10.0	-6.625	-13.5
19	01	14	15	41	13	0.378218971076	-0.248158518057	-0.0504739533775	0.43212890625	-0.025390625	0.92529296875	8.875	-13.5	-15.625
19	01	14	15	41	14	0.375607962353	-0.246275288933	-0.0547481869078	0.330078125	-0.1083984375	0.89111328125	23.125	-8.25	-24.8125
19	01	14	15	41	14	0.374080707278	-0.244077133041	-0.059020402013	0.31103515625	-0.0859375	0.89453125	24.25	-8.3125	-17.9375
19	01	14	15	41	14	0.372553068687	-0.243587696122	-0.063231484135	0.45751953125	-0.0185546875	0.88037109375	16.9375	-7.9375	-13.4375
19	01	14	15	41	14	0.371148149952	-0.243403851671	-0.0653064496709	0.49365234375	-0.01513671875	0.935546875	5.5625	-4.75	-9.3125
19	01	14	15	41	14	0.369986416039	-0.243341445191	-0.0663436546081	0.49755859375	0.025390625	0.92578125	-2.0625	-2.9375	-5.25
19	01	14	15	41	14	0.371331858712	-0.242061497641	-0.0667103421387	0.51220703125	0.02978515625	0.857421875	1.0	8.3125	9.5625
19	01	14	15	41	14	0.372676005563	-0.239071718603	-0.0658561103836	0.40625	0.021484375	0.83349609375	-1.0	15.125	8.5
19	01	14	15	41	14	0.373648302888	-0.237970390879	-0.0627426421707	0.4169921875	0.0517578125	0.8876953125	-19.5625	9.125	12.25
19	01	14	15	41	14	0.373829008797	-0.238579199247	-0.0565168427993	0.4033203125	-0.041015625	0.89697265625	-35.5625	5.8125	10.4375
19	01	14	15	41	14	0.375481497939	-0.23833797943	-0.0509634347821	0.40087890625	-0.15771484375	0.94580078125	-21.75	7.375	13.6875
19	01	14	15	41	14	0.378224154368	-0.236809701299	-0.0474840071161	0.42041015625	-0.119140625	0.873046875	-9.125	13.1875	18.8125
19	01	14	15	41	14	0.380479156203	-0.233939141117	-0.0449202212007	0.33642578125	-0.03515625	0.87548828125	-7.625	14.0625	15.5
19	01	14	15	41	14	0.381880443644	-0.23241181547	-0.0408917847597	0.345703125	-0.06396484375	0.93310546875	-18.0625	9.125	12.75
19	01	14	15	41	14	0.38396024679	-0.231804326388	-0.0363758237302	0.41015625	-0.0732421875	0.9091796875	-21.8125	10.0	18.5
19	01	14	15	41	14	0.385493694153	-0.230893389009	-0.0328365432955	0.38623046875	-0.11962890625	0.89453125	-14.1875	9.125	12.6875
19	01	14	15	41	14	0.387810415056	-0.228023246876	-0.0324090856775	0.3857421875	-0.0810546875	0.904296875	4.9375	12.375	13.0625
19	01	14	15	41	14	0.39117938915	-0.223940892306	-0.0313724771451	0.33740234375	-0.0498046875	0.77978515625	4.8125	21.375	20.1875
19	01	14	15	41	14	0.393055291323	-0.219781382617	-0.0296622471402	0.2685546875	-0.119140625	0.89111328125	2.8125	16.875	9.3125
19	01	14	15	41	14	0.395740284629	-0.216851516238	-0.0283805108501	0.3603515625	-0.1806640625	0.89453125	7.375	15.0	13.5
19	01	14	15	41	14	0.398606242058	-0.213737415356	-0.0274037976855	0.30615234375	-0.09716796875	0.82666015625	4.9375	14.125	16.4375
19	01	14	15	41	14	0.401117961869	-0.210507585284	-0.0289302973107	0.2626953125	-0.1435546875	0.91845703125	19.875	3.9375	9.25
19	01	14	15	41	14	0.403602263835	-0.209521634923	-0.0308820120219	0.357421875	-0.08837890625	0.8916015625	13.6875	-2.1875	12.8125
19	01	14	15	41	14	0.405381601704	-0.209099272424	-0.0309437627317	0.3232421875	-0.0185546875	0.89013671875	-2.3125	-3.0	12.875
19	01	14	15	41	14	0.406417049588	-0.209952643127	-0.0310046345083	0.322265625	-0.13916015625	0.95263671875	0.8125	-11.0	5.375
19	01	14	15	41	14	0.407880671647	-0.210684434913	-0.0313707414674	0.36279296875	-0.115234375	0.94677734375	1.625	-8.875	8.9375
19	01	14	15	41	14	0.409669657426	-0.210755263273	-0.0305787393281	0.33447265625	-0.11962890625	0.95166015625	-2.25	-4.5	11.4375
19	01	14	15	41	14	0.411248498935	-0.21111732826	-0.0285640097212	0.36376953125	-0.17578125	1.02685546875	-6.8125	-3.0	10.375
19	01	14	15	41	14	0.413811594258	-0.211483359012	-0.0245357316949	0.43359375	-0.1171875	1.0224609375	-20.125	5.75	21.4375
19	01	14	15	41	14	0.416058923793	-0.211050573342	-0.0191031895478	0.34130859375	-0.1572265625	0.97509765625	-23.25	9.625	19.125
19	01	14	15	41	14	0.419854610158	-0.209713685202	-0.0138547748955	0.40576171875	-0.2197265625	1.005859375	-15.3125	17.0625	27.0
19	01	14	15	41	14	0.425166834247	-0.205930648686	-0.00817863275755	0.47412109375	-0.0625	0.9169921875	-19.8125	37.875	40.9375
19	01	14	15	41	14	0.429495407453	-0.200740428466	-0.00109860982438	0.3095703125	-0.08642578125	0.9091796875	-23.1875	39.9375	33.6875
19	01	14	15	41	14	0.434756513834	-0.196656673814	0.00634770145146	0.30517578125	-0.0927734375	0.97314453125	-28.125	33.4375	41.0625
19	01	14	15	41	14	0.441651375326	-0.19354291199	0.0159302112991	0.2490234375	-0.09228515625	0.8408203125	-38.375	33.125	53.9375
19	01	14	15	41	14	0.448171083296	-0.190242307862	0.0236811085822	0.19775390625	-0.240234375	0.841796875	-20.5	27.0	46.4375
19	01	14	15	41	14	0.45414739681	-0.187676823705	0.0289296957516	0.30029296875	-0.181640625	0.7744140625	-13.75	25.8125	43.625
19	01	14	15	41	14	0.459705410363	-0.184321606386	0.0336295381187	0.26171875	-0.169921875	0.82861328125	-11.625	25.625	40.4375
19	01	14	15	41	14	0.46434566768	-0.182369197559	0.0383292690987	0.23388671875	-0.17919921875	0.91357421875	-17.125	16.125	34.5625
19	01	14	15	41	14	0.470378665585	-0.180961819574	0.0430890538345	0.27392578125	-0.15625	0.8876953125	-19.3125	15.875	45.3125
19	01	14	15	41	14	0.477288496977	-0.179013703534	0.0465691973393	0.2998046875	-0.21240234375	0.8759765625	-7.25	16.9375	49.5
19	01	14	15	41	14	0.483682815772	-0.175529561913	0.0493142858226	0.27392578125	-0.2470703125	0.896484375	1.875	21.875	43.8125
19	01	14	15	41	14	0.490354635956	-0.170531597319	0.0521238311061	0.22412109375	-0.23046875	0.9423828125	3.9375	26.5625	45.4375
19	01	14	15	41	14	0.498228194957	-0.16546571561	0.0573118063291	0.2236328125	-0.25048828125	0.93603515625	-5.375	33.125	56.125
19	01	14	15	41	14	0.506447462532	-0.160332307071	0.064816486528	0.21240234375	-0.3291015625	0.939453125	-11.625	39.9375	60.6875
19	01	14	15	41	14	0.515137635091	-0.153381620496	0.0717774714298	0.16748046875	-0.3525390625	0.91015625	-1.9375	46.0625	62.9375
19	01	14	15	41	14	0.524282462101	-0.143613112145	0.0790390906195	0.1484375	-0.345703125	0.92041015625	4.875	60.375	67.0
19	01	14	15	41	14	0.534477124	-0.130003000356	0.0866686669042	0.083984375	-0.37548828125	0.92041015625	17.1875	77.0625	74.5
19	01	14	15	41	14	0.54455314351	-0.11700385296	0.0928950778325	-0.02001953125	-0.3876953125	0.8701171875	23.625	65.0625	72.1875
19	01	14	15	41	14	0.55369882243	-0.106504017321	0.0984475529739	0.02197265625	-0.41455078125	0.9169921875	19.9375	55.75	67.75
19	01	14	15	41	14	0.5613775008	-0.097713130983	0.102168507973	0.09814453125	-0.4228515625	0.90771484375	23.4375	50.125	58.3125
19	01	14	15	41	15	0.56748439281	-0.0906949674893	0.105892172674	0.1201171875	-0.37109375	0.978515625	12.125	45.125	48.75
19	01	14	15	41	15	0.573366960874	-0.0852054798148	0.110596224516	0.13427734375	-0.31787109375	0.96435546875	-0.9375	43.5625	49.25
19	01	14	15	41	15	0.578542722168	-0.0806871482969	0.11675833184	0.0615234375	-0.3251953125	0.98193359375	-10.875	40.4375	44.4375
19	01	14	15	41	15	0.582562668918	-0.0781225999177	0.122737928464	0.06396484375	-0.36328125	0.98291015625	-15.25	32.875	36.5625
19	01	14	15	41	15	0.585798877397	-0.0770241907975	0.127376771945	0.1142578125	-0.375	1.01318359375	-14.125	26.5	30.5625
19	01	14	15	41	15	0.588965928738	-0.0758026615019	0.131037290052	0.10546875	-0.3330078125	0.990234375	-11.625	23.875	29.4375
19	01	14	15	41	15	0.591851497476	-0.0748282908019	0.135008302817	0.05859375	-0.3798828125	0.9814453125	-11.125	21.375	27.1875
19	01	14	15	41	15	0.594229087925	-0.0745227728386	0.137937319095	0.0849609375	-0.43017578125	0.9541015625	-4.5625	17.375	23.0625
19	01	14	15	41	15	0.597156607919	-0.0739121680489	0.140256120707	0.08642578125	-0.3564453125	0.9306640625	-5.8125	16.5	26.5
19	01	14	15	41	15	0.600097604833	-0.0745239193959	0.143981921257	0.05615234375	-0.3896484375	0.9306640625	-14.75	13.8125	27.5
19	01	14	15	41	15	0.60376431127	-0.0747686293273	0.147339976487	0.06298828125	-0.3662109375	0.85546875	-12.1875	13.875	32.25
19	01	14	15	41	15	0.606985419121	-0.0756824454208	0.152341438525	-0.01416015625	-0.34375	0.833984375	-23.875	11.8125	29.3125
19	01	14	15	41	15	0.61012183552	-0.0773944065065	0.156131618173	0.0205078125	-0.31884765625	0.80517578125	-22.1875	6.625	28.0
19	01	14	15	41	15	0.613262843398	-0.0786719551294	0.15874767672	0.0068359375	-0.30517578125	0.78515625	-16.4375	4.125	26.6875
19	01	14	15	41	15	0.616510806821	-0.0789788123974	0.158934178889	0.0322265625	-0.283203125	0.8212890625	-4.0	1.5	25.875
19	01	14	15	41	15	0.619568414645	-0.0789795614768	0.157592911695	-0.0029296875	-0.3095703125	0.91552734375	3.9375	-4.25	22.125
19	01	14	15	41	15	0.621764053872	-0.0808714411878	0.154174536181	0.01416015625	-0.37646484375	0.97607421875	9.8125	-17.1875	12.875
19	01	14	15	41	15	0.623909404474	-0.0822764505215	0.149782202952	0.021484375	-0.322265625	0.99267578125	12.5	-18.5	11.8125
19	01	14	15	41	15	0.625807739999	-0.0824603781077	0.14697601072	-0.064453125	-0.3720703125	1.0234375	12.625	-12.75	10.4375
19	01	14	15	41	15	0.62817721315	-0.0809940887923	0.145325490139	-0.1396484375	-0.4443359375	1.021484375	18.8125	-7.375	14.6875
19	01	14	15	41	15	0.63184667686	-0.0786756536391	0.145937539062	-0.10009765625	-0.4033203125	0.978515625	9.5625	5.875	28.375
19	01	14	15	41	15	0.635492537973	-0.0765374224566	0.14776483235	-0.0556640625	-0.36572265625	0.92724609375	2.0625	12.5	30.75
19	01	14	15	41	15	0.63907595926	-0.0728733354366	0.152521327685	-0.125	-0.33984375	0.87451171875	-6.0	25.4375	32.8125
19	01	14	15	41	15	0.643021904656	-0.0709857119235	0.159488964107	-0.13330078125	-0.30078125	0.91943359375	-26.875	25.875	37.625
19	01	14	15	41	15	0.646913939462	-0.0733034853566	0.167053821333	-0.03759765625	-0.4111328125	0.94775390625	-40.0625	16.875	39.0
19	01	14	15	41	15	0.650374513354	-0.0744610460109	0.173823818884	-0.04833984375	-0.412109375	0.8759765625	-30.8125	19.0625	36.125
19	01	14	15	41	15	0.653622177999	-0.0750118271324	0.182005914165	-0.14013671875	-0.4140625	0.8916015625	-36.0625	21.625	34.9375
19	01	14	15	41	15	0.656938152061	-0.0764179658441	0.189274849906	-0.0244140625	-0.41845703125	0.8974609375	-36.4375	23.125	37.75
19	01	14	15	41	15	0.659538049691	-0.0770254505562	0.194943969157	-0.01513671875	-0.41943359375	0.896484375	-26.1875	22.375	31.0
19	01	14	15	41	15	0.661485395181	-0.0773909836768	0.198787408388	-0.0146484375	-0.4521484375	0.89453125	-15.25	18.375	24.875
19	01	14	15	41	15	0.663463957828	-0.0775160281914	0.202152035724	-0.0166015625	-0.4326171875	0.89013671875	-13.5625	17.5	24.25
19	01	14	15	41	15	0.66493374607	-0.0780048951237	0.205083292344	-0.0537109375	-0.466796875	0.9130859375	-11.6875	13.5	19.0625
19	01	14	15	41	15	0.666751043636	-0.0781863865707	0.207215286813	-0.01025390625	-0.4541015625	0.92138671875	-8.625	14.375	22.1875
19	01	14	15	41	15	0.668438424034	-0.0787331598798	0.209588892269	-0.01220703125	-0.45068359375	0.9326171875	-11.875	13.875	20.9375
19	01	14	15	41	15	0.669938972129	-0.0805074256776	0.211003920066	0.03759765625	-0.501953125	0.94140625	-9.4375	9.125	19.4375
19	01	14	15	41	15	0.671163514537	-0.0827662537025	0.210516820811	0.00146484375	-0.4970703125	0.9736328125	-4.25	-1.5	12.75
19	01	14	15	41	15	0.672736768804	-0.0849618564847	0.208132134061	0.021484375	-0.4755859375	0.9794921875	2.4375	-8.1875	12.5625
19	01	14	15	41	15	0.674496493979	-0.0875850573576	0.206542044668	-0.03662109375	-0.51416015625	0.97998046875	-0.4375	-11.125	13.8125
19	01	14	15	41	15	0.676151342512	-0.0911260114073	0.20538447983	-0.08203125	-0.54296875	0.9970703125	-4.75	-15.9375	11.8125
19	01	14	15	41	15	0.677925317043	-0.0938731554526	0.204531172901	-0.0693359375	-0.5625	0.97314453125	-1.25	-12.0	14.0625
19	01	14	15	41	15	0.679865409663	-0.0950920467057	0.204038967996	-0.11962890625	-0.54248046875	0.9501953125	2.8125	-7.8125	15.6875
19	01	14	15	41	15	0.681589412494	-0.095643468199	0.203188963392	-0.13671875	-0.52099609375	0.93603515625	6.0	-7.4375	13.125
19	01	14	15	41	15	0.683721074916	-0.0969856086451	0.202088955459	-0.05078125	-0.46240234375	0.9375	-0.1875	-7.125	16.75
19	01	14	15	41	15	0.686030407846	-0.0986321298113	0.200193926845	0.03857421875	-0.41015625	0.9033203125	-0.1875	-6.5	19.375
19	01	14	15	41	15	0.6882887212	-0.100035932788	0.198484962432	-0.001953125	-0.38623046875	0.89013671875	-1.3125	-7.625	17.625
19	01	14	15	41	15	0.690438109835	-0.102113062036	0.198183569893	-0.02978515625	-0.3955078125	0.8564453125	-8.125	-6.9375	18.125
19	01	14	15	41	15	0.692094707547	-0.104860984881	0.198979517295	-0.11865234375	-0.427734375	0.8408203125	-13.4375	-10.5625	13.375
19	01	14	15	41	15	0.694158884458	-0.108704561085	0.1987932372	-0.0517578125	-0.416015625	0.84033203125	-15.0625	-15.6875	16.3125
19	01	14	15	41	15	0.696348075559	-0.112182291426	0.197814366981	-0.01611328125	-0.39404296875	0.81591796875	-11.0625	-15.4375	16.625
19	01	14	15	41	16	0.698291540142	-0.115232447145	0.197628529585	-0.10400390625	-0.416015625	0.81494140625	-11.5625	-16.3125	14.25
19	01	14	15	41	16	0.699698915705	-0.11871200201	0.197690578155	-0.15380859375	-0.46875	0.86474609375	-12.6875	-18.625	9.125
19	01	14	15	41	16	0.701300229822	-0.122315549222	0.196229785803	-0.0966796875	-0.44921875	0.93115234375	-10.0	-22.0	9.125
19	01	14	15	41	16	0.703314249512	-0.125367306127	0.192933814346	-0.0283203125	-0.47119140625	0.94970703125	0.3125	-23.375	11.125
19	01	14	15	41	16	0.705142116692	-0.127319869767	0.189209777698	-0.0439453125	-0.48828125	0.9765625	7.3125	-21.6875	9.375
19	01	14	15	41	16	0.70659802865	-0.12908826385	0.186704964122	-0.0966796875	-0.56787109375	0.98095703125	8.3125	-18.875	7.0625
19	01	14	15	41	16	0.707948545665	-0.13006624285	0.184814914758	-0.0791015625	-0.572265625	0.97802734375	9.625	-12.8125	8.5
19	01	14	15	41	16	0.710016205221	-0.130858312043	0.18273777344	-0.01806640625	-0.51123046875	1.00341796875	6.25	-9.875	15.3125
19	01	14	15	41	16	0.712223443678	-0.130371863544	0.181580662005	-0.046875	-0.5654296875	0.93310546875	13.875	-4.0625	17.875
19	01	14	15	41	16	0.71461135481	-0.130129091942	0.181277393559	-0.01513671875	-0.49560546875	0.91650390625	5.0	0.0	21.6875
19	01	14	15	41	16	0.71678597251	-0.131894966502	0.181515793788	0.0224609375	-0.4912109375	0.87841796875	-4.75	-3.3125	21.625
19	01	14	15	41	16	0.718926873298	-0.133360660341	0.182371465949	-0.04833984375	-0.44580078125	0.86572265625	-8.6875	-4.0625	20.125
19	01	14	15	41	16	0.721486973395	-0.13586244842	0.184018545367	-0.044921875	-0.41357421875	0.8544921875	-19.0	-5.625	25.0
19	01	14	15	41	16	0.724128459553	-0.139222607573	0.185121511954	-0.0302734375	-0.3779296875	0.85986328125	-23.125	-10.4375	24.75
19	01	14	15	41	16	0.726931536773	-0.142090396105	0.184998277746	-0.04248046875	-0.4296875	0.85009765625	-13.0625	-15.0	24.0
19	01	14	15	41	16	0.729907042689	-0.144162591758	0.182980292163	0.041015625	-0.349609375	0.873046875	-7.625	-14.1875	24.125
19	01	14	15	41	16	0.732693631826	-0.1464898964	0.180548797313	-0.04052734375	-0.40673828125	0.8759765625	-3.6875	-21.75	19.375
19	01	14	15	41	16	0.735299888638	-0.147340743021	0.176393847279	-0.06103515625	-0.44921875	0.96435546875	9.875	-24.3125	14.0625
19	01	14	15	41	16	0.737811128714	-0.150699509993	0.170658497343	0.09814453125	-0.412109375	1.01123046875	1.5	-29.9375	14.5625
19	01	14	15	41	16	0.739989163408	-0.15460182703	0.162841561199	0.18359375	-0.4462890625	0.96240234375	11.0625	-36.0625	10.625
19	01	14	15	41	16	0.742107989468	-0.157222648316	0.15581887467	0.06005859375	-0.431640625	0.97900390625	12.5625	-36.25	7.5
19	01	14	15	41	16	0.74348060237	-0.16113527545	0.151552609448	-0.013671875	-0.51806640625	0.921875	3.6875	-34.625	4.5
19	01	14	15	41	16	0.744083288989	-0.16717612407	0.148133060649	0.02490234375	-0.4287109375	0.96337890625	-16.4375	-35.9375	1.0
19	01	14	15	41	16	0.745422470192	-0.174499536746	0.144042989409	0.1064453125	-0.47412109375	1.0546875	-20.25	-41.0625	9.25
19	01	14	15	41	16	0.746286809809	-0.181704083815	0.140932055602	0.107421875	-0.4873046875	0.9521484375	-20.1875	-36.375	6.9375
19	01	14	15	41	16	0.747139097823	-0.185243620774	0.138551241897	0.00439453125	-0.41650390625	0.9111328125	-9.8125	-26.625	3.5
19	01	14	15	41	16	0.747553723055	-0.191221898623	0.136168546386	0.0771484375	-0.4248046875	0.958984375	-22.1875	-30.9375	3.3125
19	01	14	15	41	16	0.7476260946	-0.200319115232	0.133179862717	0.1884765625	-0.48388671875	0.95458984375	-31.3125	-39.625	4.1875
19	01	14	15	41	16	0.747767329034	-0.207648718747	0.129826227153	0.17041015625	-0.486328125	0.908203125	-20.875	-35.75	2.5625
19	01	14	15	41	16	0.747882216384	-0.21417764607	0.126956256433	0.22607421875	-0.40283203125	0.90478515625	-24.5	-28.25	5.25
19	01	14	15	41	16	0.746083638691	-0.224972536994	0.124876237301	0.17578125	-0.49609375	0.88916015625	-42.4375	-42.1875	-8.4375
19	01	14	15	41	16	0.743836818098	-0.23394818444	0.123230207249	-0.08544921875	-0.58740234375	0.88720703125	-31.4375	-49.125	-22.375
19	01	14	15	41	16	0.742394293504	-0.241584856835	0.121341762352	-0.07080078125	-0.51025390625	0.8447265625	-27.875	-46.125	-16.375
19	01	14	15	41	16	0.739985530148	-0.250486688859	0.117125720254	0.01611328125	-0.59130859375	0.86572265625	-22.375	-54.5	-26.125
19	01	14	15	41	16	0.738269489947	-0.255733231058	0.110716009818	-0.0400390625	-0.6328125	0.8447265625	5.5	-54.5	-31.375
19	01	14	15	41	16	0.738150039332	-0.258053445204	0.103148136801	-0.025390625	-0.5205078125	0.81884765625	18.75	-50.3125	-22.0
19	01	14	15	41	16	0.738161772817	-0.260193785143	0.093139975634	0.095703125	-0.50341796875	0.78369140625	29.0	-52.9375	-22.125
19	01	14	15	41	16	0.738677656066	-0.262257117088	0.0828822818258	0.18408203125	-0.53564453125	0.919921875	28.4375	-53.125	-15.625
19	01	14	15	41	16	0.739143648976	-0.265627841482	0.0730598635693	0.25341796875	-0.55859375	0.94970703125	21.75	-54.1875	-11.5
19	01	14	15	41	16	0.739316728326	-0.268859092568	0.0641477653323	0.2685546875	-0.66162109375	0.91552734375	26.3125	-49.375	-13.5
19	01	14	15	41	16	0.739490341666	-0.270564599258	0.0582876589874	0.09716796875	-0.53076171875	0.90380859375	15.1875	-41.4375	-13.5625
19	01	14	15	41	16	0.739223087814	-0.273508269878	0.0531635132925	0.00927734375	-0.5419921875	0.97412109375	4.9375	-49.75	-17.1875
19	01	14	15	41	16	0.738460391318	-0.277708470163	0.0460202607698	0.2421875	-0.572265625	0.9501953125	8.625	-49.1875	-16.3125
19	01	14	15	41	16	0.737342531662	-0.281668387023	0.03869507202	0.33154296875	-0.5791015625	0.97216796875	9.625	-44.6875	-17.875
19	01	14	15	41	16	0.737241481287	-0.283568500874	0.0316161178332	0.36328125	-0.5771484375	0.9482421875	20.0625	-35.75	-11.4375
19	01	14	15	41	16	0.737221927538	-0.287222981289	0.0274650109605	0.39453125	-0.54541015625	0.82958984375	4.25	-27.8125	-0.25
19	01	14	15	41	16	0.735473198546	-0.293456857976	0.0256347504887	0.3486328125	-0.54150390625	0.81982421875	-18.4375	-28.875	-7.5
19	01	14	15	41	16	0.731812877005	-0.300842841598	0.0243530723874	0.255859375	-0.5859375	0.7568359375	-23.9375	-32.1875	-25.0
19	01	14	15	41	16	0.728933250183	-0.305782096912	0.0249020150779	0.1650390625	-0.5615234375	0.7080078125	-19.0625	-20.4375	-21.8125
19	01	14	15	41	16	0.726071473356	-0.310850875404	0.0274657164602	0.1494140625	-0.46337890625	0.619140625	-30.125	-11.8125	-15.1875
19	01	14	15	41	17	0.722037882876	-0.315670323773	0.0284420670685	0.142578125	-0.4814453125	0.6337890625	-25.0625	-15.5625	-29.4375
19	01	14	15	41	17	0.716925640929	-0.320498598716	0.026672612386	0.10205078125	-0.546875	0.703125	-16.375	-29.375	-46.875
19	01	14	15	41	17	0.71117483982	-0.326046686777	0.0206907201081	0.083984375	-0.546875	0.75	-7.125	-51.1875	-59.75
19	01	14	15	41	17	0.70584416109	-0.330553564761	0.0095211144946	0.20703125	-0.578125	0.80810546875	16.375	-65.125	-66.0
19	01	14	15	41	17	0.702216575025	-0.331119071666	-0.0054932196221	0.25439453125	-0.69921875	0.69091796875	60.9375	-62.1875	-69.5
19	01	14	15	41	17	0.696538731387	-0.33075213682	-0.0202027970636	0.130859375	-0.703125	0.7314453125	59.9375	-62.125	-91.5
19	01	14	15	41	17	0.692441951692	-0.328612381481	-0.0357665036308	0.21923828125	-0.525390625	0.82275390625	61.9375	-60.875	-75.1875
19	01	14	15	41	17	0.68682585253	-0.328978169833	-0.0523069186544	0.44189453125	-0.384765625	0.7744140625	47.8125	-62.0	-71.8125
19	01	14	15	41	17	0.678720531699	-0.331242475318	-0.0667123688082	0.5283203125	-0.416015625	0.78857421875	29.8125	-56.4375	-82.3125
19	01	14	15	41	17	0.669164941541	-0.33250735147	-0.0792817638691	0.404296875	-0.4921875	0.75927734375	29.0625	-49.9375	-98.3125
19	01	14	15	41	17	0.659785047105	-0.334042882776	-0.0920403192446	0.41552734375	-0.53076171875	0.759765625	32.8125	-53.875	-97.9375
19	01	14	15	41	17	0.649052220737	-0.33465801451	-0.110413340917	0.5810546875	-0.47119140625	0.759765625	45.5625	-63.625	-105.6875
19	01	14	15	41	17	0.635254431615	-0.333740510383	-0.130127060742	0.62158203125	-0.353515625	0.68896484375	48.5625	-59.0	-130.25
19	01	14	15	41	17	0.617841277136	-0.332998321452	-0.146297099802	0.55419921875	-0.17822265625	0.64111328125	23.0	-44.4375	-146.5
19	01	14	15	41	17	0.599171680591	-0.332086494255	-0.157956229945	0.4833984375	-0.15625	0.57080078125	2.6875	-26.8125	-147.9375
19	01	14	15	41	17	0.581546490292	-0.328737342224	-0.168274944766	0.47314453125	-0.1982421875	0.54833984375	8.625	-12.25	-142.6875
19	01	14	15	41	17	0.565477698946	-0.32213613546	-0.179805429152	0.4482421875	-0.1181640625	0.52587890625	27.75	-2.9375	-138.125
19	01	14	15	41	17	0.551869760804	-0.312311166339	-0.191341705388	0.46826171875	0.0498046875	0.4677734375	42.625	11.75	-125.1875
19	01	14	15	41	17	0.539531733647	-0.300770631608	-0.201469938096	0.36376953125	0.1708984375	0.41015625	43.5	23.5625	-116.375
19	01	14	15	41	17	0.529465019943	-0.288505031616	-0.209100536983	0.31494140625	0.1796875	0.45556640625	33.6875	30.3125	-93.1875
19	01	14	15	41	17	0.522697244602	-0.276729251171	-0.214169153586	0.37158203125	0.23486328125	0.45068359375	26.9375	40.0625	-65.5625
19	01	14	15	41	17	0.519219935929	-0.263851861175	-0.214841210117	0.4560546875	0.33740234375	0.45068359375	12.0	66.0625	-39.0
19	01	14	15	41	17	0.519824168875	-0.248956532211	-0.211725964756	0.4140625	0.40869140625	0.5224609375	5.0	85.125	-10.9375
19	01	14	15	41	17	0.524146219838	-0.23497472594	-0.205862272882	0.4912109375	0.482421875	0.77734375	-4.875	86.0	19.5625
19	01	14	15	41	17	0.527953809496	-0.227294796134	-0.199828991016	0.546875	0.6279296875	1.03173828125	-31.1875	48.9375	35.3125
19	01	14	15	41	17	0.528921858474	-0.229610435216	-0.198055784762	0.75146484375	0.40185546875	0.99755859375	-31.1875	-2.5	24.25
19	01	14	15	41	17	0.531975754271	-0.233029305852	-0.198789012352	1.11865234375	-0.1689453125	0.9423828125	14.8125	7.25	14.5625
19	01	14	15	41	17	0.53174242827	-0.228883620984	-0.203859011756	0.84033203125	-0.3447265625	0.841796875	59.6875	17.125	-31.4375
19	01	14	15	41	17	0.527574261962	-0.21502130089	-0.215570603106	0.48046875	-0.0146484375	1.0029296875	94.1875	14.4375	-66.0625
19	01	14	15	41	17	0.528064624572	-0.203486761249	-0.226191342888	0.58203125	0.23291015625	1.04638671875	81.1875	12.375	-21.25
19	01	14	15	41	17	0.533008110969	-0.195735372939	-0.232660817475	0.63671875	0.15087890625	0.9326171875	64.6875	18.375	13.6875
19	01	14	15	41	17	0.538579758355	-0.186403284453	-0.236879877853	0.56201171875	0.0556640625	0.9384765625	65.375	29.6875	11.6875
19	01	14	15	41	17	0.544117006113	-0.176937207036	-0.240046235002	0.525390625	0.0625	0.92529296875	61.25	32.8125	11.9375
19	01	14	15	41	17	0.548144762092	-0.168087147846	-0.24260944542	0.533203125	0.1611328125	0.955078125	49.125	31.1875	7.125
19	01	14	15	41	17	0.551565869652	-0.160764025746	-0.241573277867	0.54443359375	0.166015625	1.00048828125	26.875	35.875	6.3125
19	01	14	15	41	17	0.555599221053	-0.153136157928	-0.237425131264	0.4990234375	0.10888671875	0.92626953125	16.0	49.5	8.0625
19	01	14	15	41	17	0.560049049845	-0.144223616476	-0.230464822604	0.4130859375	0.07568359375	0.9248046875	8.6875	62.0	8.6875
19	01	14	15	41	17	0.564802279694	-0.135127755267	-0.224968792193	0.47509765625	0.06640625	0.83154296875	16.0	66.0	9.875
19	01	14	15	41	17	0.570054243864	-0.12481380393	-0.222101433985	0.544921875	0.1435546875	0.986328125	31.5625	63.625	13.125
19	01	14	15	41	17	0.575002520757	-0.114316921917	-0.22076044131	0.53515625	0.1650390625	0.861328125	36.625	63.3125	12.3125
19	01	14	15	41	17	0.580477188619	-0.101679633712	-0.218068025963	0.4755859375	0.26513671875	0.912109375	32.6875	74.375	15.5
19	01	14	15	41	17	0.586839725875	-0.0927713347197	-0.214472677766	0.474609375	0.1982421875	0.94482421875	23.25	61.5625	26.1875
19	01	14	15	41	17	0.590766409003	-0.0851450708295	-0.213808733416	0.46728515625	0.1689453125	0.95947265625	31.9375	43.1875	11.75
19	01	14	15	41	17	0.595032680367	-0.0791627229906	-0.211792327508	0.45458984375	0.0927734375	0.9892578125	26.125	40.25	14.5
19	01	14	15	41	17	0.59870350178	-0.0744030552217	-0.209109817219	0.3818359375	0.14111328125	1.03564453125	16.125	31.6875	14.6875
19	01	14	15	41	17	0.602038830772	-0.0697007648765	-0.206172665283	0.35205078125	0.1142578125	0.98681640625	15.0625	32.0625	12.125
19	01	14	15	41	17	0.604363213222	-0.0656120434471	-0.201779921522	0.2646484375	0.119140625	1.06591796875	5.625	26.5625	6.375
19	01	14	15	41	17	0.605646291685	-0.0651239134564	-0.197813124191	0.328125	0.11572265625	1.08203125	-5.5625	12.9375	3.875
19	01	14	15	41	17	0.606420439276	-0.0661593957503	-0.194694162771	0.38037109375	0.14111328125	1.0888671875	-9.6875	5.5625	3.0
19	01	14	15	41	17	0.606620179792	-0.0686636182982	-0.190671238723	0.314453125	0.087890625	1.0146484375	-17.5625	-0.125	0.5
19	01	14	15	41	18	0.60659832556	-0.0688442409932	-0.185293542248	0.203125	0.0771484375	0.96435546875	-17.4375	8.9375	-3.5625
19	01	14	15	41	18	0.607038606599	-0.068418487633	-0.179011083165	0.166015625	0.1064453125	0.89892578125	-22.125	15.125	0.25
19	01	14	15	41	18	0.607854602183	-0.0684820628225	-0.173646585321	0.21337890625	0.12158203125	0.88525390625	-20.3125	13.8125	3.5625
19	01	14	15	41	18	0.609180300413	-0.0686632439599	-0.169796573064	0.248046875	0.12841796875	0.87255859375	-14.875	10.8125	7.75
19	01	14	15	41	18	0.610159893478	-0.0693959986881	-0.167050878108	0.2431640625	0.12646484375	0.8544921875	-11.9375	4.6875	7.0
19	01	14	15	41	18	0.610456658955	-0.0714091472683	-0.165156540605	0.2421875	0.10693359375	0.876953125	-12.125	-5.5	3.4375
19	01	14	15	41	18	0.609670256402	-0.073607200843	-0.164487069877	0.26611328125	0.0947265625	0.85498046875	-8.0	-9.3125	-4.3125
19	01	14	15	41	18	0.60880179447	-0.0757416568358	-0.164239160794	0.2626953125	0.1005859375	0.8916015625	-5.9375	-11.75	-4.3125
19	01	14	15	41	18	0.608190684123	-0.0777556378899	-0.165276505028	0.30322265625	0.12158203125	0.90966796875	-0.375	-13.8125	-2.0
19	01	14	15	41	18	0.608107683284	-0.0790424018722	-0.16644681846	0.25634765625	0.0693359375	0.9501953125	7.375	-14.8125	0.0
19	01	14	15	41	18	0.608090140126	-0.078429773167	-0.16802892259	0.21826171875	0.0673828125	0.9541015625	15.875	-10.5	-1.5
19	01	14	15	41	18	0.60784329031	-0.0793449420026	-0.169065761036	0.2890625	0.1064453125	0.96923828125	5.3125	-11.4375	-1.0
19	01	14	15	41	18	0.608155404733	-0.0806886235504	-0.16949493767	0.32470703125	0.07470703125	0.99365234375	4.625	-9.1875	2.0625
19	01	14	15	41	18	0.608450767627	-0.0803211164808	-0.168942895455	0.2451171875	0.0703125	0.96630859375	5.125	-2.6875	0.0625
19	01	14	15	41	18	0.60888176829	-0.0794060926769	-0.167234968436	0.21875	0.0888671875	0.96875	0.9375	2.8125	1.0
19	01	14	15	41	18	0.609537457172	-0.0789157837312	-0.166010001353	0.25830078125	0.10302734375	0.97998046875	1.25	1.5	3.125
19	01	14	15	41	18	0.610093337652	-0.0779400952563	-0.16552352258	0.2568359375	0.09326171875	0.9873046875	6.5625	0.8125	1.75
19	01	14	15	41	18	0.610295875845	-0.077088077927	-0.165345687335	0.294921875	0.12939453125	0.96875	4.625	2.1875	-0.125
19	01	14	15	41	18	0.610161252712	-0.076659251116	-0.16583056153	0.3271484375	0.14404296875	0.95556640625	5.1875	0.0	-1.75
19	01	14	15	41	18	0.609960000283	-0.0753752852061	-0.166130790551	0.27880859375	0.14794921875	0.95556640625	6.4375	1.3125	-3.125
19	01	14	15	41	18	0.609646571086	-0.0749470406741	-0.164968933992	0.2353515625	0.09814453125	0.91455078125	-0.125	1.0625	-3.75
19	01	14	15	41	18	0.609486356988	-0.0750719226012	-0.163937548054	0.27392578125	0.11083984375	0.93359375	-2.0625	0.0625	-1.875
19	01	14	15	41	18	0.609795728719	-0.0753165778439	-0.163511436016	0.263671875	0.0703125	0.92431640625	3.125	-2.5	0.8125
19	01	14	15	41	18	0.609688641988	-0.0751963566853	-0.162721986139	0.2421875	0.078125	0.92822265625	1.9375	-1.3125	-2.1875
19	01	14	15	41	18	0.609798205933	-0.0754389533112	-0.160521397418	0.234375	0.04833984375	0.9482421875	-3.625	1.625	-1.0
19	01	14	15	41	18	0.610333467771	-0.0764747835117	-0.157466034685	0.306640625	0.017578125	0.95556640625	-8.3125	6.0	1.375
19	01	14	15	41	18	0.611074786525	-0.0775134817106	-0.153989381383	0.3388671875	0.05322265625	1.02197265625	-12.0	8.5	3.5
19	01	14	15	41	18	0.611988023748	-0.0787338736047	-0.150326767976	0.30126953125	0.1240234375	0.97900390625	-18.8125	7.0625	6.6875
19	01	14	15	41	18	0.613285132801	-0.0814214139288	-0.145630804823	0.32275390625	0.17724609375	0.94775390625	-32.5	6.625	12.75
19	01	14	15	41	18	0.61558947983	-0.0841659619954	-0.139829020255	0.265625	0.1318359375	0.9052734375	-35.125	8.1875	19.3125
19	01	14	15	41	18	0.617664439827	-0.0863631603118	-0.134274878223	0.2158203125	0.0791015625	0.87353515625	-29.6875	7.25	17.25
19	01	14	15	41	18	0.619385598594	-0.0897218003481	-0.128845388119	0.2587890625	0.083984375	0.88330078125	-34.75	3.875	15.9375
19	01	14	15	41	18	0.620536895251	-0.0926502416633	-0.124876412677	0.26611328125	0.1005859375	0.90771484375	-28.8125	0.8125	12.1875
19	01	14	15	41	18	0.621024115642	-0.0955186969022	-0.120603798772	0.24560546875	0.06640625	0.8896484375	-28.875	0.8125	6.5625
19	01	14	15	41	18	0.621317447364	-0.0981413020984	-0.117427776889	0.2333984375	0.064453125	0.90576171875	-23.625	-3.4375	5.6875
19	01	14	15	41	18	0.621262831615	-0.100400565675	-0.116147280535	0.25732421875	0.02685546875	0.90869140625	-12.375	-7.25	1.625
19	01	14	15	41	18	0.620983361024	-0.101198192705	-0.116335196197	0.2607421875	0.0078125	0.900390625	0.6875	-5.8125	-1.8125
19	01	14	15	41	18	0.620779163235	-0.101133720724	-0.117246757701	0.25732421875	0.005859375	0.89453125	7.125	-4.75	-2.3125
19	01	14	15	41	18	0.620173553504	-0.100524145519	-0.118529381055	0.2509765625	0.04345703125	0.9033203125	7.8125	-4.5	-5.25
19	01	14	15	41	18	0.61987073999	-0.100463493307	-0.118957076826	0.24609375	0.04345703125	0.9287109375	2.625	-4.625	-2.75
19	01	14	15	41	18	0.619728414358	-0.102169131932	-0.119197320587	0.29931640625	0.0361328125	0.927734375	-3.625	-8.3125	0.6875
19	01	14	15	41	18	0.619497227458	-0.104063327371	-0.119443948191	0.30859375	0.0400390625	0.94970703125	-4.75	-9.5	0.125
19	01	14	15	41	18	0.619250019103	-0.105283489351	-0.118894050583	0.24560546875	0.01708984375	0.9462890625	-4.8125	-7.5625	-0.625
19	01	14	15	41	18	0.618655005649	-0.106506805925	-0.118408712604	0.220703125	0.02880859375	0.95458984375	-5.875	-9.9375	-3.3125
19	01	14	15	41	18	0.617610835931	-0.108336716452	-0.118285383935	0.2392578125	0.06396484375	0.9619140625	-9.0625	-13.1875	-4.8125
19	01	14	15	41	18	0.61693592568	-0.110228164007	-0.118101604293	0.25048828125	0.0283203125	0.9609375	-6.9375	-12.75	-2.8125
19	01	14	15	41	18	0.616567154743	-0.111875628058	-0.11889455726	0.2705078125	0.03271484375	0.994140625	-1.6875	-14.5625	-1.0625
19	01	14	15	41	18	0.61613180785	-0.113216889902	-0.120723993653	0.271484375	0.0595703125	0.974609375	2.5	-16.875	-1.25
19	01	14	15	41	18	0.615828584056	-0.113278280675	-0.122189179909	0.28564453125	0.0615234375	0.984375	5.125	-9.25	-1.6875
19	01	14	15	41	18	0.616096249541	-0.11187878199	-0.123475600636	0.27734375	0.0244140625	0.94921875	12.75	-1.75	-0.5
19	01	14	15	41	19	0.615900463953	-0.109129920677	-0.126219617427	0.2509765625	0.03955078125	0.94287109375	22.6875	-2.25	-5.125
19	01	14	15	41	19	0.615837101929	-0.10699330423	-0.129087757243	0.26025390625	0.05859375	0.9482421875	21.0625	-5.25	-2.8125
19	01	14	15	41	19	0.616142030635	-0.105467402569	-0.131773218835	0.28173828125	0.01904296875	0.94482421875	21.125	-5.5	-0.9375
19	01	14	15	41	19	0.616687463374	-0.102476073932	-0.132321696417	0.34521484375	-0.052734375	0.88330078125	21.6875	14.5625	-3.0
19	01	14	15	41	19	0.617668976091	-0.0977162085694	-0.132017588467	0.24560546875	0.05078125	1.0546875	18.9375	15.75	0.9375
19	01	14	15	41	19	0.617366987782	-0.097655677751	-0.132384478151	0.26953125	0.10205078125	1.03173828125	0.625	-6.125	-1.5625
19	01	14	15	41	19	0.616579723311	-0.100098074265	-0.133118231691	0.38623046875	0.1123046875	1.00830078125	-7.8125	-10.5	-2.5
19	01	14	15	41	19	0.617347532019	-0.101863868605	-0.130854484295	0.333984375	-0.01171875	1.00732421875	-9.375	0.25	5.625
19	01	14	15	41	19	0.618218710196	-0.100584898253	-0.132261817059	0.32080078125	0.0322265625	0.94775390625	14.8125	0.8125	3.9375
19	01	14	15	41	19	0.61791197346	-0.0994249905933	-0.134214582145	0.353515625	0.15478515625	0.9501953125	7.625	0.0625	-2.375
19	01	14	15	41	19	0.617302908313	-0.10052381748	-0.134092791137	0.34619140625	0.1005859375	0.9736328125	-5.9375	-3.5	-2.9375
19	01	14	15	41	19	0.616212247124	-0.101745821707	-0.13287381755	0.32177734375	0.0361328125	0.97705078125	-8.1875	-2.0625	-7.1875
19	01	14	15	41	19	0.615156349889	-0.101742795443	-0.131527129081	0.2998046875	0.0439453125	0.986328125	-4.8125	2.3125	-8.4375
19	01	14	15	41	19	0.613804953572	-0.102290653494	-0.13103701256	0.357421875	0.0439453125	0.99169921875	-3.375	0.625	-10.0
19	01	14	15	41	19	0.612283094295	-0.102474413409	-0.130427529158	0.3427734375	0.04443359375	1.02783203125	-2.6875	0.75	-11.75
19	01	14	15	41	19	0.611162287838	-0.102725070452	-0.128299523523	0.2490234375	0.0048828125	0.9794921875	-7.1875	0.8125	-8.875
19	01	14	15	41	19	0.610408764926	-0.103759114126	-0.126036806277	0.24169921875	0.00390625	0.9267578125	-10.75	-1.0625	-5.3125
19	01	14	15	41	19	0.609980444433	-0.10455238156	-0.124449682429	0.2314453125	0.03515625	0.958984375	-8.3125	-3.875	-2.5
19	01	14	15	41	19	0.609570247697	-0.106630541977	-0.123415544292	0.27587890625	0.03515625	0.9111328125	-10.5625	-7.625	-0.625
19	01	14	15	41	19	0.608522155867	-0.108032519146	-0.123230314212	0.2265625	0.0595703125	0.91845703125	-7.125	-11.3125	-5.375
19	01	14	15	41	19	0.607665874142	-0.109008763682	-0.122375459788	0.19091796875	0.0732421875	0.89990234375	-9.625	-8.875	-4.3125
19	01	14	15	41	19	0.607171499507	-0.108885600635	-0.12188595542	0.1689453125	0.09033203125	0.9033203125	-4.5625	-6.75	-2.375
19	01	14	15	41	19	0.606747970299	-0.107604533914	-0.122374980429	0.1640625	0.06884765625	0.89306640625	5.0	-5.0625	-3.875
19	01	14	15	41	19	0.606201996147	-0.105346822931	-0.125427416641	0.1923828125	0.099609375	0.880859375	18.4375	-7.4375	-5.375
19	01	14	15	41	19	0.605456235486	-0.101743502475	-0.128659450041	0.1806640625	0.0830078125	0.86572265625	25.0	-2.5	-8.75
19	01	14	15	41	19	0.604615958354	-0.0970461713894	-0.132019414286	0.171875	0.08544921875	0.859375	30.25	1.75	-10.8125
19	01	14	15	41	19	0.603754792749	-0.0919181882207	-0.135313826883	0.1796875	0.11279296875	0.86669921875	29.8125	4.5	-11.0
19	01	14	15	41	19	0.602838087212	-0.0867300720794	-0.136839424069	0.1826171875	0.07861328125	0.81005859375	24.4375	12.625	-12.375
19	01	14	15	41	19	0.600387428644	-0.0798319362272	-0.137569712734	0.08984375	0.06103515625	0.8671875	26.8125	16.0625	-25.0625
19	01	14	15	41	19	0.596751200084	-0.0739759082031	-0.13800291126	0.0361328125	0.09326171875	0.8779296875	19.4375	8.625	-30.75
19	01	14	15	41	19	0.593120870896	-0.0678689450953	-0.136775454999	0.05224609375	0.1044921875	0.85546875	12.375	17.625	-31.1875
19	01	14	15	41	19	0.58996158411	-0.0591426417342	-0.132018095017	0.00341796875	0.0966796875	0.8564453125	5.625	39.875	-31.125
19	01	14	15	41	19	0.586355779424	-0.0466301462975	-0.125730499179	-0.0390625	0.0341796875	0.87890625	15.625	60.75	-37.8125
19	01	14	15	41	19	0.579879183187	-0.0289298739954	-0.119320471859	-0.09033203125	0.03955078125	0.88916015625	30.625	81.875	-61.5
19	01	14	15	41	19	0.569979402998	-0.00945998580841	-0.111627832539	-0.11669921875	0.07373046875	0.89453125	22.9375	105.875	-85.875
19	01	14	15	41	19	0.557478725482	0.0114132386321	-0.100460913307	-0.10546875	0.11767578125	0.90185546875	9.8125	123.1875	-103.375
19	01	14	15	41	19	0.543153379094	0.0316162996259	-0.0850222111561	-0.09765625	0.244140625	0.96142578125	-14.9375	133.5625	-114.0625
19	01	14	15	41	19	0.528756132088	0.0496223866313	-0.0645152062353	-0.138671875	0.26171875	0.96875	-46.1875	138.75	-112.6875
19	01	14	15	41	19	0.515671439409	0.0660992033234	-0.0397327621085	-0.197265625	0.11572265625	1.05029296875	-69.125	145.9375	-101.625
19	01	14	15	41	19	0.503215313216	0.0836149155981	-0.0162957536239	-0.19580078125	0.02294921875	1.14501953125	-57.875	148.6875	-93.3125
19	01	14	15	41	19	0.490406243301	0.104428759463	-0.000366202546336	-0.18994140625	0.1337890625	1.0712890625	-13.1875	144.75	-87.9375
19	01	14	15	41	19	0.476974576318	0.125667389973	0.00848361690444	-0.349609375	0.2763671875	0.98974609375	21.0	125.6875	-85.3125
19	01	14	15	41	19	0.465699385465	0.142395369108	0.017700238766	-0.47900390625	0.28759765625	0.97314453125	5.0	103.125	-71.8125
19	01	14	15	41	19	0.459759911135	0.156427008129	0.0247793075694	-0.43115234375	0.31884765625	1.0048828125	-7.6875	81.5625	-39.125
19	01	14	15	41	19	0.454517766455	0.16875810719	0.0270989510281	-0.4443359375	0.0771484375	0.7890625	26.5	56.3125	-26.0625
19	01	14	15	41	19	0.450192523495	0.178526726033	0.0219114853491	-0.28662109375	0.41455078125	1.24072265625	38.625	46.0	-23.375
19	01	14	15	41	19	0.448250399126	0.18988384963	0.011718964683	-0.20849609375	0.421875	1.021484375	65.4375	43.25	-2.5625
19	01	14	15	41	19	0.448619550748	0.195561502122	0.00762958419639	-0.216796875	0.45556640625	0.96923828125	15.9375	29.25	1.8125
19	01	14	15	41	19	0.450936294227	0.196781079127	0.00756850304333	-0.1533203125	0.0859375	0.953125	6.0625	20.875	14.875
19	01	14	15	41	19	0.451046702061	0.198362893329	0.00305173682044	-0.1259765625	0.0478515625	0.9560546875	34.6875	11.875	7.25
19	01	14	15	41	19	0.450306273563	0.20165518133	-0.00488269204188	-0.205078125	0.28955078125	0.93994140625	42.8125	6.0	1.9375
19	01	14	15	41	20	0.450796199364	0.202266261128	-0.00854474247373	-0.26611328125	0.32958984375	0.9052734375	10.5625	-1.25	3.4375
19	01	14	15	41	20	0.453551349756	0.198730076007	-0.00561522327783	-0.2783203125	0.203125	0.90576171875	-28.1875	-5.4375	10.8125
19	01	14	15	41	20	0.455868159239	0.194273443682	-0.00158690214757	-0.2978515625	0.14013671875	0.921875	-31.5625	-8.875	7.9375
19	01	14	15	41	20	0.457461376161	0.189881566543	0.00128174635082	-0.333984375	0.13671875	0.92431640625	-25.5	-14.875	5.4375
19	01	14	15	41	20	0.458929526238	0.185122124362	0.00244143916073	-0.32080078125	0.154296875	0.94384765625	-19.0625	-20.3125	5.3125
19	01	14	15	41	20	0.459892995489	0.181088588934	0.00207516414687	-0.32470703125	0.1708984375	0.9404296875	-10.1875	-21.9375	4.25
19	01	14	15	41	20	0.460159078692	0.176946699712	0.0015869659167	-0.35205078125	0.16845703125	0.94384765625	-9.25	-25.25	0.25
19	01	14	15	41	20	0.459905202407	0.173463913104	0.000976573754282	-0.40966796875	0.17724609375	0.9150390625	-7.4375	-27.25	-2.375
19	01	14	15	41	20	0.459458818887	0.171137424038	0.000305166590653	-0.462890625	0.17919921875	0.89208984375	-4.4375	-25.9375	-2.0
19	01	14	15	41	20	0.459543589911	0.169742425759	6.10364709671e-05	-0.4931640625	0.16845703125	0.87939453125	-4.4375	-22.4375	1.9375
19	01	14	15	41	20	0.46056391318	0.168393299293	0.000244136715176	-0.4912109375	0.1650390625	0.86865234375	-6.75	-20.5625	7.5625
19	01	14	15	41	20	0.462152815242	0.167173344024	0.000427241112876	-0.48388671875	0.154296875	0.86181640625	-6.6875	-19.5	11.25
19	01	14	15	41	20	0.463857699988	0.166622568548	6.10339078931e-05	-0.49365234375	0.140625	0.84423828125	-1.5625	-18.3125	13.75
19	01	14	15	41	20	0.465809069795	0.166927123413	-0.000671370514642	-0.4833984375	0.14404296875	0.84228515625	2.4375	-14.75	15.4375
19	01	14	15	41	20	0.467207442339	0.168451017747	-0.00207512123312	-0.49609375	0.15283203125	0.84521484375	9.0	-10.6875	13.625
19	01	14	15	41	20	0.468132982308	0.170468763962	-0.00329585150517	-0.50830078125	0.13525390625	0.84130859375	11.625	-8.75	11.4375
19	01	14	15	41	20	0.469232410538	0.172971468713	-0.0046996482325	-0.48876953125	0.099609375	0.833984375	15.8125	-5.3125	13.4375
19	01	14	15	41	20	0.470395501178	0.175536195847	-0.00561520515225	-0.48046875	0.08251953125	0.85888671875	15.5625	-2.125	13.625
19	01	14	15	41	20	0.47111661261	0.17901088545	-0.00744607160752	-0.4638671875	0.107421875	0.86962890625	21.5	1.3125	11.9375
19	01	14	15	41	20	0.471438948738	0.183167825629	-0.00939948188835	-0.478515625	0.13525390625	0.888671875	23.5625	4.1875	9.5
19	01	14	15	41	20	0.471924287857	0.187256041793	-0.0111694444746	-0.46728515625	0.14697265625	0.8984375	22.0625	6.0	10.3125
19	01	14	15	41	20	0.472774559237	0.190367137911	-0.0125121074934	-0.45458984375	0.169921875	0.94189453125	16.4375	4.1875	11.4375
19	01	14	15	41	20	0.474233780549	0.191707632523	-0.0130002310498	-0.4599609375	0.1748046875	1.0	7.5625	-1.0625	13.125
19	01	14	15	41	20	0.476326602676	0.190494019343	-0.0126955322087	-0.4384765625	0.19775390625	1.04541015625	-5.1875	-9.625	14.375
19	01	14	15	41	20	0.479170057637	0.186577871124	-0.0122676323507	-0.39453125	0.18505859375	1.07421875	-12.6875	-19.625	17.1875
19	01	14	15	41	20	0.482235084096	0.181822340909	-0.0130614236168	-0.384765625	0.16552734375	1.0634765625	-8.5625	-27.3125	20.1875
19	01	14	15	41	20	0.48584401923	0.176087939131	-0.0165406694989	-0.39599609375	0.2265625	1.01708984375	-3.125	-42.25	24.9375
19	01	14	15	41	20	0.490224365546	0.168026354376	-0.0220332415292	-0.35546875	0.30810546875	0.9853515625	-6.25	-58.625	30.0625
19	01	14	15	41	20	0.495354453362	0.156308865828	-0.0280147479168	-0.283203125	0.28857421875	0.98046875	-13.9375	-75.375	34.0
19	01	14	15	41	20	0.500160842058	0.142754876092	-0.0352767500561	-0.21728515625	0.25537109375	0.98291015625	-10.1875	-85.6875	33.25
19	01	14	15	41	20	0.504504448404	0.128597976384	-0.0440663212857	-0.1953125	0.26708984375	1.00390625	-4.5	-93.75	32.75
19	01	14	15	41	20	0.508404020341	0.112971889754	-0.0531596520669	-0.17041015625	0.28662109375	1.017578125	-5.0	-101.5625	31.3125
19	01	14	15	41	20	0.512383343428	0.0962511652871	-0.0623771026781	-0.1572265625	0.24951171875	0.9970703125	-6.75	-107.75	33.375
19	01	14	15	41	20	0.516793906159	0.0783705415741	-0.0723279530882	-0.0927734375	0.20458984375	1.00537109375	-5.5625	-114.5625	38.25
19	01	14	15	41	20	0.521833993333	0.0604839166542	-0.0830662064242	-0.02734375	0.220703125	1.0224609375	-2.1875	-115.8125	44.6875
19	01	14	15	41	20	0.526976972696	0.0430907740009	-0.0939940396053	-0.01708984375	0.2529296875	1.0078125	0.0	-114.125	46.625
19	01	14	15	41	20	0.532030737898	0.0256341527953	-0.104306588398	-0.00244140625	0.27392578125	0.98583984375	-3.3125	-113.125	47.8125
19	01	14	15	41	20	0.537340895735	0.00793438396701	-0.112912387223	0.0146484375	0.24853515625	0.98828125	-11.625	-109.4375	50.5625
19	01	14	15	41	20	0.542968950249	-0.0094604527078	-0.120178266978	0.0498046875	0.2373046875	0.98583984375	-16.75	-103.375	53.4375
19	01	14	15	41	20	0.548704385696	-0.0241698483577	-0.126830668907	0.05712890625	0.25634765625	0.98291015625	-15.375	-95.8125	55.125
19	01	14	15	41	20	0.554667376699	-0.0377183581426	-0.132502517035	0.07666015625	0.283203125	0.958984375	-18.375	-87.3125	57.5
19	01	14	15	41	20	0.56097789634	-0.0507205561809	-0.136719670091	0.1123046875	0.28076171875	0.93798828125	-23.625	-79.0	59.8125
19	01	14	15	41	20	0.567604706987	-0.0631689109389	-0.139887095529	0.1494140625	0.24951171875	0.9228515625	-25.4375	-71.875	62.0625
19	01	14	15	41	20	0.574644915032	-0.074828960789	-0.14245578669	0.17529296875	0.2373046875	0.91064453125	-24.875	-65.625	64.875
19	01	14	15	41	20	0.58173002813	-0.0850225505388	-0.144898445785	0.197265625	0.251953125	0.91748046875	-22.1875	-58.5625	65.1875
19	01	14	15	41	20	0.588919700526	-0.0935045062913	-0.147092598017	0.19873046875	0.26025390625	0.9052734375	-18.625	-50.5625	65.1875
19	01	14	15	41	20	0.596364497802	-0.100157009609	-0.149228451246	0.2021484375	0.25439453125	0.904296875	-12.6875	-42.9375	65.375
19	01	14	15	41	20	0.604115696337	-0.105589023506	-0.151242543496	0.20361328125	0.2685546875	0.89892578125	-9.6875	-37.25	67.375
19	01	14	15	41	20	0.612171042544	-0.110166374057	-0.153256379644	0.23095703125	0.28076171875	0.9296875	-7.5	-33.1875	69.5625
19	01	14	15	41	20	0.620406930462	-0.114560138562	-0.15496440693	0.244140625	0.2666015625	0.95068359375	-7.25	-31.9375	70.75
19	01	14	15	41	21	0.628651259407	-0.119138568773	-0.156674542029	0.291015625	0.25048828125	0.94921875	-6.8125	-30.1875	71.6875
19	01	14	15	41	21	0.637634831994	-0.123413193289	-0.158081192195	0.3427734375	0.19921875	0.962890625	-3.0625	-25.25	76.0
19	01	14	15	41	21	0.647106006128	-0.127504663913	-0.158816244854	0.400390625	0.17138671875	0.9716796875	-3.3125	-19.0	79.5625
19	01	14	15	41	21	0.65660712514	-0.131406873064	-0.159665759376	0.43994140625	0.1611328125	0.96630859375	-1.9375	-16.9375	80.3125
19	01	14	15	41	21	0.665758664633	-0.135495437797	-0.159970064173	0.46435546875	0.16015625	0.99755859375	-5.8125	-15.3125	79.375
19	01	14	15	41	21	0.674487668389	-0.139890121794	-0.160336540119	0.48095703125	0.1611328125	1.00146484375	-7.6875	-17.1875	77.8125
19	01	14	15	41	21	0.682498496185	-0.1447761074	-0.161072574802	0.46484375	0.1884765625	0.9951171875	-11.625	-22.5625	75.4375
19	01	14	15	41	21	0.690051228851	-0.150326921693	-0.161984429628	0.4345703125	0.18798828125	0.95947265625	-14.75	-27.8125	74.1875
19	01	14	15	41	21	0.696950505296	-0.156552942121	-0.162412233522	0.3876953125	0.1591796875	0.94775390625	-18.75	-32.0625	70.9375
19	01	14	15	41	21	0.703314536413	-0.162110857304	-0.163026393019	0.35546875	0.14306640625	0.95263671875	-16.5	-33.0625	66.25
19	01	14	15	41	21	0.70901368511	-0.165642002358	-0.163994126874	0.3046875	0.11181640625	0.8984375	-6.5625	-28.5	57.0
19	01	14	15	41	21	0.714467716497	-0.168332646685	-0.164853690608	0.28662109375	0.11328125	0.8681640625	-4.5625	-24.9375	53.8125
19	01	14	15	41	21	0.720033676271	-0.171692356646	-0.16406294158	0.28076171875	0.0771484375	0.873046875	-11.75	-21.8125	56.0625
19	01	14	15	41	21	0.725719970976	-0.175356894585	-0.162112047343	0.30517578125	0.04736328125	0.87744140625	-15.9375	-16.375	57.125
19	01	14	15	41	21	0.731879714235	-0.178285434516	-0.159486422592	0.3134765625	0.0380859375	0.8583984375	-15.125	-9.875	60.5625
19	01	14	15	41	21	0.738229077151	-0.18042208781	-0.156190839887	0.31640625	0.04833984375	0.83740234375	-15.125	-2.6875	61.5625
19	01	14	15	41	21	0.744566219342	-0.182250572256	-0.151916166894	0.306640625	0.08203125	0.8193359375	-20.125	2.8125	62.6875
19	01	14	15	41	21	0.751113538524	-0.184146720764	-0.145632772868	0.2841796875	0.03955078125	0.78466796875	-25.4375	11.5	64.4375
19	01	14	15	41	21	0.757440250681	-0.185789534494	-0.138182492147	0.27880859375	-0.01611328125	0.775390625	-26.375	18.6875	61.5625
19	01	14	15	41	21	0.762803571026	-0.186459026203	-0.13012459701	0.26806640625	-0.029296875	0.86767578125	-27.125	22.0	51.75
19	01	14	15	41	21	0.766128519181	-0.187259583879	-0.124209013427	0.279296875	-0.01708984375	0.87060546875	-25.25	14.4375	34.6875
19	01	14	15	41	21	0.76889228844	-0.190910865077	-0.115291120246	0.23095703125	-0.08935546875	0.89990234375	-46.1875	14.375	34.625
19	01	14	15	41	21	0.772887983487	-0.19506830887	-0.105407687553	0.30078125	-0.24267578125	0.94091796875	-41.0	19.75	45.0625
19	01	14	15	41	21	0.777392284621	-0.194454880961	-0.0982650214525	0.28857421875	-0.2177734375	0.8837890625	-11.6875	26.125	40.4375
19	01	14	15	41	21	0.781304762866	-0.193113684064	-0.090758548737	0.14794921875	-0.1923828125	0.9619140625	-14.125	20.6875	33.4375
19	01	14	15	41	21	0.784980608793	-0.192933963486	-0.0825813516598	0.08984375	-0.2578125	0.9560546875	-17.8125	17.0625	32.75
19	01	14	15	41	21	0.789749419403	-0.192020378193	-0.0758071550273	0.24853515625	-0.25537109375	0.87841796875	-7.875	24.6875	44.1875
19	01	14	15	41	21	0.795039815157	-0.189940419528	-0.0705562740919	0.388671875	-0.1796875	0.8642578125	-1.3125	31.5625	50.9375
19	01	14	15	41	21	0.798839689469	-0.187624786478	-0.0666513555089	0.3701171875	-0.064453125	0.935546875	-7.25	25.25	38.875
19	01	14	15	41	21	0.802547780532	-0.187926429102	-0.0615231700339	0.3115234375	-0.208984375	0.87646484375	-13.125	19.875	40.0
19	01	14	15	41	21	0.806450799022	-0.188658095798	-0.0545649749736	0.22412109375	-0.3154296875	0.916015625	-15.1875	20.8125	41.25
19	01	14	15	41	21	0.80995395012	-0.187381961331	-0.0495616132251	0.146484375	-0.32666015625	0.99169921875	-0.75	13.1875	31.375
19	01	14	15	41	21	0.814474658679	-0.183171346725	-0.0467541658085	0.19189453125	-0.22802734375	0.99755859375	14.25	15.5625	38.375
19	01	14	15	41	21	0.820082715163	-0.17920235574	-0.0466927119008	0.32861328125	-0.1640625	0.87109375	21.9375	11.4375	52.0625
19	01	14	15	41	21	0.824882160979	-0.174680928207	-0.0484004109254	0.3486328125	-0.09814453125	0.87255859375	24.875	7.75	44.1875
19	01	14	15	41	21	0.82947382683	-0.170838649102	-0.0499881577758	0.31787109375	-0.05615234375	0.8447265625	19.375	4.625	44.0625
19	01	14	15	41	21	0.835050735668	-0.16754727501	-0.049623291287	0.29541015625	0.0068359375	0.8642578125	7.75	9.5	58.0
19	01	14	15	41	21	0.84185774394	-0.163879362175	-0.048095693629	0.25732421875	0.02490234375	0.79150390625	7.9375	13.8125	71.6875
19	01	14	15	41	21	0.848320951254	-0.161009473301	-0.0452266943578	0.11328125	-0.14990234375	0.91943359375	9.4375	7.0	66.375
19	01	14	15	41	21	0.855238210562	-0.155459015294	-0.0443122281522	0.1015625	-0.09716796875	0.9248046875	25.3125	4.9375	68.0625
19	01	14	15	41	21	0.863528334088	-0.148132829151	-0.0419312952727	0.08740234375	-0.09765625	0.88720703125	32.6875	15.75	82.875
19	01	14	15	41	21	0.873014334738	-0.137821881272	-0.0357677690104	-0.00244140625	-0.01025390625	0.88720703125	33.375	37.3125	97.0625
19	01	14	15	41	21	0.882101040294	-0.128909313389	-0.0258184846419	-0.0771484375	-0.0654296875	0.947265625	19.3125	48.3125	98.9375
19	01	14	15	41	21	0.890577575648	-0.122377358589	-0.0164187079603	0.06103515625	-0.18212890625	0.9619140625	16.75	53.4375	101.6875
19	01	14	15	41	21	0.898564892718	-0.112793636853	-0.00439455727997	-0.08447265625	-0.30224609375	0.95947265625	32.875	64.0625	93.625
19	01	14	15	41	21	0.905122710751	-0.102847917433	0.00878937692009	-0.119140625	-0.2587890625	1.0576171875	27.4375	71.25	81.125
19	01	14	15	41	21	0.911221766689	-0.0925931690044	0.0220343665198	-0.078125	-0.10888671875	1.04345703125	18.4375	77.6875	82.1875
19	01	14	15	41	21	0.916449504598	-0.0854498372586	0.0363772164329	-0.1552734375	-0.220703125	1.03466796875	7.5625	73.8125	78.4375
19	01	14	15	41	21	0.920271674912	-0.0787949815832	0.0470572663057	-0.08056640625	-0.265625	1.06298828125	16.0	62.3125	61.25
19	01	14	15	41	22	0.923584703465	-0.0724487868764	0.0567017043034	-0.06591796875	-0.20654296875	1.072265625	12.875	59.5	56.3125
19	01	14	15	41	22	0.926175989971	-0.0674459251956	0.0654927400316	-0.06494140625	-0.18212890625	1.1279296875	5.1875	54.6875	47.75
19	01	14	15	41	22	0.928377726203	-0.0652489013354	0.0728785670668	-0.05419921875	-0.20458984375	1.18994140625	-5.875	43.75	44.5
19	01	14	15	41	22	0.930617071532	-0.062623015373	0.0796520809569	-0.02392578125	-0.12939453125	1.09375	-6.3125	44.5	45.125
19	01	14	15	41	22	0.932242926472	-0.0612787677215	0.0860588271786	-0.05810546875	-0.15283203125	1.08154296875	-10.625	39.0	36.625
19	01	14	15	41	22	0.933853415234	-0.0598764836827	0.0873427606013	0.13818359375	-0.15283203125	1.14306640625	-0.1875	26.6875	31.125
19	01	14	15	41	22	0.936108531214	-0.0567024076089	0.0847179136288	0.30322265625	-0.1494140625	1.17138671875	16.875	20.3125	36.75
19	01	14	15	41	22	0.938468995288	-0.0537715390771	0.0828850738554	0.1650390625	-0.20703125	1.11767578125	19.3125	13.8125	39.4375
19	01	14	15	41	22	0.940385546722	-0.0534677574433	0.0833144850571	-0.12109375	-0.1435546875	1.0771484375	-3.25	1.0	33.5625
19	01	14	15	41	22	0.942167223153	-0.0579241186041	0.0838038091079	-0.2587890625	-0.236328125	1.02783203125	-22.625	-17.3125	33.4375
19	01	14	15	41	22	0.943507574992	-0.0574967095124	0.089357943446	-0.51708984375	-0.21630859375	0.74267578125	-3.875	-0.25	29.6875
19	01	14	15	41	22	0.944739284413	-0.0572532270823	0.102787243504	-0.61328125	0.02294921875	0.82177734375	-37.625	37.1875	42.25
19	01	14	15	41	22	0.946896717319	-0.0651853612284	0.10778777896	-0.04443359375	-0.130859375	1.2109375	-64.25	19.6875	56.4375
19	01	14	15	41	22	0.94849378896	-0.0687261265359	0.107788933803	0.1884765625	-0.091796875	1.22900390625	-33.0625	17.8125	36.375
19	01	14	15	41	22	0.950197682374	-0.064331215135	0.109314237483	0.11767578125	-0.1416015625	1.13037109375	13.5625	34.0	37.625
19	01	14	15	41	22	0.950618778231	-0.0567624695829	0.108092831862	-0.015625	-0.1357421875	1.08447265625	39.9375	17.8125	2.875
19	01	14	15	41	22	0.950537381194	-0.048524832598	0.104801430907	-0.12548828125	-0.19140625	1.12451171875	53.1875	1.8125	-11.5
19	01	14	15	41	22	0.950988261153	-0.0408324977031	0.0968017060643	-0.22021484375	0.009765625	1.2705078125	43.9375	-31.375	-12.75
19	01	14	15	41	22	0.95208618402	-0.0411376426713	0.0839232324525	-0.03173828125	0.046875	1.25048828125	5.75	-61.5	-4.1875
19	01	14	15	41	22	0.952846755648	-0.0471204724464	0.0678119752434	0.0625	-0.1279296875	1.26025390625	-8.0	-84.625	-8.5625
19	01	14	15	41	22	0.952871672735	-0.0528559357282	0.0498042073374	0.17578125	-0.20947265625	1.1630859375	3.75	-89.5625	-18.3125
19	01	14	15	41	22	0.952689159936	-0.056212871824	0.0330197216686	0.138671875	-0.10888671875	1.12939453125	8.0625	-84.5625	-17.4375
19	01	14	15	41	22	0.951780951898	-0.0641478633093	0.0172729260861	0.1708984375	-0.125	1.1611328125	-18.3125	-86.875	-21.25
19	01	14	15	41	22	0.949447881393	-0.0769690632232	0.00201425780045	0.16650390625	-0.31982421875	1.20556640625	-34.5	-95.1875	-36.25
19	01	14	15	41	22	0.946273694926	-0.0878948668447	-0.0142218777603	0.15771484375	-0.4296875	1.21142578125	-28.625	-103.625	-48.5625
19	01	14	15	41	22	0.942731735894	-0.0979659719074	-0.031556640172	0.2138671875	-0.3857421875	1.1513671875	-22.75	-107.6875	-49.1875
19	01	14	15	41	22	0.939092647946	-0.107971850657	-0.0485232454905	0.2236328125	-0.2685546875	1.08544921875	-24.6875	-107.0	-43.4375
19	01	14	15	41	22	0.93498436649	-0.118711703951	-0.0657949701075	0.2412109375	-0.22607421875	1.0419921875	-29.3125	-110.5625	-42.4375
19	01	14	15	41	22	0.930629561375	-0.129642368227	-0.0828881054862	0.2724609375	-0.21240234375	0.98828125	-31.0	-110.5	-38.8125
19	01	14	15	41	22	0.926145582327	-0.14025850456	-0.100280558308	0.29443359375	-0.232421875	0.94580078125	-27.8125	-112.1875	-34.8125
19	01	14	15	41	22	0.921394335413	-0.150086689903	-0.118165039306	0.3173828125	-0.1982421875	0.90576171875	-23.4375	-114.25	-33.75
19	01	14	15	41	22	0.916556045133	-0.157957451209	-0.135191558898	0.36572265625	-0.15283203125	0.84130859375	-15.3125	-104.8125	-35.3125
19	01	14	15	41	22	0.91199813245	-0.163148909653	-0.150026195259	0.3740234375	-0.171875	0.84423828125	-5.5625	-87.625	-36.4375
19	01	14	15	41	22	0.908506075509	-0.164550378204	-0.162414152968	0.3369140625	-0.21337890625	0.7900390625	14.25	-69.4375	-34.3125
19	01	14	15	41	22	0.906089115358	-0.164310670161	-0.173038911555	0.31787109375	-0.19970703125	0.77978515625	21.75	-59.75	-23.8125
19	01	14	15	41	22	0.904721645574	-0.163695841154	-0.182738757799	0.3759765625	-0.13818359375	0.7822265625	21.375	-52.5625	-6.625
19	01	14	15	41	22	0.903704553239	-0.163455409535	-0.190921777829	0.4287109375	-0.166015625	0.80322265625	19.4375	-44.0	-1.8125
19	01	14	15	41	22	0.902545089094	-0.164554105647	-0.197452719498	0.4716796875	-0.20361328125	0.83154296875	10.3125	-37.375	-2.8125
19	01	14	15	41	22	0.90133170833	-0.166325516706	-0.203130759486	0.4775390625	-0.16015625	0.8173828125	2.5625	-33.6875	-0.5
19	01	14	15	41	22	0.899993180192	-0.169500241532	-0.207831588915	0.49072265625	-0.115234375	0.80615234375	-9.8125	-31.125	2.5
19	01	14	15	41	22	0.898669747624	-0.173703755891	-0.211789189368	0.48095703125	-0.1240234375	0.78759765625	-15.625	-30.4375	5.0625
19	01	14	15	41	22	0.897162295724	-0.17822395425	-0.215272563917	0.47998046875	-0.13916015625	0.8193359375	-19.0625	-29.9375	2.6875
19	01	14	15	41	22	0.895991051977	-0.181334428844	-0.218504629842	0.47705078125	-0.12841796875	0.79345703125	-12.5625	-25.5	2.9375
19	01	14	15	41	22	0.895446181904	-0.18298327676	-0.221435399628	0.4638671875	-0.1357421875	0.74072265625	-3.0	-20.0	5.5625
19	01	14	15	41	22	0.895253796757	-0.183896897302	-0.223325173325	0.43994140625	-0.13623046875	0.70654296875	-0.4375	-13.4375	5.375
19	01	14	15	41	22	0.895828127707	-0.18365788896	-0.223514519566	0.4345703125	-0.154296875	0.70458984375	4.5625	-1.75	8.4375
19	01	14	15	41	22	0.897405858091	-0.181641830489	-0.222047372083	0.43701171875	-0.1630859375	0.6748046875	12.75	11.9375	12.4375
19	01	14	15	41	22	0.899666627208	-0.178834682342	-0.218080655293	0.4169921875	-0.14111328125	0.6708984375	11.6875	27.1875	14.75
19	01	14	15	41	22	0.903039057345	-0.176274200582	-0.209295094805	0.373046875	-0.14306640625	0.66064453125	2.75	51.4375	23.25
19	01	14	15	41	22	0.908015894432	-0.178160811713	-0.193541601213	0.28564453125	-0.00244140625	0.74755859375	-38.8125	71.375	57.625
19	01	14	15	41	22	0.90762141902	-0.188360437061	-0.180303542151	-0.27001953125	-0.041015625	0.87451171875	-92.375	8.625	4.0
19	01	14	15	41	23	0.907584452796	-0.203184172385	-0.170347559365	-0.03271484375	-0.89208984375	1.17529296875	-59.5625	-18.75	15.875
19	01	14	15	41	23	0.910418288129	-0.20251862966	-0.181339014081	0.8662109375	-0.7890625	1.0556640625	69.1875	-50.75	54.0
19	01	14	15	41	23	0.912438667707	-0.192204787251	-0.194096927106	1.0830078125	-0.23046875	0.86865234375	85.875	-18.0625	26.0
19	01	14	15	41	23	0.916328672554	-0.180360436115	-0.198549068928	0.71435546875	-0.1826171875	0.87890625	79.875	7.625	32.0
19	01	14	15	41	23	0.918355859222	-0.178165675467	-0.19659871212	0.447265625	-0.13037109375	0.84375	9.6875	11.875	24.75
19	01	14	15	41	23	0.919577943338	-0.182011245655	-0.191655033989	0.25048828125	-0.28955078125	0.94873046875	-21.375	2.4375	21.625
19	01	14	15	41	23	0.920451019131	-0.189448973104	-0.188411398187	0.40283203125	-0.5361328125	0.892578125	-20.375	-4.375	31.3125
19	01	14	15	41	23	0.922011690489	-0.192446899253	-0.186953648085	0.453125	-0.49072265625	0.84375	4.625	-1.5625	32.125
19	01	14	15	41	23	0.924704350637	-0.188664102166	-0.187321297169	0.4423828125	-0.37060546875	0.740234375	40.125	2.9375	30.875
19	01	14	15	41	23	0.927303353174	-0.185790259136	-0.186827852568	0.45556640625	-0.203125	0.68896484375	24.625	8.875	38.1875
19	01	14	15	41	23	0.928769521295	-0.187133295149	-0.185424315285	0.41162109375	-0.1962890625	0.76318359375	-3.9375	2.625	33.5625
19	01	14	15	41	23	0.929586786134	-0.190800281908	-0.184635589498	0.38623046875	-0.2314453125	0.80712890625	-15.1875	-7.5625	32.625
19	01	14	15	41	23	0.930126878845	-0.195315047726	-0.18579343915	0.4677734375	-0.2919921875	0.78076171875	-12.5	-15.125	37.5625
19	01	14	15	41	23	0.930286503566	-0.196530805766	-0.189450814005	0.58056640625	-0.35009765625	0.8203125	8.8125	-17.0625	20.5
19	01	14	15	41	23	0.931178378282	-0.193181670639	-0.192937523188	0.53564453125	-0.23193359375	0.8115234375	26.125	-10.625	15.0
19	01	14	15	41	23	0.932343769932	-0.19153484452	-0.194098408405	0.46533203125	-0.1640625	0.8603515625	9.9375	-6.625	24.0
19	01	14	15	41	23	0.933248138265	-0.191959803456	-0.195316811148	0.4990234375	-0.27587890625	0.88623046875	5.4375	-10.125	27.5625
19	01	14	15	41	23	0.934539792594	-0.192267020225	-0.196356509227	0.57080078125	-0.35986328125	0.89794921875	12.8125	-6.0625	34.375
19	01	14	15	41	23	0.936544590942	-0.190678134913	-0.196720751864	0.54052734375	-0.27392578125	0.82373046875	20.0625	0.5	41.75
19	01	14	15	41	23	0.93896775403	-0.189941994965	-0.194336539836	0.38671875	-0.21337890625	0.77197265625	10.25	6.6875	47.125
19	01	14	15	41	23	0.940550680387	-0.192199486862	-0.192199486862	0.34326171875	-0.28173828125	0.814453125	-4.375	-1.8125	43.9375
19	01	14	15	41	23	0.941757868187	-0.194149823636	-0.191952592058	0.4560546875	-0.29150390625	0.7841796875	-0.1875	-4.5625	43.75
19	01	14	15	41	23	0.943251077457	-0.194582919305	-0.191286972742	0.41455078125	-0.2763671875	0.7998046875	6.25	-2.6875	41.0625
19	01	14	15	41	23	0.945184295976	-0.192503633573	-0.190550521247	0.3896484375	-0.294921875	0.8193359375	20.6875	-0.6875	37.1875
19	01	14	15	41	23	0.946709341491	-0.191038633155	-0.190367251377	0.4560546875	-0.3623046875	0.91552734375	19.3125	-3.0	32.5625
19	01	14	15	41	23	0.948776006136	-0.18836353287	-0.189584294587	0.49169921875	-0.37109375	0.947265625	26.75	2.3125	40.25
19	01	14	15	41	23	0.951732313639	-0.185243864035	-0.185671115122	0.3916015625	-0.298828125	0.9111328125	25.6875	15.25	52.6875
19	01	14	15	41	23	0.954552952272	-0.184452907588	-0.180424485384	0.3671875	-0.36767578125	0.88720703125	17.125	19.0	60.4375
19	01	14	15	41	23	0.956867523726	-0.184940268986	-0.175357555378	0.41552734375	-0.32470703125	0.89013671875	6.375	20.625	61.0
19	01	14	15	41	23	0.958856693061	-0.186949589487	-0.169676741356	0.3203125	-0.33447265625	0.83154296875	-1.625	18.875	60.6875
19	01	14	15	41	23	0.960849703476	-0.188117061753	-0.163763165698	0.294921875	-0.3525390625	0.89208984375	1.625	19.5625	57.25
19	01	14	15	41	23	0.962141043831	-0.189889030474	-0.16004147795	0.3515625	-0.462890625	0.8955078125	4.5625	10.875	49.25
19	01	14	15	41	23	0.963196857503	-0.190185755528	-0.158020192895	0.3828125	-0.42236328125	0.97705078125	7.625	4.5	39.8125
19	01	14	15	41	23	0.964126052204	-0.189456018362	-0.157717252399	0.45703125	-0.369140625	0.94287109375	12.0625	0.9375	40.625
19	01	14	15	41	23	0.965044949639	-0.188419060119	-0.157351583086	0.43017578125	-0.36572265625	0.96533203125	12.375	-0.1875	38.125
19	01	14	15	41	23	0.965924344459	-0.187313396509	-0.156918456313	0.3642578125	-0.35986328125	0.91943359375	13.1875	-2.25	35.8125
19	01	14	15	41	23	0.966563689659	-0.187074874262	-0.156556950238	0.36669921875	-0.33740234375	0.9072265625	6.5625	-2.625	35.875
19	01	14	15	41	23	0.966703300001	-0.18793278575	-0.157170160216	0.38671875	-0.34619140625	0.92919921875	-0.5625	-6.625	29.8125
19	01	14	15	41	23	0.966855030509	-0.188109791303	-0.158507828687	0.4140625	-0.34814453125	0.9228515625	3.9375	-9.5	30.875
19	01	14	15	41	23	0.966876000837	-0.189151488327	-0.158999556984	0.3173828125	-0.25341796875	0.87939453125	-7.375	-8.6875	27.125
19	01	14	15	41	23	0.967067396073	-0.189519330018	-0.159489213957	0.30029296875	-0.26611328125	0.82958984375	-0.5	-9.3125	30.9375
19	01	14	15	41	23	0.967360584687	-0.189639052093	-0.159121019893	0.2001953125	-0.2158203125	0.83056640625	-3.5	-9.625	24.875
19	01	14	15	41	23	0.967101636467	-0.190063395138	-0.16137688399	0.3193359375	-0.298828125	0.89794921875	-2.4375	-18.125	19.0625
19	01	14	15	41	23	0.966863190477	-0.189271053195	-0.164734786383	0.37548828125	-0.30419921875	0.8935546875	4.9375	-20.125	16.5
19	01	14	15	41	23	0.966963457163	-0.188424201001	-0.16608430545	0.19287109375	-0.31396484375	0.88134765625	5.9375	-20.125	14.5625
19	01	14	15	41	23	0.967494927756	-0.186772725944	-0.166203311354	0.18896484375	-0.3583984375	0.89599609375	15.3125	-15.3125	25.1875
19	01	14	15	41	23	0.967528138086	-0.187316670186	-0.166320601582	0.2265625	-0.443359375	0.93603515625	5.0	-13.25	19.0625
19	01	14	15	41	23	0.968064379238	-0.185361044054	-0.166257321042	0.34375	-0.53662109375	0.95556640625	25.5	-4.8125	19.625
19	01	14	15	41	23	0.968926518094	-0.182921119668	-0.164549662537	0.3076171875	-0.31005859375	0.99609375	12.5	2.6875	21.0625
19	01	14	15	41	24	0.968454390278	-0.18383970653	-0.166749693971	0.5087890625	-0.49755859375	1.19873046875	-0.9375	-12.75	16.75
19	01	14	15	41	24	0.967826154957	-0.183348033644	-0.171263176566	0.611328125	-0.509765625	1.11279296875	9.75	-17.4375	15.125
19	01	14	15	41	24	0.968343117663	-0.182743100806	-0.169498193366	0.31689453125	-0.37841796875	0.92822265625	9.5	2.25	30.125
19	01	14	15	41	24	0.968069875156	-0.187254169156	-0.166380334132	0.19775390625	-0.33642578125	0.923828125	-24.4375	3.4375	26.9375
19	01	14	15	41	24	0.966716207902	-0.194527374327	-0.166083773311	0.34228515625	-0.4072265625	0.91259765625	-37.4375	-3.75	27.9375
19	01	14	15	41	24	0.965421284758	-0.201238792176	-0.16571529292	0.3740234375	-0.34130859375	0.8779296875	-38.125	-1.0625	32.125
19	01	14	15	41	24	0.964478575633	-0.20550559196	-0.165954768203	0.4140625	-0.24853515625	0.8388671875	-28.625	-1.375	34.6875
19	01	14	15	41	24	0.963856814106	-0.20777459282	-0.16657369677	0.42529296875	-0.24169921875	0.7919921875	-16.5625	-2.3125	36.8125
19	01	14	15	41	24	0.963466695623	-0.209295362641	-0.166569566826	0.30908203125	-0.2705078125	0.73876953125	-8.5	-4.6875	35.125
19	01	14	15	41	24	0.962948684526	-0.210936848179	-0.166930636507	0.22607421875	-0.34423828125	0.74072265625	-5.0625	-11.875	31.6875
19	01	14	15	41	24	0.962178415735	-0.211186077039	-0.170352699716	0.3896484375	-0.36767578125	0.77392578125	1.6875	-19.875	27.6875
19	01	14	15	41	24	0.961918783676	-0.209351613452	-0.173279659065	0.34716796875	-0.27490234375	0.7431640625	9.0625	-18.6875	25.75
19	01	14	15	41	24	0.961671308305	-0.208008112383	-0.175232186224	0.2939453125	-0.259765625	0.744140625	6.125	-16.9375	29.4375
19	01	14	15	41	24	0.961176402132	-0.20672494755	-0.178343754574	0.33642578125	-0.326171875	0.77734375	7.9375	-21.9375	25.6875
19	01	14	15	41	24	0.960891293447	-0.204348856664	-0.181460319851	0.30810546875	-0.33203125	0.80224609375	13.625	-23.9375	21.4375
19	01	14	15	41	24	0.960640177628	-0.201905947493	-0.184266643132	0.26611328125	-0.33984375	0.87060546875	12.9375	-26.4375	19.8125
19	01	14	15	41	24	0.960146770302	-0.200134845834	-0.187561567932	0.26611328125	-0.39013671875	0.92333984375	9.75	-30.25	15.9375
19	01	14	15	41	24	0.95986197048	-0.197575556304	-0.190251161261	0.2998046875	-0.46875	0.9453125	19.25	-26.0625	18.375
19	01	14	15	41	24	0.959650191923	-0.195616540426	-0.191832382701	0.21875	-0.50146484375	0.9453125	18.4375	-24.6875	15.875
19	01	14	15	41	24	0.959392157986	-0.193367753944	-0.194039169757	0.3798828125	-0.43798828125	1.03515625	12.875	-20.125	17.0
19	01	14	15	41	24	0.95920123091	-0.190619500104	-0.196295969367	0.49169921875	-0.36865234375	1.02294921875	12.0	-14.0	20.5
19	01	14	15	41	24	0.959268007759	-0.188789510562	-0.196236106194	0.28955078125	-0.3896484375	1.05615234375	9.0625	-13.1875	18.5
19	01	14	15	41	24	0.959090747648	-0.187264711626	-0.196481455908	0.40380859375	-0.49755859375	1.02490234375	15.4375	-8.5	26.125
19	01	14	15	41	24	0.958784642985	-0.188180102771	-0.194955318926	0.3603515625	-0.48583984375	0.9765625	3.1875	0.8125	28.9375
19	01	14	15	41	24	0.958413969572	-0.190925926431	-0.192024605036	0.23046875	-0.45654296875	1.03955078125	-10.6875	1.6875	27.0
19	01	14	15	41	24	0.957515784098	-0.193968967482	-0.191344466034	0.3916015625	-0.4296875	1.02099609375	-16.25	-0.75	30.0625
19	01	14	15	41	24	0.956623374593	-0.195560600536	-0.191776344221	0.494140625	-0.3408203125	0.95166015625	-12.1875	-0.125	34.375
19	01	14	15	41	24	0.95581240199	-0.197082902045	-0.191772833145	0.34521484375	-0.29736328125	0.83935546875	-10.875	-4.125	31.1875
19	01	14	15	41	24	0.955120655937	-0.197823750376	-0.191536849331	0.31396484375	-0.30419921875	0.78662109375	-4.0625	-3.875	32.5625
19	01	14	15	41	24	0.954372947903	-0.19879717903	-0.190862382201	0.3095703125	-0.34765625	0.755859375	-1.0625	-1.8125	35.375
19	01	14	15	41	24	0.953710543715	-0.199653580064	-0.189887584096	0.23828125	-0.341796875	0.802734375	-2.6875	-4.5	32.0625
19	01	14	15	41	24	0.952813081957	-0.199583548652	-0.191343860863	0.37646484375	-0.3154296875	0.85546875	-3.4375	-11.0625	29.5625
19	01	14	15	41	24	0.952005913704	-0.198250638438	-0.193306580028	0.38037109375	-0.26220703125	0.8095703125	1.875	-14.0	30.6875
19	01	14	15	41	24	0.951043898667	-0.197203365203	-0.195067148	0.28125	-0.28955078125	0.75927734375	3.875	-18.0625	31.375
19	01	14	15	41	24	0.949805689916	-0.196907213911	-0.19794485267	0.2734375	-0.27294921875	0.74560546875	-2.9375	-23.25	25.75
19	01	14	15	41	24	0.948700805314	-0.195624144697	-0.200507118668	0.2607421875	-0.28515625	0.78271484375	3.25	-25.125	27.6875
19	01	14	15	41	24	0.94768324199	-0.19347947943	-0.20379431603	0.26904296875	-0.2861328125	0.83544921875	4.875	-29.4375	22.4375
19	01	14	15	41	24	0.9468791724	-0.189583362952	-0.207467434216	0.35009765625	-0.322265625	0.88037109375	15.5	-29.8125	21.625
19	01	14	15	41	24	0.946377720601	-0.184514662972	-0.210333287661	0.404296875	-0.31787109375	0.9208984375	22.3125	-24.1875	23.5
19	01	14	15	41	24	0.945902574874	-0.180854960918	-0.211740080805	0.31005859375	-0.36328125	0.9765625	17.25	-21.9375	22.125
19	01	14	15	41	24	0.944851818276	-0.178655120936	-0.213751360956	0.38818359375	-0.46484375	0.9873046875	14.9375	-20.875	27.0
19	01	14	15	41	24	0.943643111539	-0.177558720017	-0.215951444284	0.40283203125	-0.40234375	0.9775390625	4.0625	-19.1875	26.25
19	01	14	15	41	24	0.942495329243	-0.176633951744	-0.217099850157	0.36962890625	-0.3359375	0.927734375	2.375	-14.875	31.375
19	01	14	15	41	24	0.941043911074	-0.1776740709	-0.217957439775	0.35986328125	-0.3359375	0.88623046875	-7.5	-11.0625	33.5
19	01	14	15	41	24	0.9393981528	-0.179505553076	-0.219605909543	0.33837890625	-0.36376953125	0.8818359375	-12.5	-14.8125	27.75
19	01	14	15	41	24	0.937939351469	-0.17999499886	-0.221316332949	0.30517578125	-0.3515625	0.87646484375	-5.6875	-18.6875	26.0
19	01	14	15	41	24	0.936428588102	-0.17932650188	-0.223944498093	0.36376953125	-0.35400390625	0.873046875	-0.25	-21.5	26.25
19	01	14	15	41	24	0.935226796729	-0.176827570169	-0.226756790879	0.37451171875	-0.3271484375	0.884765625	7.4375	-24.1875	22.6875
19	01	14	15	41	24	0.934479199327	-0.172185879902	-0.229072530051	0.3984375	-0.3125	0.9287109375	18.4375	-23.4375	21.75
19	01	14	15	41	24	0.933840746747	-0.167664087014	-0.230591525569	0.3818359375	-0.36865234375	0.966796875	21.5	-21.0625	20.6875
19	01	14	15	41	25	0.932997210914	-0.164064928885	-0.231204594723	0.37109375	-0.41259765625	1.01220703125	20.5	-17.875	26.1875
19	01	14	15	41	25	0.931686756593	-0.162666745697	-0.23243338372	0.3857421875	-0.48095703125	1.0703125	9.0625	-19.5625	25.1875
19	01	14	15	41	25	0.930369043579	-0.161073535787	-0.233400985544	0.392578125	-0.443359375	1.03125	10.0	-17.0	28.125
19	01	14	15	41	25	0.928858724883	-0.160771052789	-0.233526973413	0.3623046875	-0.39697265625	0.97216796875	3.4375	-11.625	34.3125
19	01	14	15	41	25	0.927261885307	-0.161867991037	-0.233890701981	0.3330078125	-0.36181640625	0.93994140625	-7.25	-11.25	30.8125
19	01	14	15	41	25	0.925630087861	-0.162237044084	-0.234505163044	0.3837890625	-0.3564453125	0.94775390625	-3.9375	-11.0	32.5625
19	01	14	15	41	25	0.924153924755	-0.161929883256	-0.235112668791	0.3876953125	-0.298828125	0.9140625	-3.125	-10.25	32.125
19	01	14	15	41	25	0.922792476505	-0.160644870571	-0.23535205962	0.3642578125	-0.296875	0.90771484375	3.1875	-10.875	32.5
19	01	14	15	41	25	0.921287943873	-0.159794079572	-0.235906843982	0.33251953125	-0.32373046875	0.8623046875	2.875	-12.6875	30.3125
19	01	14	15	41	25	0.919822190968	-0.159122525007	-0.236272840162	0.283203125	-0.33056640625	0.857421875	2.9375	-14.0625	28.3125
19	01	14	15	41	25	0.918353898825	-0.157596023313	-0.237309581193	0.33740234375	-0.31396484375	0.84130859375	5.3125	-15.1875	27.75
19	01	14	15	41	25	0.916773219294	-0.155827032547	-0.238592976979	0.3291015625	-0.294921875	0.84228515625	5.0	-17.8125	28.0625
19	01	14	15	41	25	0.914989995028	-0.154665108892	-0.240847876752	0.353515625	-0.287109375	0.8388671875	-0.625	-20.3125	26.5
19	01	14	15	41	25	0.913355663695	-0.152470091413	-0.242987763778	0.35546875	-0.28125	0.87109375	3.625	-22.0625	25.125
19	01	14	15	41	25	0.911692292446	-0.150758516592	-0.244814740912	0.32177734375	-0.3095703125	0.91259765625	2.125	-22.75	24.25
19	01	14	15	41	25	0.909811736007	-0.148624149817	-0.247564497601	0.41650390625	-0.36279296875	0.9609375	4.25	-24.4375	24.6875
19	01	14	15	41	25	0.908118145006	-0.145452718077	-0.24927775939	0.43212890625	-0.3115234375	0.9580078125	9.625	-20.6875	28.875
19	01	14	15	41	25	0.906149684458	-0.144351610113	-0.251165697935	0.41259765625	-0.33154296875	0.9287109375	-0.125	-18.4375	29.125
19	01	14	15	41	25	0.904299063023	-0.143310893627	-0.252625122965	0.369140625	-0.404296875	0.94775390625	3.75	-18.625	25.25
19	01	14	15	41	25	0.902633284794	-0.142829448635	-0.253430713989	0.32568359375	-0.35107421875	0.9326171875	-1.0	-16.375	24.625
19	01	14	15	41	25	0.900678957564	-0.143012388017	-0.25520050973	0.37109375	-0.38037109375	0.953125	-6.0	-18.0	24.125
19	01	14	15	41	25	0.898821507706	-0.141543329918	-0.257390350265	0.4619140625	-0.33837890625	0.92236328125	0.125	-17.1875	25.625
19	01	14	15	41	25	0.896980620782	-0.140992462847	-0.258913431774	0.3544921875	-0.283203125	0.8935546875	-5.4375	-17.75	25.5
19	01	14	15	41	25	0.894983977126	-0.140812114522	-0.260749611286	0.29638671875	-0.36474609375	0.865234375	-3.1875	-21.5	22.1875
19	01	14	15	41	25	0.89296452002	-0.140506105611	-0.263433688886	0.37158203125	-0.4013671875	0.89208984375	-3.625	-22.125	19.0625
19	01	14	15	41	25	0.890891798569	-0.140323393047	-0.266608343118	0.392578125	-0.42041015625	0.96484375	-7.375	-25.5625	17.4375
19	01	14	15	41	25	0.888812139901	-0.141238242805	-0.270696459309	0.4306640625	-0.37939453125	0.9833984375	-20.25	-25.5625	14.625
19	01	14	15	41	25	0.886466330436	-0.143248173887	-0.275754260597	0.541015625	-0.44287109375	1.029296875	-27.25	-23.875	14.25
19	01	14	15	41	25	0.884750778894	-0.146492022721	-0.280776376882	0.390625	-0.4970703125	1.01513671875	-33.8125	-27.625	-2.3125
19	01	14	15	41	25	0.882877391487	-0.15026921105	-0.286927522806	0.38330078125	-0.65576171875	1.048828125	-33.25	-34.0	-11.25
19	01	14	15	41	25	0.881127564867	-0.153019313184	-0.295601329776	0.45068359375	-0.65869140625	0.98291015625	-35.5625	-42.0	-24.8125
19	01	14	15	41	25	0.880938246652	-0.153384453255	-0.300421121736	0.38232421875	-0.51904296875	0.9716796875	-21.9375	-28.75	-26.3125
19	01	14	15	41	25	0.880599164369	-0.154060601017	-0.305374479749	0.33251953125	-0.3984375	0.794921875	-24.9375	-27.5625	-23.8125
19	01	14	15	41	25	0.880342278931	-0.155218083292	-0.310375129194	0.29443359375	-0.44775390625	0.814453125	-26.8125	-29.4375	-29.125
19	01	14	15	41	25	0.879913899343	-0.155400998039	-0.315501869153	0.384765625	-0.30712890625	0.7451171875	-26.375	-26.25	-20.375
19	01	14	15	41	25	0.878933528471	-0.156926257062	-0.321237997246	0.43408203125	-0.30078125	0.70849609375	-33.9375	-25.0625	-14.8125
