18	12	13	16	04	10	-0.372192953369	-0.175720484216	-0.472534904064	-0.68896484375	-0.5390625	0.43359375	16.5	16.0	-29.25
18	12	13	16	04	10	-0.368456832167	-0.175287066752	-0.47325066699	-0.6953125	-0.59912109375	0.5439453125	0.875	8.3125	-25.375
18	12	13	16	04	10	-0.362921035847	-0.174685503632	-0.471931626164	-0.56689453125	-0.6455078125	0.46337890625	22.1875	6.5	-28.9375
18	12	13	16	04	10	-0.357300078883	-0.176513807333	-0.471191767847	-0.75390625	-0.6103515625	0.36865234375	24.875	8.625	-31.25
18	12	13	16	04	10	-0.352285172454	-0.177912556775	-0.469164262067	-0.75244140625	-0.52978515625	0.474609375	23.3125	6.875	-33.1875
18	12	13	16	04	10	-0.349060988998	-0.17846727257	-0.467408472416	-0.69287109375	-0.4775390625	0.4912109375	14.1875	1.8125	-25.4375
18	12	13	16	04	10	-0.344969227821	-0.179686731547	-0.466672808903	-0.69970703125	-0.6396484375	0.5244140625	14.8125	10.9375	-21.5625
18	12	13	16	04	10	-0.338624050378	-0.182007375311	-0.46624894031	-0.755859375	-0.68359375	0.45849609375	23.375	16.9375	-31.0625
18	12	13	16	04	10	-0.333250626633	-0.184386473087	-0.466062597979	-0.79638671875	-0.6455078125	0.48779296875	17.125	16.125	-28.75
18	12	13	16	04	10	-0.330016451167	-0.187133426906	-0.463805254748	-0.73974609375	-0.556640625	0.5244140625	21.0625	11.0625	-17.6875
18	12	13	16	04	10	-0.328311068331	-0.192445584392	-0.458683338632	-0.78076171875	-0.4404296875	0.50732421875	35.5625	10.625	-7.5
18	12	13	16	04	10	-0.326771282449	-0.197747283365	-0.451645029908	-0.62890625	-0.39404296875	0.513671875	45.1875	11.3125	-1.125
18	12	13	16	04	10	-0.324033327476	-0.202818373932	-0.447933808692	-0.4833984375	-0.45703125	0.38330078125	35.0625	20.3125	0.875
18	12	13	16	04	10	-0.320183087049	-0.207514772392	-0.448353975879	-0.75390625	-0.513671875	0.30029296875	17.5625	18.5625	-15.625
18	12	13	16	04	10	-0.315360064616	-0.20989418661	-0.453173694556	-0.83056640625	-0.5849609375	0.2578125	-6.0625	15.625	-28.6875
18	12	13	16	04	10	-0.314018296879	-0.209467598618	-0.459034326691	-0.81787109375	-0.607421875	0.421875	-30.1875	5.75	-17.625
18	12	13	16	04	10	-0.312379234784	-0.206177619206	-0.46148874447	-0.607421875	-0.76904296875	0.60791015625	-15.25	-1.0625	-11.9375
18	12	13	16	04	10	-0.308099180243	-0.202327413333	-0.460989126065	-0.41259765625	-0.85205078125	0.63720703125	10.25	2.4375	-16.0
18	12	13	16	04	10	-0.303465984613	-0.199828566698	-0.460631091286	-0.46630859375	-0.76416015625	0.6826171875	6.0	9.8125	-20.1875
18	12	13	16	04	10	-0.297971084752	-0.197569111295	-0.459285623261	-0.47998046875	-0.7470703125	0.7314453125	11.375	11.4375	-25.625
18	12	13	16	04	10	-0.29339790993	-0.197511053991	-0.458987368977	-0.48046875	-0.6259765625	0.62109375	5.4375	18.125	-19.6875
18	12	13	16	04	10	-0.29028454676	-0.198792424054	-0.45868132231	-0.82373046875	-0.6201171875	0.63623046875	3.125	9.875	-23.375
18	12	13	16	04	10	-0.286064870789	-0.193842976238	-0.460987405392	-0.43310546875	-0.6826171875	0.71240234375	-18.625	4.5	-29.375
18	12	13	16	04	10	-0.283142348267	-0.189819509185	-0.464416927778	-0.5390625	-0.705078125	0.66064453125	-25.0625	2.25	-24.5625
18	12	13	16	04	10	-0.27849363947	-0.183404204823	-0.467695980552	-0.37646484375	-0.77490234375	0.755859375	-25.75	3.1875	-31.4375
18	12	13	16	04	10	-0.273690721642	-0.179144127569	-0.470047334381	-0.3837890625	-0.6748046875	0.6171875	-15.5625	5.75	-30.375
18	12	13	16	04	10	-0.270382875052	-0.176633869165	-0.472223996451	-0.59814453125	-0.65966796875	0.5791015625	-14.5	1.9375	-28.5
18	12	13	16	04	10	-0.26610612251	-0.172297610974	-0.474047305857	-0.53759765625	-0.66845703125	0.62060546875	-14.5	-2.4375	-36.3125
18	12	13	16	04	10	-0.26396918892	-0.167841680816	-0.476731406857	-0.53515625	-0.55322265625	0.6953125	-32.125	-3.75	-30.8125
18	12	13	16	04	10	-0.261535503258	-0.165771394831	-0.478332261152	-0.63623046875	-0.60498046875	0.642578125	-18.6875	0.9375	-27.8125
18	12	13	16	04	11	-0.258361935272	-0.164306716218	-0.480346900682	-0.56396484375	-0.587890625	0.5654296875	-15.9375	5.9375	-28.0
18	12	13	16	04	11	-0.254517363403	-0.165039556509	-0.482972637076	-0.53515625	-0.6552734375	0.3779296875	-6.0	14.0625	-20.625
18	12	13	16	04	11	-0.250916764005	-0.167298187822	-0.485109812773	-0.61328125	-0.669921875	0.3076171875	1.75	15.1875	-18.0625
18	12	13	16	04	11	-0.248718131076	-0.16998282087	-0.489013415013	-0.69873046875	-0.568359375	0.30126953125	-15.4375	14.625	-17.625
18	12	13	16	04	11	-0.248170041316	-0.171021263101	-0.493593488471	-0.65966796875	-0.59619140625	0.36279296875	-26.625	7.8125	-11.875
18	12	13	16	04	11	-0.24700666177	-0.171018696882	-0.499994705515	-0.59912109375	-0.65478515625	0.34912109375	-36.625	10.0	-13.1875
18	12	13	16	04	11	-0.244136835679	-0.17004130605	-0.507621515585	-0.51611328125	-0.81005859375	0.279296875	-34.5625	12.9375	-15.4375
18	12	13	16	04	11	-0.242186646506	-0.16845643759	-0.514646623824	-0.525390625	-0.7890625	0.36767578125	-39.375	9.625	-14.1875
18	12	13	16	04	11	-0.242493493774	-0.166260326464	-0.520509568312	-0.57666015625	-0.76220703125	0.4638671875	-43.8125	1.1875	-8.8125
18	12	13	16	04	11	-0.2431670315	-0.163332072363	-0.523077675691	-0.55712890625	-0.77587890625	0.53857421875	-27.25	-6.875	-7.875
18	12	13	16	04	11	-0.24328453047	-0.157835874509	-0.525753373172	-0.41162109375	-0.7646484375	0.65185546875	-35.75	-9.625	-12.25
18	12	13	16	04	11	-0.243343467562	-0.151670056908	-0.5276409022	-0.3525390625	-0.7353515625	0.76123046875	-38.125	-8.625	-13.4375
18	12	13	16	04	11	-0.24408032499	-0.145386180076	-0.530702282017	-0.4228515625	-0.64892578125	0.8818359375	-56.9375	-7.0	-17.6875
18	12	13	16	04	11	-0.243037423658	-0.14013408456	-0.530873809889	-0.47802734375	-0.7392578125	0.75390625	-25.0	-9.125	-23.9375
18	12	13	16	04	11	-0.242920932707	-0.137268637603	-0.53283913129	-0.58154296875	-0.63916015625	0.6142578125	-31.1875	-4.875	-20.375
18	12	13	16	04	11	-0.24352822768	-0.133482765398	-0.534724511956	-0.5888671875	-0.6787109375	0.5166015625	-26.9375	-15.125	-19.375
18	12	13	16	04	11	-0.244815492881	-0.130617091689	-0.537178048578	-0.77783203125	-0.796875	0.38671875	-20.5625	-20.9375	-19.3125
18	12	13	16	04	11	-0.247992224605	-0.126468099774	-0.542006141889	-0.68408203125	-0.71728515625	0.3984375	-44.625	-24.5	-11.5625
18	12	13	16	04	11	-0.251401657361	-0.121214783083	-0.544612038998	-0.65380859375	-0.83203125	0.4501953125	-31.375	-31.875	-9.625
18	12	13	16	04	11	-0.256466539327	-0.117063974876	-0.548455098142	-0.5791015625	-0.611328125	0.42138671875	-46.4375	-28.1875	-0.1875
18	12	13	16	04	11	-0.260740150623	-0.112975191667	-0.550960051422	-0.53369140625	-0.70751953125	0.39599609375	-32.1875	-27.3125	1.5
18	12	13	16	04	11	-0.263423664832	-0.109739515609	-0.556815128421	-0.5390625	-0.6982421875	0.2392578125	-43.4375	-17.125	-3.25
18	12	13	16	04	11	-0.266475525393	-0.106687864954	-0.563834380115	-0.52001953125	-0.74267578125	0.2236328125	-51.25	-14.25	2.75
18	12	13	16	04	11	-0.270379413761	-0.103085966104	-0.570055016824	-0.5537109375	-0.77392578125	0.32861328125	-54.3125	-18.0	3.4375
18	12	13	16	04	11	-0.274662741048	-0.098329261295	-0.572336116178	-0.42333984375	-0.7099609375	0.44775390625	-37.875	-24.875	4.75
18	12	13	16	04	11	-0.278382833244	-0.0953984583119	-0.577700836802	-0.5458984375	-0.75634765625	0.1650390625	-39.4375	-20.625	4.75
18	12	13	16	04	11	-0.280950261469	-0.0939349233979	-0.580211424185	-0.78466796875	-0.8515625	0.16845703125	-14.9375	-21.125	-8.375
18	12	13	16	04	11	-0.285583546096	-0.0888672030596	-0.586914165262	-0.68408203125	-0.81396484375	0.1640625	-53.4375	-32.1875	-3.125
18	12	13	16	04	11	-0.291691804369	-0.0812391277705	-0.587656139876	-0.4052734375	-0.86376953125	0.4228515625	-32.625	-45.9375	7.875
18	12	13	16	04	11	-0.297852964469	-0.0725101069239	-0.586184399745	-0.2744140625	-0.7626953125	0.58935546875	-30.875	-47.3125	6.375
18	12	13	16	04	11	-0.301512156655	-0.0666500556815	-0.583920405408	-0.45068359375	-0.86767578125	0.576171875	-14.125	-33.1875	-3.375
18	12	13	16	04	11	-0.305418717544	-0.0623776837191	-0.583066548501	-0.59716796875	-0.8017578125	0.556640625	-22.3125	-28.0625	-6.0
18	12	13	16	04	11	-0.312126388755	-0.0577378888859	-0.580003338354	-0.3642578125	-0.736328125	0.62939453125	-18.0	-36.375	16.0625
18	12	13	16	04	11	-0.318967180757	-0.0537105088148	-0.579096940494	-0.4326171875	-0.7802734375	0.36865234375	-15.375	-39.0	18.9375
18	12	13	16	04	11	-0.323372662814	-0.0508436066674	-0.578140026835	-0.6767578125	-0.84765625	0.2607421875	-1.5	-35.8125	-1.3125
18	12	13	16	04	11	-0.328493273546	-0.0461428678559	-0.583499757543	-0.66796875	-0.83349609375	0.11767578125	-41.8125	-36.4375	3.375
18	12	13	16	04	11	-0.335451624344	-0.0388796733455	-0.58655205785	-0.5400390625	-0.82421875	0.33544921875	-47.375	-48.3125	8.625
18	12	13	16	04	11	-0.343018080956	-0.0318603982667	-0.586426640894	-0.44287109375	-0.7919921875	0.38037109375	-30.5	-52.375	12.9375
18	12	13	16	04	11	-0.350387903671	-0.0261219339438	-0.585363244054	-0.51904296875	-0.712890625	0.40673828125	-24.25	-49.0625	8.5
18	12	13	16	04	11	-0.357003929321	-0.0211187142323	-0.583328184736	-0.5	-0.6826171875	0.3125	-10.375	-48.375	6.0
18	12	13	16	04	11	-0.362667833609	-0.0184934960592	-0.582392539263	-0.62939453125	-0.87939453125	0.12451171875	3.9375	-42.0625	10.0625
18	12	13	16	04	11	-0.368280699235	-0.0161130435197	-0.581229217569	-0.72265625	-0.8955078125	0.10302734375	7.625	-44.125	5.5
18	12	13	16	04	11	-0.375546023132	-0.0143431359396	-0.578058895675	-0.63623046875	-0.85400390625	0.1796875	14.3125	-46.9375	17.5625
18	12	13	16	04	11	-0.383056003472	-0.0128173614929	-0.57421779488	-0.603515625	-0.7861328125	0.21923828125	15.4375	-46.6875	18.5625
18	12	13	16	04	11	-0.388799338432	-0.0111695885295	-0.570442483043	-0.509765625	-0.8388671875	0.1953125	20.875	-40.1875	16.5
18	12	13	16	04	11	-0.393171503508	-0.00836145544561	-0.569555490645	-0.4326171875	-0.79052734375	0.2861328125	-5.0625	-29.4375	13.625
18	12	13	16	04	11	-0.39714663783	-0.00756818550652	-0.56926182435	-0.58349609375	-0.826171875	0.224609375	0.5	-24.0625	11.6875
18	12	13	16	04	11	-0.401117182624	-0.00823962563211	-0.566764174962	-0.724609375	-0.90576171875	0.1962890625	22.5625	-27.5	7.75
18	12	13	16	04	11	-0.404527925421	-0.00964324263978	-0.565106225327	-0.65771484375	-0.86328125	0.15673828125	20.875	-20.5625	11.1875
18	12	13	16	04	11	-0.410887877455	-0.00885008054529	-0.559935440845	-0.525390625	-0.73095703125	0.44580078125	14.8125	-34.875	17.8125
18	12	13	16	04	12	-0.416207583884	-0.00653090064168	-0.555370700361	-0.380859375	-0.794921875	0.47412109375	9.3125	-32.0625	18.5
18	12	13	16	04	12	-0.419601562849	-0.00549296591365	-0.551921008413	-0.5	-0.78955078125	0.5185546875	6.6875	-19.8125	7.375
18	12	13	16	04	12	-0.423332859896	-0.00512686854545	-0.548086661168	-0.50390625	-0.7705078125	0.53076171875	9.375	-19.125	10.375
18	12	13	16	04	12	-0.428593632373	-0.00384525759606	-0.541693034365	-0.29296875	-0.6787109375	0.67431640625	11.125	-23.75	20.0625
18	12	13	16	04	12	-0.43347852825	-0.0039673478367	-0.53614128304	-0.392578125	-0.69970703125	0.466796875	22.5	-24.6875	19.375
18	12	13	16	04	12	-0.436151503274	-0.00463861100599	-0.530998891475	-0.6572265625	-0.83349609375	0.384765625	34.625	-25.5625	-0.0625
18	12	13	16	04	12	-0.439266793388	-0.00360104777128	-0.531185063617	-0.66357421875	-0.787109375	0.27001953125	-0.0625	-24.875	5.0625
18	12	13	16	04	12	-0.445013156409	0.000793467430162	-0.528632416356	-0.4931640625	-0.82568359375	0.5302734375	-8.5	-39.875	15.3125
18	12	13	16	04	12	-0.451102976902	0.00665271607121	-0.525869740087	-0.380859375	-0.82177734375	0.662109375	-18.9375	-39.75	18.375
18	12	13	16	04	12	-0.454899393398	0.00988779038381	-0.521245246159	-0.36962890625	-0.90380859375	0.55224609375	13.1875	-30.9375	12.875
18	12	13	16	04	12	-0.456847821172	0.0097045829748	-0.520568479195	-0.5068359375	-0.71923828125	0.31494140625	7.3125	-12.9375	6.875
18	12	13	16	04	12	-0.460256770575	0.00646959523683	-0.519154500797	-0.8388671875	-0.828125	0.34228515625	20.1875	-16.6875	8.875
18	12	13	16	04	12	-0.462029893521	0.00616446753575	-0.517998375999	-0.408203125	-0.76025390625	0.29541015625	13.9375	-10.5	12.5625
18	12	13	16	04	12	-0.464725812172	0.00280764215392	-0.517033406214	-0.56640625	-0.796875	0.3662109375	16.5	-3.0	20.5625
18	12	13	16	04	12	-0.467037415889	0.00311276897678	-0.514705505514	-0.28759765625	-0.5693359375	0.39306640625	7.75	-10.625	12.3125
18	12	13	16	04	12	-0.466667845631	0.000244136984374	-0.518363852072	-0.56005859375	-0.7998046875	0.17529296875	2.25	10.4375	11.3125
18	12	13	16	04	12	-0.465677634273	-0.00128168156222	-0.522132655465	-0.7392578125	-0.78466796875	0.2490234375	-5.5625	4.0625	-5.875
18	12	13	16	04	12	-0.465636157581	0.000610350186894	-0.525206335822	-0.47021484375	-0.9853515625	0.36669921875	-12.375	-1.8125	9.125
18	12	13	16	04	12	-0.467597852037	0.00378424054644	-0.52558218299	-0.30126953125	-0.91796875	0.650390625	-20.5	-4.875	18.125
18	12	13	16	04	12	-0.470208673555	0.00390619874189	-0.525505799495	-0.52099609375	-0.85107421875	0.666015625	-13.3125	-2.0625	16.375
18	12	13	16	04	12	-0.471443041783	0.00463874562086	-0.524117219031	-0.41455078125	-0.74658203125	0.65966796875	-6.875	-0.8125	6.1875
18	12	13	16	04	12	-0.472405090281	0.00476067145244	-0.525504887251	-0.42626953125	-0.7119140625	0.5166015625	-15.8125	4.5	10.0625
18	12	13	16	04	12	-0.474671362381	0.00579835147565	-0.523926832284	-0.42626953125	-0.69921875	0.6513671875	-9.625	-6.375	8.6875
18	12	13	16	04	12	-0.476500082042	0.00885007197337	-0.524778750531	-0.3642578125	-0.703125	0.587890625	-26.125	-6.9375	8.25
18	12	13	16	04	12	-0.47850113126	0.0128169945873	-0.524459211851	-0.42724609375	-0.74658203125	0.6484375	-23.75	-14.5625	2.0
18	12	13	16	04	12	-0.479675958601	0.0180053960793	-0.525086177866	-0.4189453125	-0.81005859375	0.61865234375	-28.25	-15.3125	-1.9375
18	12	13	16	04	12	-0.481982485028	0.0223993379771	-0.524461883481	-0.55126953125	-0.85546875	0.63134765625	-19.875	-22.4375	-1.4375
18	12	13	16	04	12	-0.485287693567	0.0269773815314	-0.521908573474	-0.4404296875	-0.77880859375	0.72802734375	-17.4375	-25.6875	2.6875
18	12	13	16	04	12	-0.489609345525	0.0320424964349	-0.520553242082	-0.31982421875	-0.6953125	0.75439453125	-32.875	-22.8125	13.6875
18	12	13	16	04	12	-0.49321716117	0.0352777526489	-0.519705992743	-0.44189453125	-0.7080078125	0.62353515625	-21.875	-20.4375	9.8125
18	12	13	16	04	12	-0.496643119135	0.0383911173573	-0.522155817156	-0.59619140625	-0.7060546875	0.4365234375	-31.8125	-21.375	8.875
18	12	13	16	04	12	-0.499513459562	0.0419923338439	-0.52661316338	-0.63720703125	-0.8046875	0.34765625	-37.9375	-19.875	9.625
18	12	13	16	04	12	-0.504561455176	0.0470565963397	-0.53220949427	-0.650390625	-0.75439453125	0.439453125	-61.6875	-26.25	20.0
18	12	13	16	04	12	-0.50983106268	0.0543827938283	-0.537175048803	-0.517578125	-0.7958984375	0.46337890625	-66.8125	-32.125	22.1875
18	12	13	16	04	12	-0.515064609559	0.0603624717211	-0.54265190705	-0.6513671875	-0.71923828125	0.3603515625	-63.75	-32.5625	18.4375
18	12	13	16	04	12	-0.519825385909	0.064695891636	-0.547778893805	-0.681640625	-0.6787109375	0.25537109375	-52.25	-29.0625	16.8125
18	12	13	16	04	12	-0.524760429776	0.0706150054955	-0.553934131268	-0.53125	-0.64453125	0.3857421875	-74.0	-24.0625	24.1875
18	12	13	16	04	12	-0.527945606251	0.0762316834923	-0.558157522447	-0.42919921875	-0.78955078125	0.23681640625	-46.0625	-23.4375	20.125
18	12	13	16	04	12	-0.530319716155	0.0798317630028	-0.561080578964	-0.65234375	-0.80078125	0.1982421875	-27.25	-23.75	4.9375
18	12	13	16	04	12	-0.532846703223	0.0805068501203	-0.562998624344	-0.70751953125	-0.8330078125	0.18701171875	-10.25	-17.5	9.875
18	12	13	16	04	12	-0.53515299147	0.0821528200866	-0.564449688084	-0.59814453125	-0.771484375	0.19091796875	-12.125	-18.4375	8.1875
18	12	13	16	04	12	-0.536552565092	0.0851428538623	-0.568107300179	-0.61474609375	-0.91064453125	0.1103515625	-22.0	-17.0625	10.1875
18	12	13	16	04	12	-0.540204789998	0.0889253619961	-0.569500722571	-0.650390625	-0.8037109375	0.412109375	-35.125	-24.5625	9.0
18	12	13	16	04	12	-0.545047549392	0.092102659802	-0.570438342286	-0.60498046875	-0.83935546875	0.45556640625	-35.0	-24.5625	20.75
18	12	13	16	04	12	-0.549087083491	0.0960719285698	-0.567642271728	-0.53076171875	-0.7802734375	0.58642578125	-20.3125	-28.4375	2.75
18	12	13	16	04	12	-0.553457343652	0.102049038221	-0.56621347343	-0.228515625	-0.60986328125	0.52099609375	-37.8125	-28.5	14.875
18	12	13	16	04	12	-0.555466903725	0.105038846425	-0.565842617782	-0.44140625	-0.86083984375	0.24169921875	-6.8125	-21.0	9.25
18	12	13	16	04	12	-0.556879476616	0.107848096798	-0.56695018175	-0.75830078125	-0.76513671875	0.35400390625	-22.875	-18.0	-10.125
18	12	13	16	04	12	-0.563232208907	0.113830523365	-0.565002227769	-0.6064453125	-0.85107421875	0.6689453125	-43.25	-41.3125	13.75
18	12	13	16	04	12	-0.569922704788	0.124567599108	-0.559791288104	-0.2880859375	-0.8583984375	0.91259765625	-55.3125	-52.375	9.1875
18	12	13	16	04	13	-0.575498739934	0.131225187279	-0.554502709969	-0.453125	-0.88525390625	0.72216796875	-25.1875	-45.375	4.0
18	12	13	16	04	13	-0.580980732568	0.13689881113	-0.548815920501	-0.44775390625	-0.67041015625	0.69873046875	-22.3125	-44.4375	-2.125
18	12	13	16	04	13	-0.587163324836	0.143494904022	-0.545903199307	-0.51318359375	-0.69189453125	0.62890625	-41.0625	-47.125	8.25
18	12	13	16	04	13	-0.592885279551	0.151425610312	-0.543203519457	-0.4755859375	-0.720703125	0.548828125	-42.0625	-51.9375	6.625
18	12	13	16	04	13	-0.599415483138	0.158444414441	-0.540517617215	-0.57421875	-0.720703125	0.47607421875	-36.9375	-56.875	9.3125
18	12	13	16	04	13	-0.604310741192	0.166626434042	-0.539552262614	-0.59912109375	-0.73095703125	0.3486328125	-42.1875	-55.25	2.625
18	12	13	16	04	13	-0.610203837545	0.175895925165	-0.53965016319	-0.6015625	-0.6396484375	0.46875	-66.4375	-56.625	9.25
18	12	13	16	04	13	-0.616635447699	0.184447423829	-0.538083550125	-0.55615234375	-0.79833984375	0.537109375	-55.75	-57.5625	15.875
18	12	13	16	04	13	-0.623768555577	0.191769158671	-0.535940478133	-0.54345703125	-0.67041015625	0.4775390625	-48.8125	-59.5	18.5625
18	12	13	16	04	13	-0.629199913565	0.195980300946	-0.535939901155	-0.8330078125	-0.89697265625	0.16650390625	-20.8125	-53.25	13.6875
18	12	13	16	04	13	-0.631885647868	0.202694121179	-0.540029383979	-0.97802734375	-0.9560546875	-0.0771484375	-37.0625	-51.0625	4.25
18	12	13	16	04	13	-0.637420744767	0.210561237979	-0.54208838137	-0.7275390625	-0.7109375	0.14208984375	-57.5625	-59.0625	21.0625
18	12	13	16	04	13	-0.645275885902	0.216678906068	-0.541208974677	-0.66845703125	-0.80029296875	0.2548828125	-43.25	-66.125	34.5
18	12	13	16	04	13	-0.650452660908	0.225036967323	-0.541138527879	-0.44140625	-0.58447265625	0.2724609375	-59.75	-53.5625	22.5
18	12	13	16	04	13	-0.655827891869	0.229738127966	-0.540287435908	-0.5908203125	-0.7197265625	0.3115234375	-37.0	-46.0625	22.1875
18	12	13	16	04	13	-0.656913424824	0.234799400288	-0.542229756214	-0.51171875	-0.787109375	0.0390625	-27.625	-27.75	11.1875
18	12	13	16	04	13	-0.661244246253	0.238887758892	-0.54088485419	-0.69970703125	-0.7939453125	0.2890625	-26.5625	-43.25	9.6875
18	12	13	16	04	13	-0.667573605788	0.244374174216	-0.53659783709	-0.48486328125	-0.75634765625	0.39208984375	-28.8125	-56.9375	18.9375
18	12	13	16	04	13	-0.672843629354	0.24902050143	-0.531548908568	-0.62451171875	-0.93603515625	0.42529296875	-14.625	-52.5	5.4375
18	12	13	16	04	13	-0.675720453983	0.257324309818	-0.529785343742	-0.474609375	-0.72705078125	0.25732421875	-43.625	-48.4375	4.1875
18	12	13	16	04	13	-0.681692246289	0.262447547591	-0.523552340287	-0.54736328125	-0.77490234375	0.62890625	-28.8125	-53.1875	3.75
18	12	13	16	04	13	-0.68937368953	0.267143748479	-0.51670984113	-0.40087890625	-0.79931640625	0.7431640625	-34.5	-55.6875	24.875
18	12	13	16	04	13	-0.694683095313	0.272453464899	-0.509263376146	-0.38525390625	-0.87939453125	0.58837890625	-16.5625	-52.1875	4.8125
18	12	13	16	04	13	-0.699270235348	0.276302378932	-0.505181089114	-0.59423828125	-0.89892578125	0.3623046875	-12.4375	-49.25	10.0
18	12	13	16	04	13	-0.702576093201	0.283996747604	-0.502807910329	-0.42529296875	-0.734375	0.35205078125	-45.75	-48.4375	13.125
18	12	13	16	04	13	-0.707878608994	0.289853036223	-0.501093583363	-0.7841796875	-0.66552734375	0.63134765625	-63.625	-51.5625	14.6875
18	12	13	16	04	13	-0.714110204163	0.298705584545	-0.496886424965	-0.734375	-0.7119140625	0.7861328125	-80.125	-67.0	13.0
18	12	13	16	04	13	-0.718560874326	0.30798081813	-0.494197519699	-0.82763671875	-0.8408203125	0.59423828125	-73.75	-64.375	8.6875
18	12	13	16	04	13	-0.723028326037	0.317385387083	-0.489994209136	-0.59326171875	-0.7109375	0.54150390625	-67.875	-65.0625	9.75
18	12	13	16	04	13	-0.726534298284	0.322863444046	-0.487285772639	-0.646484375	-0.85693359375	0.1591796875	-23.4375	-56.625	12.375
18	12	13	16	04	13	-0.731559474118	0.327022831831	-0.484735970586	-0.81201171875	-0.52587890625	0.185546875	-31.125	-64.75	9.125
18	12	13	16	04	13	-0.736189037561	0.334159756313	-0.481312116581	-0.587890625	-0.6015625	0.1845703125	-44.6875	-70.5	19.6875
18	12	13	16	04	13	-0.736803476951	0.342950524933	-0.482413409693	-0.9462890625	-0.9638671875	-0.03564453125	-48.0	-58.4375	7.875
18	12	13	16	04	13	-0.738647554495	0.355346724696	-0.478637755937	-0.6064453125	-0.77001953125	0.31640625	-77.8125	-69.8125	3.6875
18	12	13	16	04	13	-0.742352295466	0.362417818834	-0.475391106584	-0.5771484375	-0.9072265625	0.28759765625	-48.0625	-63.125	29.4375
18	12	13	16	04	13	-0.745057780209	0.36792072574	-0.4744273061	-0.89501953125	-0.68212890625	0.13330078125	-43.125	-59.0625	10.375
18	12	13	16	04	13	-0.747909636875	0.374382055867	-0.470937714879	-0.83935546875	-0.85107421875	0.14697265625	-34.6875	-66.25	4.0
18	12	13	16	04	13	-0.749695495895	0.383362159873	-0.468323173492	-0.58544921875	-0.66796875	0.2099609375	-64.6875	-61.5625	17.1875
18	12	13	16	04	13	-0.753660174939	0.390318822379	-0.462157016897	-0.6171875	-0.77197265625	0.31884765625	-44.3125	-71.9375	11.0625
18	12	13	16	04	13	-0.756317863145	0.396834953693	-0.457806672971	-0.62060546875	-0.68115234375	0.115234375	-36.6875	-66.0	8.625
18	12	13	16	04	13	-0.759209343998	0.402217989947	-0.452754635725	-0.7919921875	-0.83935546875	0.1357421875	-23.75	-66.5	-1.875
18	12	13	16	04	13	-0.760929260117	0.40954803364	-0.4481224535	-0.611328125	-0.85595703125	0.1142578125	-36.6875	-63.6875	7.9375
18	12	13	16	04	13	-0.76370476914	0.415939263301	-0.442305479258	-0.7421875	-0.91259765625	0.27001953125	-37.1875	-67.8125	4.0
18	12	13	16	04	13	-0.76798560062	0.422474475681	-0.433460520989	-0.6083984375	-0.78466796875	0.52978515625	-48.8125	-75.0	2.3125
18	12	13	16	04	13	-0.773020072388	0.427129448604	-0.424688011344	-0.4755859375	-0.73388671875	0.59228515625	-43.8125	-70.5	15.4375
18	12	13	16	04	13	-0.776586464548	0.430650274588	-0.418504667354	-0.77783203125	-0.86279296875	0.34912109375	-23.6875	-64.6875	2.5
18	12	13	16	04	13	-0.77916629425	0.43627453167	-0.411250390934	-0.62939453125	-0.87646484375	0.28515625	-28.5	-66.375	-1.6875
18	12	13	16	04	13	-0.783116407498	0.440476277212	-0.403917417568	-0.5263671875	-0.693359375	0.44091796875	-39.0625	-69.5	17.3125
18	12	13	16	04	13	-0.788054606521	0.444745501682	-0.394759696018	-0.5107421875	-0.58642578125	0.5478515625	-46.6875	-80.875	18.8125
18	12	13	16	04	13	-0.789815338272	0.450904545178	-0.388224663221	-0.7080078125	-0.806640625	0.33203125	-43.4375	-69.125	3.5625
18	12	13	16	04	14	-0.789477907049	0.459648868804	-0.382318485485	-0.63232421875	-0.83935546875	0.1923828125	-51.875	-65.5	1.5625
18	12	13	16	04	14	-0.790815275212	0.465138783082	-0.376456634831	-0.63232421875	-0.8486328125	0.23779296875	-36.0	-65.875	11.25
18	12	13	16	04	14	-0.791848573136	0.470751352289	-0.37151088829	-0.5859375	-0.53857421875	0.29736328125	-53.8125	-65.0625	18.5
18	12	13	16	04	14	-0.792340086322	0.47728389116	-0.365348001596	-0.70166015625	-0.716796875	0.3310546875	-53.125	-65.9375	2.625
18	12	13	16	04	14	-0.789609801464	0.486326883981	-0.362059622964	-0.84765625	-0.900390625	0.0048828125	-50.875	-58.0	-3.0625
18	12	13	16	04	14	-0.789127675776	0.493593898523	-0.355836828044	-0.646484375	-0.68310546875	0.1865234375	-51.25	-66.3125	0.375
18	12	13	16	04	14	-0.789433044317	0.499270318735	-0.349855436062	-0.73046875	-0.72998046875	0.1318359375	-41.25	-74.0	8.5
18	12	13	16	04	14	-0.788898838324	0.507114377815	-0.341900920029	-0.71337890625	-0.837890625	0.20068359375	-54.3125	-77.9375	0.8125
18	12	13	16	04	14	-0.787760171119	0.515367388621	-0.33385357837	-0.46923828125	-0.91552734375	0.35986328125	-65.4375	-65.125	12.875
18	12	13	16	04	14	-0.787278382431	0.521230900532	-0.327264647383	-0.3828125	-0.64990234375	0.34130859375	-56.4375	-58.75	18.4375
18	12	13	16	04	14	-0.787712132226	0.522944177043	-0.324337693371	-0.84619140625	-1.01708984375	0.0185546875	-5.3125	-53.4375	10.6875
18	12	13	16	04	14	-0.783903055204	0.530434557208	-0.322008137594	-0.96044921875	-0.98046875	-0.2470703125	-28.75	-52.9375	-9.625
18	12	13	16	04	14	-0.781143821291	0.537120302185	-0.318060669851	-0.7998046875	-1.06298828125	-0.18994140625	-25.9375	-59.0	3.5
18	12	13	16	04	14	-0.780204708905	0.543756845157	-0.309201052594	-0.41259765625	-0.4833984375	0.40478515625	-74.75	-75.5625	16.375
18	12	13	16	04	14	-0.785326848754	0.544058718411	-0.295161315037	-0.208984375	-0.85693359375	0.69873046875	-30.9375	-82.625	15.75
18	12	13	16	04	14	-0.783441361428	0.548640884845	-0.291562744121	-0.3193359375	-0.7890625	-0.14111328125	-10.0625	-29.8125	-0.9375
18	12	13	16	04	14	-0.787480806286	0.544009953994	-0.288820274015	-1.02197265625	-0.67333984375	0.298828125	13.3125	-53.0625	-2.0
18	12	13	16	04	14	-0.789204277289	0.546541203552	-0.278366770452	-0.26220703125	-0.869140625	0.2734375	-22.5625	-71.25	14.3125
18	12	13	16	04	14	-0.790290090783	0.548100480015	-0.271181562662	-0.68994140625	-1.1064453125	0.22900390625	-11.0	-62.5625	4.5625
18	12	13	16	04	14	-0.791127313943	0.550407816474	-0.262569796681	-0.48095703125	-0.697265625	0.212890625	-23.25	-68.3125	2.1875
18	12	13	16	04	14	-0.791425035626	0.552905020262	-0.254388798372	-0.60302734375	-0.78271484375	0.373046875	-34.9375	-66.0625	4.0
18	12	13	16	04	14	-0.789302685822	0.558285776926	-0.246397691205	-0.65087890625	-0.82373046875	0.25439453125	-49.9375	-70.0	5.625
18	12	13	16	04	14	-0.790913500475	0.558729910738	-0.237188598769	-0.798828125	-1.005859375	0.35546875	-16.6875	-78.0625	-1.8125
18	12	13	16	04	14	-0.793880481485	0.557187277272	-0.226927625906	-0.51806640625	-0.8056640625	0.3818359375	-9.6875	-83.5625	11.4375
18	12	13	16	04	14	-0.79663261328	0.55474975652	-0.219299799227	-0.59765625	-0.87353515625	0.201171875	9.9375	-74.6875	12.625
18	12	13	16	04	14	-0.798211801043	0.553462655747	-0.213255240315	-0.68994140625	-0.8798828125	0.0419921875	13.9375	-67.3125	3.4375
18	12	13	16	04	14	-0.79949503378	0.552059896217	-0.208189751907	-0.54052734375	-0.853515625	0.01708984375	15.625	-60.1875	15.0625
18	12	13	16	04	14	-0.799917260851	0.551201951987	-0.204648449232	-0.5166015625	-0.712890625	-0.0810546875	14.0625	-54.5625	16.625
18	12	13	16	04	14	-0.800091595555	0.550463506012	-0.201655552042	-0.70361328125	-0.85302734375	-0.095703125	18.0625	-55.25	10.625
18	12	13	16	04	14	-0.797708445432	0.553330127489	-0.199091426855	-0.73193359375	-1.029296875	-0.138671875	0.625	-47.875	10.8125
18	12	13	16	04	14	-0.795657963422	0.555971800308	-0.195191329167	-0.50244140625	-0.8837890625	-0.00341796875	-9.9375	-45.8125	17.25
18	12	13	16	04	14	-0.796846057817	0.554057024576	-0.191033100564	-0.4765625	-0.837890625	0.236328125	6.6875	-45.25	17.125
18	12	13	16	04	14	-0.79715038069	0.552164420343	-0.188164353699	-0.53515625	-0.6201171875	0.3330078125	-7.9375	-44.0625	23.0
18	12	13	16	04	14	-0.79872327121	0.548981112901	-0.1855366963	-0.6201171875	-0.78369140625	0.29052734375	12.0	-40.875	12.5
18	12	13	16	04	14	-0.801397335116	0.544010239748	-0.182801600813	-0.50830078125	-0.7734375	0.30810546875	22.6875	-42.5	21.0
18	12	13	16	04	14	-0.803170253182	0.54077729639	-0.179079073093	-0.32568359375	-0.69482421875	0.18408203125	17.125	-42.3125	21.6875
18	12	13	16	04	14	-0.806028240619	0.536436635378	-0.175597701671	-0.6220703125	-0.966796875	0.24462890625	32.625	-42.625	5.125
18	12	13	16	04	14	-0.807234130508	0.533680268952	-0.174068633011	-0.671875	-0.96435546875	0.14892578125	27.0625	-36.5625	11.25
18	12	13	16	04	14	-0.80930602355	0.52958886624	-0.171077283862	-0.49755859375	-0.833984375	0.35693359375	19.3125	-38.4375	18.0625
18	12	13	16	04	14	-0.810293526253	0.526788447205	-0.168210979087	-0.5244140625	-0.8662109375	0.34814453125	11.125	-38.25	21.625
18	12	13	16	04	14	-0.81052908305	0.525134957121	-0.165218541251	-0.60693359375	-0.8662109375	0.39306640625	1.5625	-37.5625	15.5
18	12	13	16	04	14	-0.811325748967	0.522451546766	-0.162289563417	-0.56005859375	-0.8134765625	0.4716796875	2.875	-35.9375	17.8125
18	12	13	16	04	14	-0.812710365622	0.519265529491	-0.158806876791	-0.44580078125	-0.787109375	0.4765625	6.5	-33.625	17.25
18	12	13	16	04	14	-0.813676809758	0.51651266434	-0.154715775033	-0.3837890625	-0.646484375	0.55517578125	-5.9375	-33.875	17.6875
18	12	13	16	04	14	-0.813380126208	0.514931201682	-0.152215054758	-0.6689453125	-0.73876953125	0.49169921875	-7.0625	-36.25	13.5
18	12	13	16	04	14	-0.813761216823	0.513719955149	-0.146724815514	-0.509765625	-0.77734375	0.50048828125	-8.4375	-40.875	5.9375
18	12	13	16	04	14	-0.813711466771	0.512018113917	-0.142454437702	-0.51171875	-0.77734375	0.4921875	-5.875	-40.875	17.9375
18	12	13	16	04	14	-0.81432914048	0.509764426719	-0.13580290343	-0.404296875	-0.68359375	0.57958984375	-12.0625	-47.375	12.625
18	12	13	16	04	14	-0.814453784912	0.507934981867	-0.129638776915	-0.431640625	-0.71484375	0.60400390625	-14.625	-45.1875	14.75
18	12	13	16	04	14	-0.814192159931	0.507130633948	-0.123898806946	-0.48291015625	-0.78955078125	0.54931640625	-13.625	-40.875	8.875
18	12	13	16	04	15	-0.81393701817	0.505842082078	-0.120174114335	-0.5498046875	-0.81591796875	0.4052734375	1.0625	-38.6875	11.0625
18	12	13	16	04	15	-0.81413311856	0.50310362818	-0.117246399337	-0.67626953125	-0.81103515625	0.39794921875	10.1875	-44.4375	11.1875
18	12	13	16	04	15	-0.814066786712	0.500842109144	-0.112485011839	-0.29541015625	-0.6865234375	0.43212890625	-1.375	-40.25	24.25
18	12	13	16	04	15	-0.812234025441	0.501451364069	-0.111569266494	-0.724609375	-0.923828125	0.2421875	5.4375	-32.0	13.1875
18	12	13	16	04	15	-0.809383389812	0.504575257038	-0.107604472984	-0.630859375	-0.8935546875	0.29443359375	-17.9375	-35.1875	6.0
18	12	13	16	04	15	-0.806018117295	0.506645190948	-0.106565775617	-0.68115234375	-0.94775390625	0.3330078125	-11.8125	-29.1875	25.0625
18	12	13	16	04	15	-0.803146682404	0.508169258887	-0.103330597561	-0.50927734375	-0.70556640625	0.43701171875	-24.6875	-31.8125	20.125
18	12	13	16	04	15	-0.800761147359	0.507372516615	-0.100217210668	-0.541015625	-0.60595703125	0.64111328125	-27.8125	-36.8125	27.0625
18	12	13	16	04	15	-0.798869726971	0.507250844286	-0.0961280326977	-0.5205078125	-0.67529296875	0.53515625	-21.875	-36.125	16.0625
18	12	13	16	04	15	-0.797543571624	0.506406903939	-0.0916744811035	-0.51123046875	-0.697265625	0.56201171875	-17.8125	-37.5	13.5
18	12	13	16	04	15	-0.797145758868	0.503823462174	-0.0850183019755	-0.2099609375	-0.5791015625	0.6689453125	-21.25	-40.5	21.75
18	12	13	16	04	15	-0.796490992235	0.501087436494	-0.0803204709411	-0.4130859375	-0.63037109375	0.611328125	-11.9375	-40.875	19.625
18	12	13	16	04	15	-0.795466370062	0.499935934718	-0.0742183001607	-0.60986328125	-0.716796875	0.654296875	-21.5	-45.8125	1.25
18	12	13	16	04	15	-0.792470339878	0.502068778176	-0.0662222981183	-0.52197265625	-0.87841796875	0.59814453125	-37.4375	-46.25	7.1875
18	12	13	16	04	15	-0.790809473349	0.502304697512	-0.0575544750612	-0.30029296875	-0.8984375	0.67919921875	-30.25	-42.3125	12.8125
18	12	13	16	04	15	-0.788861828413	0.500721271977	-0.0531604373344	-0.64453125	-0.81103515625	0.67626953125	-17.1875	-45.1875	16.125
18	12	13	16	04	15	-0.786671101218	0.500237128216	-0.0469353772082	-0.44580078125	-0.7392578125	0.6337890625	-26.5	-43.0625	14.0625
18	12	13	16	04	15	-0.783118414501	0.501632783788	-0.04284538438	-0.53564453125	-0.77392578125	0.5673828125	-29.6875	-33.875	18.75
18	12	13	16	04	15	-0.778824101598	0.503550065688	-0.0383918777355	-0.3388671875	-0.57958984375	0.52197265625	-39.9375	-30.9375	26.75
18	12	13	16	04	15	-0.772681450625	0.50828523861	-0.0376575398922	-0.65673828125	-0.6728515625	0.2958984375	-34.8125	-23.3125	24.3125
18	12	13	16	04	15	-0.766413393506	0.514339863588	-0.0338742879188	-0.74609375	-0.76513671875	0.30078125	-45.125	-31.8125	6.9375
18	12	13	16	04	15	-0.75816551693	0.523123220545	-0.0314325584623	-0.74951171875	-0.9541015625	0.05224609375	-41.625	-25.8125	20.0625
18	12	13	16	04	15	-0.751859481133	0.5286635949	-0.0270984340955	-0.5537109375	-0.74560546875	0.279296875	-45.625	-28.8125	16.0625
18	12	13	16	04	15	-0.745606053435	0.532654226287	-0.0239868352161	-0.59521484375	-0.68359375	0.3134765625	-40.5	-31.625	22.3125
18	12	13	16	04	15	-0.740461024613	0.537523923818	-0.0192866537898	-0.4111328125	-0.70068359375	0.255859375	-41.125	-21.9375	11.25
18	12	13	16	04	15	-0.73506235404	0.541393596308	-0.0169681420263	-0.66552734375	-0.708984375	0.3427734375	-37.0625	-23.375	11.75
18	12	13	16	04	15	-0.731735598054	0.544422515192	-0.0120847150233	-0.5087890625	-0.90966796875	0.240234375	-21.75	-26.4375	2.8125
18	12	13	16	04	15	-0.728276974238	0.545963588213	-0.00927741368457	-0.60986328125	-0.82373046875	0.38427734375	-22.3125	-25.5625	9.9375
18	12	13	16	04	15	-0.725433870593	0.545631735075	-0.00439434954423	-0.42333984375	-0.68115234375	0.5234375	-29.0625	-33.3125	13.0
18	12	13	16	04	15	-0.722088562544	0.546067650163	-0.000488268827686	-0.5	-0.71044921875	0.4970703125	-29.0	-29.1875	12.9375
18	12	13	16	04	15	-0.718557854911	0.546501913945	0.00402826963596	-0.52783203125	-0.7265625	0.541015625	-33.375	-31.75	11.0625
18	12	13	16	04	15	-0.715118382071	0.548072294188	0.00872765457337	-0.404296875	-0.82861328125	0.41796875	-29.0	-24.75	13.125
18	12	13	16	04	15	-0.712105036211	0.548895225049	0.0125123452836	-0.5419921875	-0.82275390625	0.45703125	-24.4375	-25.8125	7.9375
18	12	13	16	04	15	-0.709212703292	0.548876922608	0.0165401585708	-0.5322265625	-0.8212890625	0.4443359375	-20.75	-31.5625	9.8125
18	12	13	16	04	15	-0.704696092175	0.550036478666	0.0210566561407	-0.59716796875	-0.6904296875	0.46142578125	-36.4375	-35.0	9.125
18	12	13	16	04	15	-0.700162176043	0.550877249038	0.0269762623615	-0.59326171875	-0.7890625	0.46923828125	-36.8125	-41.625	8.625
18	12	13	16	04	15	-0.694626919963	0.552967216841	0.0334465822107	-0.53125	-0.74169921875	0.50830078125	-50.3125	-36.6875	10.4375
18	12	13	16	04	15	-0.690105279514	0.552718971547	0.0395496790594	-0.6728515625	-0.92724609375	0.642578125	-39.25	-44.125	10.4375
18	12	13	16	04	15	-0.68737595541	0.550352423187	0.0463255505377	-0.4501953125	-0.87451171875	0.6123046875	-26.5	-46.0625	12.25
18	12	13	16	04	15	-0.684913726142	0.546795764793	0.0515119573039	-0.3466796875	-0.66015625	0.59375	-20.8125	-44.0625	19.1875
18	12	13	16	04	15	-0.680951279659	0.546494376451	0.0535264203873	-0.74560546875	-0.72900390625	0.34619140625	-14.0625	-37.75	8.4375
18	12	13	16	04	15	-0.676215699498	0.5472470405	0.0612799496612	-0.509765625	-0.7685546875	0.39599609375	-38.9375	-46.125	3.5625
18	12	13	16	04	15	-0.671319797843	0.548151932396	0.0671380832464	-0.654296875	-1.04736328125	0.35498046875	-24.8125	-44.0625	11.3125
18	12	13	16	04	15	-0.666922414486	0.546257491503	0.0736074340506	-0.4296875	-0.5810546875	0.4775390625	-33.125	-51.0	12.4375
18	12	13	16	04	15	-0.662521768319	0.544482422402	0.0762312011636	-0.61572265625	-0.693359375	0.3505859375	-11.75	-46.0625	19.3125
18	12	13	16	04	15	-0.657874933167	0.545269009455	0.0805025546755	-0.716796875	-0.79833984375	0.2392578125	-19.1875	-42.3125	2.9375
18	12	13	16	04	15	-0.652579306653	0.545341947713	0.0853260260663	-0.513671875	-0.9296875	0.26611328125	-17.625	-44.0625	23.5
18	12	13	16	04	15	-0.647795809817	0.54440725679	0.089290113978	-0.568359375	-0.82373046875	0.275390625	-13.25	-46.4375	19.1875
18	12	13	16	04	15	-0.64313026971	0.543520456654	0.0931400580409	-0.6513671875	-0.87646484375	0.25048828125	-9.4375	-47.625	15.5
18	12	13	16	04	15	-0.636893121945	0.54515854003	0.097349739291	-0.58349609375	-0.7841796875	0.240234375	-27.625	-38.0625	18.0625
18	12	13	16	04	16	-0.63231533718	0.544548015282	0.102110382153	-0.41943359375	-0.7099609375	0.3701171875	-25.625	-36.9375	17.0625
18	12	13	16	04	16	-0.627722625078	0.543558356728	0.105159560818	-0.5009765625	-0.69677734375	0.380859375	-19.125	-36.1875	19.5
18	12	13	16	04	16	-0.623643333668	0.542102181409	0.109372563509	-0.53271484375	-0.7431640625	0.392578125	-19.4375	-40.25	11.6875
18	12	13	16	04	16	-0.619605620303	0.540934260515	0.114497650087	-0.52587890625	-0.81982421875	0.3935546875	-21.5	-40.625	9.6875
18	12	13	16	04	16	-0.615648494562	0.538928938929	0.119199118656	-0.572265625	-0.806640625	0.44775390625	-19.5625	-43.625	9.625
18	12	13	16	04	16	-0.612045889758	0.534655164966	0.124997006604	-0.2783203125	-0.55126953125	0.56201171875	-26.1875	-46.9375	16.375
18	12	13	16	04	16	-0.608063759154	0.532078676333	0.127801416408	-0.74658203125	-0.8310546875	0.412109375	-7.4375	-47.5	8.625
18	12	13	16	04	16	-0.603813567941	0.530083982368	0.13445883859	-0.63623046875	-0.84716796875	0.3759765625	-21.5	-53.75	0.0625
18	12	13	16	04	16	-0.599221068321	0.527202239576	0.139826386996	-0.478515625	-0.953125	0.41796875	-13.375	-50.3125	21.3125
18	12	13	16	04	16	-0.596378662949	0.522525609815	0.144410184888	-0.47998046875	-0.8232421875	0.40478515625	-2.1875	-53.0	11.25
18	12	13	16	04	16	-0.591552605458	0.518981820492	0.148559537937	-0.53076171875	-0.75341796875	0.509765625	-17.0	-50.5	18.5
18	12	13	16	04	16	-0.586300783104	0.517209331254	0.152770233199	-0.6591796875	-0.8359375	0.435546875	-18.9375	-47.375	12.75
18	12	13	16	04	16	-0.581297047004	0.514158580844	0.157592290567	-0.513671875	-0.8193359375	0.51025390625	-20.0	-48.6875	18.0
18	12	13	16	04	16	-0.576226455334	0.510736466289	0.160459628331	-0.4013671875	-0.6328125	0.431640625	-12.1875	-44.8125	26.8125
18	12	13	16	04	16	-0.571954640968	0.507502170489	0.161680487026	-0.71875	-0.81689453125	0.4140625	1.875	-46.5625	15.5
18	12	13	16	04	16	-0.565719135466	0.50737114825	0.164424139707	-0.7607421875	-0.79296875	0.22900390625	-11.1875	-46.0625	14.1875
18	12	13	16	04	16	-0.561218882658	0.503174384843	0.170288274346	-0.35546875	-0.71630859375	0.5068359375	-21.0625	-50.0625	17.125
18	12	13	16	04	16	-0.55662678599	0.498522761838	0.171870726902	-0.51318359375	-0.677734375	0.41455078125	1.4375	-50.3125	24.25
18	12	13	16	04	16	-0.55216925496	0.492783747601	0.1757151857	-0.43310546875	-0.51806640625	0.5654296875	-15.625	-54.625	15.25
18	12	13	16	04	16	-0.546252717656	0.490040566487	0.178279797572	-0.64306640625	-0.724609375	0.3994140625	-9.5625	-50.3125	20.0
18	12	13	16	04	16	-0.542055307601	0.486757243342	0.183289279217	-0.611328125	-0.892578125	0.41650390625	-9.4375	-51.75	7.375
18	12	13	16	04	16	-0.538145904126	0.481566426625	0.186645137214	-0.5068359375	-0.869140625	0.51416015625	-0.1875	-51.75	18.375
18	12	13	16	04	16	-0.534728782792	0.475097459794	0.188293379171	-0.4326171875	-0.763671875	0.5283203125	8.8125	-50.625	23.0625
18	12	13	16	04	16	-0.529034844664	0.472823366592	0.190240148918	-0.67626953125	-0.6904296875	0.46630859375	-11.3125	-44.375	16.3125
18	12	13	16	04	16	-0.522582600937	0.469543091452	0.19592269902	-0.49560546875	-0.69189453125	0.56201171875	-30.375	-52.0	18.1875
18	12	13	16	04	16	-0.514578080287	0.468863576416	0.201168230652	-0.53271484375	-0.89013671875	0.52880859375	-32.625	-42.25	30.3125
18	12	13	16	04	16	-0.507133184294	0.465324755934	0.206783876325	-0.4755859375	-0.64208984375	0.6982421875	-40.0625	-50.5	22.6875
18	12	13	16	04	16	-0.500415505544	0.461353921991	0.209772910422	-0.57275390625	-0.8388671875	0.5693359375	-12.375	-52.3125	28.6875
18	12	13	16	04	16	-0.494491763897	0.457993852911	0.213738602465	-0.4912109375	-0.6513671875	0.57177734375	-23.5	-44.9375	17.8125
18	12	13	16	04	16	-0.487293689566	0.452565469455	0.215815441671	-0.482421875	-0.56884765625	0.6083984375	-14.875	-55.5625	31.0625
18	12	13	16	04	16	-0.480288662051	0.448733288016	0.220521405006	-0.44775390625	-0.68115234375	0.47314453125	-20.5	-53.625	25.1875
18	12	13	16	04	16	-0.472350642227	0.446288654343	0.22576883649	-0.587890625	-0.72119140625	0.4912109375	-29.375	-53.3125	21.0625
18	12	13	16	04	16	-0.465133724542	0.441208725196	0.232780478337	-0.37353515625	-0.74658203125	0.64892578125	-35.0	-57.375	23.1875
18	12	13	16	04	16	-0.457320702192	0.436569462536	0.238273057702	-0.30859375	-0.61474609375	0.62353515625	-33.5	-51.9375	30.375
18	12	13	16	04	16	-0.449948834434	0.432187696233	0.242186241866	-0.595703125	-0.7041015625	0.6318359375	-23.5	-55.8125	20.125
18	12	13	16	04	16	-0.439634175079	0.433164478763	0.247313296879	-0.89599609375	-0.85693359375	0.35693359375	-33.0625	-54.125	21.25
18	12	13	16	04	16	-0.432357870711	0.42955035207	0.255117998246	-0.62255859375	-0.96240234375	0.5029296875	-29.4375	-61.6875	11.75
18	12	13	16	04	16	-0.423703922247	0.426450490455	0.257811202474	-0.60400390625	-1.0185546875	0.4921875	-6.8125	-53.5625	39.25
18	12	13	16	04	16	-0.41441666621	0.42113033827	0.261711143551	-0.37890625	-0.55615234375	0.73486328125	-35.5	-54.1875	35.5625
18	12	13	16	04	16	-0.405438492111	0.419598017953	0.264331493201	-0.51171875	-0.7216796875	0.4765625	-21.75	-41.875	36.875
18	12	13	16	04	16	-0.397212398397	0.422846880163	0.267819299964	-0.8359375	-0.8662109375	0.2333984375	-22.3125	-31.625	18.8125
18	12	13	16	04	16	-0.38959417586	0.423896530056	0.271122877827	-0.63720703125	-0.87841796875	0.21044921875	-12.5625	-35.25	25.8125
18	12	13	16	04	16	-0.382373992338	0.422656009088	0.273856680546	-0.400390625	-0.6796875	0.3564453125	-17.0625	-33.8125	30.8125
18	12	13	16	04	16	-0.374455385319	0.421147866129	0.275943406199	-0.48291015625	-0.5341796875	0.39306640625	-20.9375	-37.4375	28.25
18	12	13	16	04	16	-0.366027791806	0.42016596945	0.280456512148	-0.52001953125	-0.52490234375	0.462890625	-39.875	-37.9375	20.5625
18	12	13	16	04	16	-0.35980016385	0.419187027197	0.284849425732	-0.5224609375	-0.7724609375	0.3837890625	-23.4375	-33.5625	16.75
18	12	13	16	04	16	-0.354553995335	0.416626884516	0.288086565326	-0.40576171875	-0.76904296875	0.44580078125	-15.1875	-32.625	19.9375
18	12	13	16	04	16	-0.34979091027	0.415342373824	0.28893913265	-0.6298828125	-0.908203125	0.34765625	4.875	-31.875	18.125
18	12	13	16	04	16	-0.344245122991	0.414742129561	0.294195300145	-0.59375	-0.84619140625	0.38232421875	-26.0625	-32.4375	8.875
18	12	13	16	04	17	-0.337828553463	0.414488474538	0.300658257337	-0.5087890625	-0.87841796875	0.408203125	-35.5625	-30.125	15.125
18	12	13	16	04	17	-0.329832509298	0.413999613354	0.306150974581	-0.53125	-0.6904296875	0.498046875	-43.875	-31.75	18.8125
18	12	13	16	04	17	-0.322558879075	0.413070670497	0.309986101574	-0.57177734375	-0.71630859375	0.51904296875	-33.625	-31.25	18.625
18	12	13	16	04	17	-0.315733321289	0.411558048609	0.314085380119	-0.5380859375	-0.703125	0.56494140625	-35.9375	-30.5625	15.6875
18	12	13	16	04	17	-0.309560013434	0.409105041413	0.316517789761	-0.43994140625	-0.68017578125	0.4462890625	-18.0	-33.125	21.375
18	12	13	16	04	17	-0.304256398523	0.407892780608	0.316402240711	-0.72607421875	-0.791015625	0.322265625	4.125	-34.5625	14.125
18	12	13	16	04	17	-0.298586008803	0.406130683274	0.317995320087	-0.65966796875	-0.78515625	0.3212890625	-4.0	-38.1875	13.875
18	12	13	16	04	17	-0.293328278951	0.403982496542	0.320122102185	-0.6123046875	-0.90234375	0.373046875	-4.75	-36.375	16.0625
18	12	13	16	04	17	-0.28655479907	0.399406731654	0.323053152605	-0.4404296875	-0.7119140625	0.60693359375	-23.5	-41.5	21.75
18	12	13	16	04	17	-0.281558613007	0.394047779227	0.325382390188	-0.32421875	-0.689453125	0.5341796875	-12.0	-39.625	18.375
18	12	13	16	04	17	-0.276180741364	0.390498206243	0.325923792019	-0.55810546875	-0.60205078125	0.5126953125	-9.25	-37.4375	12.6875
18	12	13	16	04	17	-0.271177024239	0.385250816339	0.327328917621	-0.27099609375	-0.55712890625	0.47802734375	-8.6875	-38.125	19.5625
18	12	13	16	04	17	-0.266540813808	0.384460862417	0.326233260774	-0.65673828125	-0.77587890625	0.2158203125	15.9375	-31.5	17.0
18	12	13	16	04	17	-0.262750477238	0.382071541814	0.326469756736	-0.74169921875	-0.9130859375	0.21728515625	19.1875	-42.5	7.1875
18	12	13	16	04	17	-0.258052860735	0.379755179635	0.328120193783	-0.5966796875	-0.978515625	0.23193359375	11.1875	-39.9375	17.6875
18	12	13	16	04	17	-0.25280015531	0.374805831424	0.328542548536	-0.49365234375	-0.8056640625	0.42822265625	6.8125	-45.625	20.5
18	12	13	16	04	17	-0.246703310269	0.369749790601	0.329893961406	-0.4404296875	-0.72705078125	0.51171875	-5.5625	-44.625	22.375
18	12	13	16	04	17	-0.241387037117	0.36754304362	0.332021613632	-0.49609375	-0.7353515625	0.43505859375	-11.125	-31.125	16.875
18	12	13	16	04	17	-0.236442260174	0.367358276713	0.332569405185	-0.6689453125	-0.86767578125	0.34375	3.1875	-26.5	17.25
18	12	13	16	04	17	-0.233513796579	0.364003210349	0.33232687464	-0.365234375	-0.86669921875	0.37353515625	16.1875	-27.75	20.4375
18	12	13	16	04	17	-0.231320149442	0.363459496023	0.327449235292	-0.58349609375	-0.89306640625	0.20458984375	47.125	-20.625	22.8125
18	12	13	16	04	17	-0.228022987803	0.360100542836	0.323724284611	-0.4658203125	-0.64013671875	0.4462890625	24.125	-28.4375	19.8125
18	12	13	16	04	17	-0.223623563196	0.358505679644	0.322069198413	-0.345703125	-0.68505859375	0.40283203125	11.5	-18.4375	29.9375
18	12	13	16	04	17	-0.220457368947	0.35851788073	0.321591881778	-0.5751953125	-0.8359375	0.400390625	9.3125	-15.6875	16.75
18	12	13	16	04	17	-0.216787443693	0.358077683601	0.321275085474	-0.47509765625	-0.80859375	0.40234375	7.375	-16.0	22.375
18	12	13	16	04	17	-0.213378732962	0.357787795373	0.31957981859	-0.4765625	-0.79150390625	0.39892578125	15.25	-13.6875	24.5625
18	12	13	16	04	17	-0.209038738494	0.358692165292	0.317921982135	-0.5966796875	-0.66162109375	0.41796875	5.25	-12.625	21.0
18	12	13	16	04	17	-0.204529986927	0.360170532038	0.318605351167	-0.5546875	-0.67138671875	0.3974609375	-7.8125	-9.625	19.5
18	12	13	16	04	17	-0.200801743972	0.360954867432	0.319817975202	-0.58447265625	-0.78515625	0.46240234375	-7.4375	-10.8125	15.8125
18	12	13	16	04	17	-0.198546341467	0.360166603443	0.320616025739	-0.38916015625	-0.865234375	0.4404296875	4.6875	-9.75	19.25
18	12	13	16	04	17	-0.195922229717	0.363158027045	0.32079976305	-0.54052734375	-0.87353515625	0.287109375	7.5625	1.125	21.1875
18	12	13	16	04	17	-0.194332309849	0.364922387119	0.320123418706	-0.6494140625	-0.82373046875	0.36669921875	10.3125	-4.5625	9.625
18	12	13	16	04	17	-0.192138378767	0.366149343781	0.320495116552	-0.5341796875	-0.7392578125	0.3359375	3.1875	-6.0625	12.375
18	12	13	16	04	17	-0.189628659544	0.367966265977	0.320482810192	-0.60693359375	-0.7294921875	0.31640625	3.8125	-6.5	11.9375
18	12	13	16	04	17	-0.187984510189	0.369316321803	0.32244226212	-0.5263671875	-0.7119140625	0.3662109375	-8.0	-2.4375	5.375
18	12	13	16	04	17	-0.188175379352	0.37195613421	0.324347702197	-0.4765625	-0.89404296875	0.36865234375	-0.75	11.1875	6.4375
18	12	13	16	04	17	-0.191156472013	0.373524140715	0.322988521677	-0.47509765625	-0.9755859375	0.44482421875	23.3125	15.25	2.3125
18	12	13	16	04	17	-0.195251748882	0.374573298808	0.318420873372	-0.4658203125	-0.8291015625	0.43994140625	39.0625	15.6875	-0.375
18	12	13	16	04	17	-0.199269611685	0.37632356069	0.312300950381	-0.55322265625	-0.7216796875	0.388671875	45.5	15.25	-3.0625
18	12	13	16	04	17	-0.202638838111	0.378177783414	0.306704867923	-0.5751953125	-0.55859375	0.38525390625	35.5	13.5	-7.375
18	12	13	16	04	17	-0.204956296724	0.381103965677	0.303406120016	-0.51171875	-0.56982421875	0.30078125	23.0625	15.6875	-3.375
18	12	13	16	04	17	-0.208732149173	0.387069967853	0.301379927666	-0.58740234375	-0.7373046875	0.23046875	21.9375	31.4375	-7.25
18	12	13	16	04	17	-0.211850616336	0.393367105239	0.297115759241	-0.60498046875	-0.52880859375	0.3125	20.75	35.875	-6.0
18	12	13	16	04	17	-0.209899579795	0.401610710977	0.289428266179	-1.162109375	-0.56591796875	0.43017578125	21.625	22.5	8.0625
18	12	13	16	04	17	-0.211605404075	0.39824784009	0.274836785276	-0.96923828125	-0.62744140625	0.61376953125	84.75	-21.625	8.3125
18	12	13	16	04	17	-0.213075156872	0.395754602452	0.25940115059	-0.599609375	-0.53515625	0.4140625	93.125	-10.5625	26.25
18	12	13	16	04	17	-0.217709254758	0.394098306133	0.240719175993	-0.53515625	-0.673828125	0.4013671875	114.125	8.875	24.4375
18	12	13	16	04	17	-0.222901487965	0.396303220525	0.225709118975	-0.6982421875	-0.453125	0.3916015625	88.375	20.375	4.0625
18	12	13	16	04	17	-0.225762554087	0.399219482639	0.215264808939	-0.84912109375	-0.515625	0.5283203125	55.625	16.625	2.5
18	12	13	16	04	17	-0.229606629916	0.400011125058	0.207146438579	-0.75244140625	-0.64208984375	0.61181640625	52.3125	12.0	-0.6875
18	12	13	16	04	17	-0.232845847046	0.400995338163	0.198849743034	-0.5048828125	-0.64892578125	0.611328125	52.4375	22.5	13.875
18	12	13	16	04	18	-0.237365431294	0.402282221049	0.189025646881	-0.5947265625	-0.740234375	0.7216796875	62.8125	29.1875	12.0
18	12	13	16	04	18	-0.244250617084	0.402751079995	0.179190357761	-0.57275390625	-0.6923828125	0.73779296875	67.4375	30.125	-1.6875
18	12	13	16	04	18	-0.250119655647	0.402522969495	0.170957822222	-0.62109375	-0.640625	0.81689453125	54.0625	24.5	-4.375
18	12	13	16	04	18	-0.256762940905	0.401104361215	0.164482083608	-0.3642578125	-0.640625	0.7822265625	50.5	26.0	-4.3125
18	12	13	16	04	18	-0.265868774163	0.400634213408	0.15820290694	-0.3681640625	-0.78369140625	0.71142578125	61.875	32.4375	-12.3125
18	12	13	16	04	18	-0.276419336638	0.401415318408	0.150385790567	-0.552734375	-0.7197265625	0.61767578125	70.5	32.4375	-24.75
18	12	13	16	04	18	-0.285696015532	0.399095544876	0.14397712041	-0.53076171875	-0.634765625	0.8125	57.375	19.25	-25.125
18	12	13	16	04	18	-0.292602176083	0.395812497268	0.142272772726	-0.3603515625	-0.62548828125	0.85888671875	28.875	13.0	-19.25
18	12	13	16	04	18	-0.3029713589	0.392568851822	0.139584105118	-0.40869140625	-0.65625	0.802734375	44.0625	15.25	-37.0
18	12	13	16	04	18	-0.313108022234	0.3930024474	0.135680142968	-0.65625	-0.62109375	0.6142578125	46.4375	19.1875	-42.625
18	12	13	16	04	18	-0.321712787498	0.393001069759	0.130430701363	-0.736328125	-0.56884765625	0.68310546875	46.75	15.375	-36.0625
18	12	13	16	04	18	-0.326963413025	0.394956178026	0.127318588682	-0.794921875	-0.5830078125	0.62939453125	27.3125	14.1875	-24.0
18	12	13	16	04	18	-0.333433672993	0.394651680317	0.124450166435	-0.60791015625	-0.6298828125	0.69189453125	33.875	13.125	-23.375
18	12	13	16	04	18	-0.339600812498	0.396546815025	0.12115521438	-0.6650390625	-0.6669921875	0.658203125	33.0625	22.8125	-21.25
18	12	13	16	04	18	-0.34660755002	0.397082007472	0.117549945649	-0.373046875	-0.55224609375	0.6328125	34.9375	29.4375	-19.875
18	12	13	16	04	18	-0.353571253274	0.402337597373	0.112730209701	-0.5849609375	-0.486328125	0.4580078125	32.5625	42.75	-27.875
18	12	13	16	04	18	-0.359672498995	0.410452665152	0.105527532795	-0.94970703125	-0.392578125	0.34033203125	34.4375	41.8125	-33.875
18	12	13	16	04	18	-0.363755078112	0.416731488817	0.0994833518999	-0.88232421875	-0.50439453125	0.40673828125	31.9375	33.125	-17.1875
18	12	13	16	04	18	-0.367850955894	0.41857007724	0.0941752156869	-0.607421875	-0.57958984375	0.5634765625	37.3125	24.75	-4.5625
18	12	13	16	04	18	-0.373818439191	0.420690694097	0.0891061095868	-0.5087890625	-0.642578125	0.47900390625	44.8125	29.9375	-10.125
18	12	13	16	04	18	-0.381943197661	0.423384461837	0.0836759546171	-0.70947265625	-0.5322265625	0.478515625	45.0625	29.375	-33.125
18	12	13	16	04	18	-0.386823049961	0.426982337887	0.0810509640815	-0.8056640625	-0.34423828125	0.53662109375	11.75	22.875	-34.3125
18	12	13	16	04	18	-0.391473269451	0.427178268302	0.0812975358448	-0.36767578125	-0.45947265625	0.634765625	7.875	20.375	-19.25
18	12	13	16	04	18	-0.397686402809	0.431742420729	0.0762903627242	-0.783203125	-0.64208984375	0.40087890625	40.375	31.4375	-22.75
18	12	13	16	04	18	-0.406969874983	0.431993517566	0.0677469347977	-0.84912109375	-0.48583984375	0.443359375	66.9375	17.375	-36.875
18	12	13	16	04	18	-0.413812308753	0.431695348055	0.0632314973257	-0.744140625	-0.45654296875	0.55908203125	38.875	12.0625	-30.9375
18	12	13	16	04	18	-0.42089376895	0.430232044277	0.0618279274865	-0.33544921875	-0.49853515625	0.662109375	26.8125	20.8125	-24.75
18	12	13	16	04	18	-0.426199796282	0.437674171436	0.0577380792328	-0.69873046875	-0.5830078125	0.24365234375	28.4375	43.0	-24.1875
18	12	13	16	04	18	-0.435286691675	0.443892331541	0.0501080165262	-1.41650390625	-0.6708984375	0.3544921875	56.0	25.4375	-55.75
18	12	13	16	04	18	-0.441207173718	0.44358745865	0.0454695455001	-1.10791015625	-0.36376953125	0.724609375	27.375	5.5625	-41.4375
18	12	13	16	04	18	-0.44292107233	0.439320088002	0.0460193590377	-0.56884765625	-0.4580078125	0.94921875	1.8125	-5.0625	-4.25
18	12	13	16	04	18	-0.452995197452	0.435051167803	0.0472404045847	-0.1806640625	-0.7958984375	0.84423828125	36.75	19.0625	-28.3125
18	12	13	16	04	18	-0.46640952859	0.433513070083	0.0406475721069	-0.38037109375	-0.5009765625	0.650390625	65.5625	42.75	-51.375
18	12	13	16	04	18	-0.474373298078	0.436836038902	0.031982965542	-0.82177734375	-0.44921875	0.48681640625	51.0625	41.625	-36.875
18	12	13	16	04	18	-0.482835114812	0.437548342572	0.0249016213934	-0.7568359375	-0.48486328125	0.40966796875	56.8125	23.125	-36.75
18	12	13	16	04	18	-0.490420134132	0.43811272219	0.0189820363055	-0.77978515625	-0.4482421875	0.43359375	47.6875	18.4375	-37.0625
18	12	13	16	04	18	-0.49814588459	0.437723877025	0.016417697005	-0.619140625	-0.45556640625	0.52734375	33.625	15.1875	-40.25
18	12	13	16	04	18	-0.505778278532	0.437909876731	0.0188591152487	-0.57568359375	-0.52978515625	0.7021484375	7.25	14.25	-49.4375
18	12	13	16	04	18	-0.512808772885	0.440178156397	0.0219112532095	-0.6455078125	-0.5830078125	0.6220703125	1.5	16.9375	-51.8125
18	12	13	16	04	18	-0.521156995201	0.440899184136	0.021544492248	-0.84375	-0.615234375	0.60595703125	25.0625	11.0	-55.0625
18	12	13	16	04	18	-0.529184332382	0.43708062332	0.0173953327253	-0.734375	-0.44482421875	0.646484375	45.5625	2.3125	-39.8125
18	12	13	16	04	18	-0.537357032818	0.431094130259	0.0127564311516	-0.66943359375	-0.5390625	0.791015625	54.625	0.0625	-29.625
18	12	13	16	04	18	-0.546549201412	0.425582086147	0.00927699370348	-0.35107421875	-0.57470703125	0.74853515625	54.5	13.375	-28.0
18	12	13	16	04	18	-0.553828075826	0.426082631402	0.00610346127205	-0.63671875	-0.62353515625	0.57763671875	37.3125	22.375	-35.875
18	12	13	16	04	18	-0.559559728437	0.42790938657	0.00457755013447	-0.69970703125	-0.56201171875	0.57763671875	19.625	19.5625	-37.6875
18	12	13	16	04	18	-0.563396980401	0.430649885571	0.0046995523227	-0.57080078125	-0.53955078125	0.5126953125	5.9375	18.9375	-27.6875
18	12	13	16	04	18	-0.568706749797	0.433335256875	0.00201409344745	-0.76220703125	-0.623046875	0.4833984375	25.625	21.0	-34.4375
18	12	13	16	04	18	-0.574007338901	0.433816498129	-0.00311263947729	-0.72216796875	-0.3671875	0.408203125	33.8125	16.25	-32.9375
18	12	13	16	04	18	-0.578911868611	0.431513643761	-0.00585930831699	-0.72021484375	-0.34814453125	0.66015625	23.1875	2.625	-31.5
18	12	13	16	04	18	-0.583946110429	0.429964501251	-0.00561486644643	-0.3056640625	-0.39013671875	0.6142578125	12.625	13.0625	-25.8125
18	12	13	16	04	19	-0.58989372072	0.431083222912	-0.00878889764963	-0.70849609375	-0.57470703125	0.52197265625	30.8125	20.125	-35.75
18	12	13	16	04	19	-0.596045821902	0.431501531932	-0.0155023181203	-0.8740234375	-0.54052734375	0.44384765625	48.5625	18.3125	-34.75
18	12	13	16	04	19	-0.60227334739	0.428695580874	-0.0214836054197	-0.677734375	-0.52978515625	0.5322265625	53.5	11.125	-23.125
18	12	13	16	04	19	-0.60758747641	0.426318284553	-0.0254509269375	-0.46923828125	-0.47705078125	0.50537109375	41.1875	12.6875	-18.125
18	12	13	16	04	19	-0.613024107308	0.427908404653	-0.0320427774131	-0.9111328125	-0.5751953125	0.40966796875	45.375	20.3125	-33.375
18	12	13	16	04	19	-0.618323565123	0.42857250758	-0.0380234509004	-0.896484375	-0.408203125	0.5048828125	35.3125	18.75	-38.5625
18	12	13	16	04	19	-0.621940955546	0.428400742589	-0.0415644544384	-0.814453125	-0.4736328125	0.673828125	21.875	12.75	-24.3125
18	12	13	16	04	19	-0.627105652171	0.426920100918	-0.0463234248173	-0.6806640625	-0.60107421875	0.6796875	40.75	19.5	-19.75
18	12	13	16	04	19	-0.632498686297	0.424005439902	-0.0542595128938	-0.7333984375	-0.4716796875	0.64794921875	54.1875	21.375	-17.75
18	12	13	16	04	19	-0.638406324548	0.420640190133	-0.060972076312	-0.56884765625	-0.451171875	0.658203125	51.5625	23.4375	-18.375
18	12	13	16	04	19	-0.643528492403	0.420270978631	-0.0675631677817	-0.58935546875	-0.4111328125	0.49169921875	42.5625	29.4375	-24.1875
18	12	13	16	04	19	-0.648177828529	0.421132487462	-0.0739728369281	-0.693359375	-0.40087890625	0.48291015625	35.8125	29.75	-28.625
18	12	13	16	04	19	-0.651342394613	0.424544386894	-0.0821501933236	-0.96435546875	-0.45654296875	0.3583984375	35.875	30.6875	-28.0
18	12	13	16	04	19	-0.656793194678	0.423152794229	-0.0875846328745	-0.77978515625	-0.4130859375	0.53955078125	41.6875	16.125	-32.5
18	12	13	16	04	19	-0.659892079536	0.422228394953	-0.0963105532286	-0.99560546875	-0.38134765625	0.47705078125	45.8125	15.6875	-18.0
18	12	13	16	04	19	-0.66634318979	0.417273162538	-0.100641135736	-0.61669921875	-0.4560546875	0.7431640625	49.5	11.9375	-23.875
18	12	13	16	04	19	-0.674359006003	0.411976042223	-0.103512795201	-0.34326171875	-0.5234375	0.72900390625	54.25	18.5	-26.75
18	12	13	16	04	19	-0.681816793858	0.409907939088	-0.109007680049	-0.5390625	-0.5126953125	0.50439453125	57.125	26.8125	-35.9375
18	12	13	16	04	19	-0.68760454201	0.410573029833	-0.119076554364	-1.27197265625	-0.4853515625	0.4619140625	58.625	23.4375	-48.6875
18	12	13	16	04	19	-0.693045413425	0.405390368645	-0.124327037177	-0.943359375	-0.33544921875	0.748046875	46.5625	0.25	-30.4375
18	12	13	16	04	19	-0.698938946715	0.40061432468	-0.124322269862	-0.49267578125	-0.560546875	0.7998046875	37.4375	2.0	-20.125
18	12	13	16	04	19	-0.709377449979	0.396709405907	-0.123101980264	-0.31494140625	-0.74072265625	0.80908203125	52.6875	18.0	-50.5625
18	12	13	16	04	19	-0.718785407497	0.394517183838	-0.127986159423	-0.85693359375	-0.5107421875	0.79931640625	54.0	28.0625	-68.0625
18	12	13	16	04	19	-0.72561495348	0.391096023374	-0.131891152702	-0.75439453125	-0.51220703125	0.9033203125	44.375	21.1875	-41.0
18	12	13	16	04	19	-0.731476752429	0.388412019396	-0.135736695653	-0.66796875	-0.541015625	0.69677734375	46.1875	17.6875	-32.375
18	12	13	16	04	19	-0.739900934811	0.384872993064	-0.138178315302	-0.52294921875	-0.5078125	0.70361328125	51.4375	19.8125	-51.5625
18	12	13	16	04	19	-0.745631212767	0.38377089841	-0.140191118583	-0.60205078125	-0.3515625	0.7373046875	24.0	21.375	-48.0
18	12	13	16	04	19	-0.750905739508	0.386774743661	-0.138914204919	-0.35986328125	-0.5869140625	0.61083984375	11.0625	29.4375	-47.625
18	12	13	16	04	19	-0.757082607985	0.390260093152	-0.13983201023	-0.57080078125	-0.560546875	0.49658203125	20.9375	30.6875	-64.9375
18	12	13	16	04	19	-0.761147704079	0.390735915445	-0.146907427128	-0.8779296875	-0.3115234375	0.47802734375	33.5625	28.4375	-47.875
18	12	13	16	04	19	-0.76546798567	0.389081359324	-0.150749954123	-0.65869140625	-0.28076171875	0.595703125	27.125	18.6875	-39.5625
18	12	13	16	04	19	-0.769869779611	0.388291702702	-0.153558931782	-0.5693359375	-0.3251953125	0.53662109375	25.25	19.0625	-40.9375
18	12	13	16	04	19	-0.77336004049	0.391288076678	-0.156490817127	-0.74755859375	-0.43505859375	0.39892578125	17.4375	21.6875	-51.25
18	12	13	16	04	19	-0.776043379532	0.39488797999	-0.160823775467	-1.03759765625	-0.47265625	0.3544921875	18.9375	15.25	-53.6875
18	12	13	16	04	19	-0.778856717483	0.393975402504	-0.165341497348	-0.9482421875	-0.3359375	0.48486328125	26.375	6.3125	-37.5625
18	12	13	16	04	19	-0.782736054297	0.390788222664	-0.166434403124	-0.64306640625	-0.4267578125	0.76416015625	24.4375	7.0	-26.0625
18	12	13	16	04	19	-0.788193877231	0.389397315838	-0.167355398124	-0.38525390625	-0.6240234375	0.64111328125	36.25	24.5625	-35.625
18	12	13	16	04	19	-0.792149886842	0.39018523974	-0.174066682894	-0.80615234375	-0.560546875	0.48583984375	41.3125	36.5625	-45.0
18	12	13	16	04	19	-0.793110538403	0.390238459604	-0.18431656991	-1.1103515625	-0.3740234375	0.50244140625	33.625	32.4375	-26.875
18	12	13	16	04	19	-0.794833498574	0.389696067603	-0.189141442992	-0.64501953125	-0.43017578125	0.59326171875	23.0625	27.6875	-16.375
18	12	13	16	04	19	-0.797348425161	0.389580143739	-0.195003690936	-0.61962890625	-0.4375	0.4453125	33.0	32.8125	-26.75
18	12	13	16	04	19	-0.799991844225	0.390536146719	-0.201096515618	-0.9013671875	-0.51220703125	0.54345703125	30.375	32.4375	-41.0
18	12	13	16	04	19	-0.802460285655	0.389206665776	-0.206657326379	-0.79833984375	-0.39697265625	0.53125	31.6875	23.6875	-29.0625
18	12	13	16	04	19	-0.807120899289	0.38640974088	-0.208555059957	-0.6455078125	-0.5078125	0.7392578125	34.9375	19.1875	-36.375
18	12	13	16	04	19	-0.8136352231	0.381214132734	-0.212273895877	-0.591796875	-0.5478515625	0.65869140625	61.9375	24.5625	-43.0
18	12	13	16	04	19	-0.818887139255	0.375234264898	-0.218683209358	-0.7705078125	-0.38818359375	0.6376953125	61.3125	24.9375	-39.125
18	12	13	16	04	19	-0.82218300608	0.371389176156	-0.22582414984	-0.97265625	-0.39501953125	0.63330078125	47.1875	23.9375	-35.625
18	12	13	16	04	19	-0.824384118694	0.369681987631	-0.230402757686	-0.66796875	-0.41845703125	0.56982421875	30.8125	24.6875	-23.5
18	12	13	16	04	19	-0.826872246567	0.371262465004	-0.232656997632	-0.70556640625	-0.6025390625	0.59912109375	21.0625	26.375	-39.0625
18	12	13	16	04	19	-0.829874558534	0.370718398804	-0.236932634863	-0.55810546875	-0.53955078125	0.47900390625	38.25	32.75	-34.5
18	12	13	16	04	20	-0.832482055191	0.370039494181	-0.242054533056	-0.736328125	-0.52099609375	0.521484375	37.125	31.375	-37.375
18	12	13	16	04	20	-0.835552418681	0.367179207508	-0.247797138046	-0.71875	-0.3671875	0.4951171875	43.1875	28.6875	-37.9375
18	12	13	16	04	20	-0.838746434196	0.363648031942	-0.253052155158	-0.7568359375	-0.34033203125	0.5517578125	42.0625	24.8125	-38.4375
