18	12	12	16	54	23	-0.653647810076	0.274825031631	-0.0933172270408	-0.83984375	-0.193359375	0.2880859375	13.0625	27.375	-24.8125
18	12	12	16	54	23	-0.655971301713	0.28111312018	-0.102411596974	-0.951171875	-0.21923828125	0.33837890625	26.625	25.0	-28.0
18	12	12	16	54	23	-0.661971294147	0.287163464776	-0.113522644949	-1.12255859375	-0.63232421875	0.322265625	67.1875	26.375	-41.75
18	12	12	16	54	23	-0.666300999607	0.286307409467	-0.129451719352	-0.8369140625	-0.32861328125	0.53125	88.0	38.75	-15.125
18	12	12	16	54	23	-0.66776282234	0.290029150147	-0.136347879089	-0.703125	-0.1884765625	0.5791015625	20.125	31.0625	-16.5625
18	12	12	16	54	23	-0.668272732062	0.301635203384	-0.130309825825	-0.658203125	-0.5712890625	0.65966796875	-42.375	18.875	-25.6875
18	12	12	16	54	23	-0.671061360343	0.311575101824	-0.126216907066	-0.4443359375	-0.6904296875	0.560546875	-16.125	30.5625	-30.375
18	12	12	16	54	23	-0.675982102386	0.316019801928	-0.132071620582	-0.3671875	-0.52685546875	0.44580078125	40.0625	49.125	-28.25
18	12	12	16	54	23	-0.67958955159	0.318708274666	-0.14067839393	-0.67041015625	-0.3662109375	0.51708984375	43.9375	39.3125	-23.125
18	12	12	16	54	23	-0.684428241406	0.318960405706	-0.145747693997	-0.89013671875	-0.37255859375	0.62353515625	40.25	7.5625	-33.9375
18	12	12	16	54	23	-0.685820171739	0.319748320703	-0.154350735457	-0.80322265625	-0.1689453125	0.5	34.3125	22.375	-11.6875
18	12	12	16	54	23	-0.686547696783	0.316938589154	-0.163199265819	-0.8828125	-0.0087890625	0.92919921875	31.3125	21.3125	-4.125
18	12	12	16	54	23	-0.688502294396	0.308944119691	-0.168082201823	-0.54296875	-0.01318359375	1.017578125	37.5625	3.25	3.9375
18	12	12	16	54	23	-0.694677323399	0.300587402718	-0.173760880313	-0.31494140625	-0.2900390625	0.91259765625	71.625	16.6875	-12.75
18	12	12	16	54	24	-0.70242941527	0.295094814739	-0.181512301765	-0.7021484375	-0.21923828125	0.97802734375	69.8125	22.6875	-41.625
18	12	12	16	54	24	-0.707629609928	0.288752430962	-0.187618890885	-0.466796875	-0.08837890625	1.009765625	53.25	23.8125	-22.5
18	12	12	16	54	24	-0.70912892046	0.286727572797	-0.193654020537	-0.51708984375	-0.06494140625	0.86962890625	28.125	31.0	-6.9375
18	12	12	16	54	24	-0.712245928328	0.285020435758	-0.1979884997	-0.6669921875	-0.1171875	0.994140625	26.875	23.5	-21.6875
18	12	12	16	54	24	-0.713479706882	0.283316749303	-0.199334877902	-0.5498046875	0.171875	1.11669921875	-7.3125	20.125	-18.75
18	12	12	16	54	24	-0.71601530328	0.282268221758	-0.197191053946	-0.4951171875	-0.04052734375	1.0419921875	-6.9375	6.9375	-22.25
18	12	12	16	54	24	-0.718956467002	0.28166248686	-0.194814010413	-0.57763671875	-0.078125	0.9521484375	-5.75	-0.6875	-26.9375
18	12	12	16	54	24	-0.721088482711	0.27860930373	-0.190723784043	-0.4580078125	-0.06884765625	0.9755859375	-6.25	-12.75	-12.5625
18	12	12	16	54	24	-0.722991442256	0.276416363496	-0.186637500458	-0.43310546875	-0.18359375	0.98681640625	-4.125	-8.4375	-8.0625
18	12	12	16	54	24	-0.725197799582	0.272086499793	-0.182184432903	-0.498046875	-0.107421875	1.05517578125	-1.6875	-20.5	-9.0625
18	12	12	16	54	24	-0.727510989542	0.269276718612	-0.176873057692	-0.42578125	-0.12890625	0.953125	-8.0625	-18.5	-13.375
18	12	12	16	54	24	-0.72902346109	0.267745996132	-0.173391013224	-0.52490234375	-0.07080078125	0.96435546875	-11.5	-11.5625	-13.3125
18	12	12	16	54	24	-0.729521880317	0.266773206631	-0.16820566403	-0.4736328125	0.01220703125	0.9296875	-27.1875	-17.125	-10.3125
18	12	12	16	54	24	-0.729836650653	0.269095985343	-0.162348677934	-0.537109375	-0.1279296875	0.8505859375	-34.4375	-13.25	-13.9375
18	12	12	16	54	24	-0.72980369419	0.272684638371	-0.157214778076	-0.66650390625	-0.1669921875	0.8603515625	-35.6875	-12.4375	-15.0
18	12	12	16	54	24	-0.72915677698	0.27763741345	-0.151849172271	-0.669921875	-0.2138671875	0.8115234375	-41.1875	-10.4375	-13.1875
18	12	12	16	54	24	-0.728205377701	0.284238743102	-0.1454457644	-0.64599609375	-0.263671875	0.77685546875	-49.3125	-8.0625	-14.3125
18	12	12	16	54	24	-0.726360120645	0.291374104357	-0.139461631432	-0.54736328125	-0.1943359375	0.74755859375	-56.4375	-0.25	-10.8125
18	12	12	16	54	24	-0.723970482995	0.300586294786	-0.133295526459	-0.49462890625	-0.23193359375	0.681640625	-63.9375	7.8125	-10.5625
18	12	12	16	54	24	-0.722262059682	0.309863484621	-0.12786369909	-0.60791015625	-0.3291015625	0.6337890625	-54.375	5.625	-16.3125
18	12	12	16	54	24	-0.720827254933	0.3172616487	-0.121887555301	-0.560546875	-0.23779296875	0.68408203125	-55.375	0.0	-17.625
18	12	12	16	54	24	-0.719030010817	0.326404591957	-0.116512035536	-0.58203125	-0.34765625	0.6220703125	-54.3125	7.0625	-16.5
18	12	12	16	54	24	-0.717808061615	0.33433828429	-0.111201963121	-0.58154296875	-0.4052734375	0.681640625	-47.1875	6.0625	-16.875
18	12	12	16	54	24	-0.717006567822	0.340315681152	-0.106745359816	-0.533203125	-0.34228515625	0.623046875	-38.4375	2.6875	-16.375
18	12	12	16	54	24	-0.71588543733	0.347414094065	-0.102417577273	-0.640625	-0.46484375	0.61083984375	-37.1875	1.6875	-15.625
18	12	12	16	54	24	-0.714685458506	0.351483651199	-0.0977123329691	-0.599609375	-0.37060546875	0.671875	-34.1875	-8.6875	-9.875
18	12	12	16	54	24	-0.713529782916	0.356124051263	-0.0921589232918	-0.6025390625	-0.5146484375	0.64501953125	-31.75	-11.0625	-8.5625
18	12	12	16	54	24	-0.713340999413	0.356121212489	-0.090083103622	-0.609375	-0.41162109375	0.7744140625	-8.625	-10.5625	-2.5625
18	12	12	16	54	24	-0.712128909224	0.356796846359	-0.0884363035195	-0.42138671875	-0.26220703125	0.6650390625	-16.9375	-2.4375	3.875
18	12	12	16	54	24	-0.710828548802	0.360144180174	-0.0858096453693	-0.689453125	-0.474609375	0.8203125	-24.5625	-1.6875	-4.3125
18	12	12	16	54	24	-0.71011901264	0.361620554353	-0.0818452596434	-0.5908203125	-0.392578125	0.880859375	-27.125	-8.0625	-6.6875
18	12	12	16	54	24	-0.709888119697	0.363824527686	-0.0797716251778	-0.4423828125	-0.35009765625	0.7392578125	-20.5	6.9375	-7.1875
18	12	12	16	54	24	-0.709123683896	0.366737603626	-0.0789135832066	-0.54833984375	-0.359375	0.6875	-18.4375	7.3125	-6.25
18	12	12	16	54	24	-0.708712954111	0.371079466155	-0.0754975821767	-0.6064453125	-0.46484375	0.65966796875	-26.3125	0.0	-15.375
18	12	12	16	54	24	-0.708344361438	0.375594623496	-0.0729339576011	-0.611328125	-0.47607421875	0.61328125	-22.6875	2.9375	-15.4375
18	12	12	16	54	24	-0.707504653104	0.380057925714	-0.071226529518	-0.65771484375	-0.45654296875	0.61767578125	-22.1875	3.5625	-12.875
18	12	12	16	54	24	-0.706718522268	0.383784961398	-0.0690910585722	-0.5419921875	-0.3935546875	0.6015625	-23.9375	3.5	-10.6875
18	12	12	16	54	24	-0.70631839877	0.387550490987	-0.066951636002	-0.61083984375	-0.5166015625	0.6416015625	-18.75	3.375	-11.875
18	12	12	16	54	24	-0.706463207408	0.389088807535	-0.0659772550503	-0.6015625	-0.50732421875	0.68310546875	-7.0	0.875	-8.0625
18	12	12	16	54	24	-0.706697111692	0.38969350187	-0.0675631490322	-0.63818359375	-0.47119140625	0.7109375	2.875	7.0	-4.0
18	12	12	16	54	24	-0.706844165778	0.389646244221	-0.0692745124046	-0.58544921875	-0.43994140625	0.666015625	5.5625	5.0625	-0.125
18	12	12	16	54	24	-0.707567068128	0.390861684145	-0.0700670227043	-0.67626953125	-0.630859375	0.689453125	7.5	5.5	-6.0625
18	12	12	16	54	24	-0.708369983318	0.388425519028	-0.0713496907202	-0.564453125	-0.45703125	0.72119140625	14.125	-3.5	2.375
18	12	12	16	54	24	-0.708958718721	0.388047480512	-0.0722019769497	-0.5380859375	-0.55615234375	0.71142578125	9.5625	4.8125	1.75
18	12	12	16	54	24	-0.709034892336	0.385187157229	-0.0733021352927	-0.38671875	-0.3681640625	0.69677734375	10.0625	-0.6875	12.0
18	12	12	16	54	24	-0.709404317928	0.387325114133	-0.0730583299113	-0.3828125	-0.5908203125	0.55712890625	2.4375	13.75	0.3125
18	12	12	16	54	24	-0.709137284677	0.388533260543	-0.0756803712023	-0.6533203125	-0.56005859375	0.68603515625	8.125	12.0	3.8125
18	12	12	16	54	24	-0.70664173967	0.391100385888	-0.0758641978244	-0.73193359375	-0.55810546875	0.76025390625	-13.875	2.375	11.0625
18	12	12	16	54	24	-0.704305460003	0.391029903141	-0.0749468895047	-0.65185546875	-0.49658203125	0.92822265625	-15.8125	-3.875	16.4375
18	12	12	16	54	24	-0.70134634418	0.389826742692	-0.0731802512116	-0.40869140625	-0.34423828125	0.87353515625	-21.5625	-5.125	25.25
18	12	12	16	54	24	-0.698893961704	0.391468506713	-0.0736063328805	-0.6376953125	-0.412109375	0.7041015625	-14.25	1.75	11.3125
18	12	12	16	54	25	-0.696570866151	0.392076688351	-0.074155226704	-0.72119140625	-0.3349609375	0.72412109375	-14.0625	-5.375	8.0625
18	12	12	16	54	25	-0.694140054056	0.393974681169	-0.0715318863408	-0.55712890625	-0.38818359375	0.71435546875	-27.4375	-5.0625	6.625
18	12	12	16	54	25	-0.692851284304	0.392688967866	-0.0717142581975	-0.4892578125	-0.35498046875	0.76513671875	-5.9375	-1.4375	13.125
18	12	12	16	54	25	-0.693407333115	0.391472109374	-0.0714097860879	-0.4677734375	-0.4892578125	0.7294921875	5.0	1.1875	3.0
18	12	12	16	54	25	-0.694017785629	0.38848150607	-0.0715318656896	-0.55908203125	-0.431640625	0.69873046875	11.5625	-12.1875	3.5625
18	12	12	16	54	25	-0.693772936272	0.388908344323	-0.0715928260972	-0.61328125	-0.46142578125	0.63623046875	-0.0625	-2.3125	0.0625
18	12	12	16	54	25	-0.692799338997	0.3895813744	-0.0722034726485	-0.59228515625	-0.3681640625	0.6240234375	-5.0	0.125	2.375
18	12	12	16	54	25	-0.691918647169	0.390176934934	-0.0699425570835	-0.6337890625	-0.5078125	0.65185546875	-8.8125	-13.0625	1.3125
18	12	12	16	54	25	-0.691456845204	0.390558068008	-0.0684804113619	-0.6640625	-0.52294921875	0.61083984375	-2.5625	-13.0625	-0.4375
18	12	12	16	54	25	-0.690223750694	0.390490012993	-0.0679298819102	-0.6865234375	-0.4326171875	0.63037109375	-4.4375	-13.25	3.9375
18	12	12	16	54	25	-0.688024584301	0.391404387397	-0.0647559730279	-0.623046875	-0.42529296875	0.60986328125	-19.4375	-19.5	6.1875
18	12	12	16	54	25	-0.686258565151	0.391650765971	-0.0618267455085	-0.57373046875	-0.4931640625	0.65478515625	-13.6875	-16.6875	8.5625
18	12	12	16	54	25	-0.68570122323	0.390791716274	-0.0602391728819	-0.55859375	-0.47705078125	0.64404296875	-1.9375	-13.5625	4.4375
18	12	12	16	54	25	-0.685953941574	0.389331808284	-0.0611554274808	-0.6123046875	-0.4677734375	0.62451171875	11.75	-7.9375	2.6875
18	12	12	16	54	25	-0.685509410375	0.389810238966	-0.0626186480631	-0.67578125	-0.45751953125	0.57421875	6.125	-2.5	1.0
18	12	12	16	54	25	-0.685155574396	0.39000036704	-0.0645728307243	-0.744140625	-0.5126953125	0.68896484375	7.875	-0.5625	2.3125
18	12	12	16	54	25	-0.68557518824	0.388409195937	-0.0662810161514	-0.58935546875	-0.4013671875	0.640625	12.0	-2.5	1.625
18	12	12	16	54	25	-0.684861957544	0.389274535711	-0.0700059411196	-0.75244140625	-0.39599609375	0.5810546875	9.125	5.1875	1.875
18	12	12	16	54	25	-0.681908734885	0.395791474602	-0.0699424872619	-0.71630859375	-0.4736328125	0.42138671875	-23.25	8.6875	0.5625
18	12	12	16	54	25	-0.67916806257	0.402874584923	-0.0683562392235	-0.71533203125	-0.73046875	0.47900390625	-20.125	9.1875	4.5625
18	12	12	16	54	25	-0.678568679955	0.405017247723	-0.071286941733	-0.697265625	-0.67138671875	0.46142578125	17.3125	8.3125	8.6875
18	12	12	16	54	25	-0.678511526342	0.405935068966	-0.0767803814102	-0.6748046875	-0.64013671875	0.47119140625	30.125	15.8125	12.8125
18	12	12	16	54	25	-0.6785584758	0.40433980052	-0.0822717058265	-0.64697265625	-0.52392578125	0.5830078125	31.375	9.625	16.5
18	12	12	16	54	25	-0.67850937795	0.402088673377	-0.0854468947675	-0.51806640625	-0.5830078125	0.59912109375	27.75	3.5	21.5625
18	12	12	16	54	25	-0.679671323417	0.399099387915	-0.092527094675	-0.53369140625	-0.4912109375	0.45556640625	48.1875	12.125	16.9375
18	12	12	16	54	25	-0.678330768937	0.398978606851	-0.100889037345	-0.7568359375	-0.41455078125	0.44580078125	32.625	16.5625	20.6875
18	12	12	16	54	25	-0.676686489818	0.394098012515	-0.106199557345	-0.78857421875	-0.375	0.7275390625	28.125	-9.6875	30.6875
18	12	12	16	54	25	-0.675718851755	0.389220406254	-0.109069604199	-0.5673828125	-0.5478515625	0.6884765625	31.6875	-10.0	35.5
18	12	12	16	54	25	-0.677471252052	0.379811135272	-0.117001116233	-0.5517578125	-0.40869140625	0.80078125	65.25	-0.5	31.0
18	12	12	16	54	25	-0.679105129198	0.37028227005	-0.124932883928	-0.6484375	-0.2744140625	0.80810546875	60.8125	-5.25	23.375
18	12	12	16	54	25	-0.679171679043	0.361130376069	-0.130793036322	-0.55517578125	-0.15478515625	0.849609375	41.6875	-8.375	28.8125
18	12	12	16	54	25	-0.678886066399	0.355647676788	-0.134580938273	-0.5390625	-0.216796875	0.82763671875	25.0	-0.5625	20.9375
18	12	12	16	54	25	-0.679217120311	0.350502643719	-0.135428411355	-0.6337890625	-0.28662109375	0.91845703125	16.1875	-11.8125	12.625
18	12	12	16	54	25	-0.680966128176	0.344419813686	-0.133239137565	-0.3798828125	-0.228515625	1.080078125	6.5	-8.1875	3.25
18	12	12	16	54	25	-0.682339217411	0.342085090661	-0.130303598316	-0.5205078125	-0.2783203125	1.0322265625	-6.6875	-4.0	-6.4375
18	12	12	16	54	25	-0.684688482859	0.337827665593	-0.127135506311	-0.5302734375	-0.291015625	1.0146484375	3.125	-14.6875	-9.125
18	12	12	16	54	25	-0.686881279828	0.334834787732	-0.126890543874	-0.47216796875	-0.23193359375	0.8271484375	10.0625	-2.125	-9.1875
18	12	12	16	54	25	-0.688206657755	0.331225393015	-0.127131471098	-0.62451171875	-0.2060546875	0.94287109375	8.75	-7.25	-4.3125
18	12	12	16	54	25	-0.690602208988	0.328669279311	-0.124937050093	-0.52685546875	-0.22265625	0.923828125	-0.25	-7.75	-16.4375
18	12	12	16	54	25	-0.69269926017	0.327491121592	-0.122122574414	-0.51904296875	-0.2763671875	0.8896484375	-4.875	-5.75	-16.125
18	12	12	16	54	25	-0.695297394207	0.326897194819	-0.119138036648	-0.443359375	-0.2783203125	0.837890625	-5.5625	-1.9375	-20.6875
18	12	12	16	54	25	-0.69792215959	0.326287001764	-0.117673277104	-0.3505859375	-0.21435546875	0.81005859375	-2.375	8.6875	-19.9375
18	12	12	16	54	25	-0.69931276609	0.328172869896	-0.115901112132	-0.546875	-0.2841796875	0.66259765625	-9.4375	0.3125	-19.1875
18	12	12	16	54	25	-0.700596956982	0.330310195242	-0.114192604453	-0.69091796875	-0.34130859375	0.716796875	-8.75	-3.875	-20.0625
18	12	12	16	54	25	-0.701289825399	0.334348621718	-0.111998853752	-0.7001953125	-0.30859375	0.7041015625	-21.25	1.125	-23.5625
18	12	12	16	54	25	-0.701147757707	0.336597308823	-0.10821160989	-0.61962890625	-0.3291015625	0.8427734375	-25.3125	-5.1875	-11.5625
18	12	12	16	54	25	-0.70198800197	0.339825177793	-0.103815127052	-0.51513671875	-0.40966796875	0.78466796875	-23.5625	1.1875	-17.5625
18	12	12	16	54	25	-0.703474052473	0.342459908765	-0.102353460524	-0.55810546875	-0.3916015625	0.74560546875	-9.3125	8.75	-19.625
18	12	12	16	54	25	-0.703956533078	0.34672941429	-0.10113195555	-0.58154296875	-0.34521484375	0.65478515625	-17.875	11.1875	-18.875
18	12	12	16	54	25	-0.703481661268	0.35131359034	-0.1010728467	-0.6318359375	-0.29052734375	0.67333984375	-21.25	14.4375	-14.4375
18	12	12	16	54	26	-0.702125645341	0.356677874772	-0.0991178762199	-0.6123046875	-0.28759765625	0.65234375	-33.375	9.0	-11.9375
18	12	12	16	54	26	-0.700604724991	0.363638204678	-0.0964941258134	-0.70166015625	-0.44873046875	0.5986328125	-33.0	7.625	-12.875
18	12	12	16	54	26	-0.699749303132	0.367360754955	-0.0958836594175	-0.6455078125	-0.369140625	0.6416015625	-17.75	7.0	-8.375
18	12	12	16	54	26	-0.698411666246	0.373100630583	-0.0938092048432	-0.61962890625	-0.5068359375	0.5205078125	-21.875	6.375	-6.625
18	12	12	16	54	26	-0.69820538797	0.374247853062	-0.0952098256323	-0.615234375	-0.408203125	0.6103515625	2.5	6.0	-0.5
18	12	12	16	54	26	-0.696636144688	0.379078946439	-0.0940525932158	-0.54833984375	-0.49658203125	0.478515625	-15.6875	8.1875	0.625
18	12	12	16	54	26	-0.695226779444	0.383714402806	-0.0942959682417	-0.73095703125	-0.54833984375	0.58203125	-10.6875	9.375	-1.25
18	12	12	16	54	26	-0.694323910109	0.385003096428	-0.0948469898303	-0.57568359375	-0.3984375	0.60400390625	-4.3125	4.25	3.875
18	12	12	16	54	26	-0.692964173215	0.389754202057	-0.0943564040682	-0.5712890625	-0.63671875	0.48681640625	-6.875	11.4375	5.0625
18	12	12	16	54	26	-0.693453937405	0.39195222549	-0.0989340637681	-0.83984375	-0.59765625	0.51806640625	22.0625	13.875	-3.6875
18	12	12	16	54	26	-0.693230290696	0.393184498386	-0.102782163192	-0.798828125	-0.416015625	0.5771484375	10.875	9.375	-2.125
18	12	12	16	54	26	-0.691273665246	0.395745933733	-0.102964742475	-0.744140625	-0.5009765625	0.69140625	-11.3125	4.25	7.1875
18	12	12	16	54	26	-0.690081326986	0.394872750119	-0.104912868231	-0.7119140625	-0.45703125	0.71484375	6.6875	-0.375	14.3125
18	12	12	16	54	26	-0.688526355526	0.394036534995	-0.107298052745	-0.611328125	-0.46142578125	0.68798828125	8.3125	4.3125	21.0
18	12	12	16	54	26	-0.689253752248	0.390554747245	-0.112851340468	-0.57568359375	-0.38232421875	0.8154296875	28.875	17.375	14.25
18	12	12	16	54	26	-0.690244726796	0.387694270458	-0.119323409752	-0.62646484375	-0.35205078125	0.66455078125	34.25	16.125	9.1875
18	12	12	16	54	26	-0.691190096688	0.386212002812	-0.125665378285	-0.634765625	-0.36669921875	0.64599609375	30.75	21.3125	5.25
18	12	12	16	54	26	-0.69194811816	0.385066655859	-0.131163138919	-0.6083984375	-0.31787109375	0.6298828125	24.25	20.0625	3.5
18	12	12	16	54	26	-0.69296173005	0.383954751078	-0.134393317736	-0.48876953125	-0.322265625	0.71533203125	14.75	20.0625	1.6875
18	12	12	16	54	26	-0.693401830001	0.385121516355	-0.134945114526	-0.6044921875	-0.42822265625	0.625	3.0	9.0	-3.3125
18	12	12	16	54	26	-0.693765781461	0.385852667405	-0.135555010172	-0.751953125	-0.4580078125	0.63134765625	5.4375	0.4375	-3.8125
18	12	12	16	54	26	-0.693015312415	0.38663601974	-0.13695520573	-0.83203125	-0.4091796875	0.66015625	1.75	0.125	2.0625
18	12	12	16	54	26	-0.692239332094	0.38389925929	-0.133906991237	-0.68212890625	-0.3857421875	0.908203125	-9.6875	-19.375	10.9375
18	12	12	16	54	26	-0.692905788784	0.38133316025	-0.130976466373	-0.52392578125	-0.5419921875	0.7490234375	6.75	-15.5	9.75
18	12	12	16	54	26	-0.694812630675	0.3742613362	-0.13689957226	-0.6474609375	-0.3486328125	0.82275390625	47.875	1.75	14.8125
18	12	12	16	54	26	-0.696016076884	0.368637066326	-0.142267053246	-0.701171875	-0.16845703125	0.732421875	33.25	-1.6875	5.875
18	12	12	16	54	26	-0.695941092274	0.36631048284	-0.14531577135	-0.7021484375	-0.1943359375	0.75439453125	10.1875	2.625	3.875
18	12	12	16	54	26	-0.695054093893	0.366874794379	-0.147763080551	-0.65771484375	-0.263671875	0.7216796875	0.0	13.25	4.375
18	12	12	16	54	26	-0.693956141532	0.369316500652	-0.145077726334	-0.67578125	-0.3876953125	0.73583984375	-20.5625	-1.4375	-0.8125
18	12	12	16	54	26	-0.693268748731	0.371627204069	-0.142755137185	-0.61474609375	-0.39599609375	0.65234375	-15.25	-0.5625	-1.375
18	12	12	16	54	26	-0.692494442672	0.371881600494	-0.14062287995	-0.63232421875	-0.35107421875	0.72412109375	-11.875	-7.1875	3.125
18	12	12	16	54	26	-0.691626705172	0.372240670212	-0.138484027006	-0.60791015625	-0.310546875	0.64404296875	-12.375	-9.5625	2.1875
18	12	12	16	54	26	-0.69137282642	0.371258907407	-0.136284915377	-0.60205078125	-0.33837890625	0.783203125	-8.375	-8.75	3.0
18	12	12	16	54	26	-0.691663524988	0.368504752835	-0.136648251341	-0.61865234375	-0.314453125	0.77392578125	8.25	-6.75	6.0
18	12	12	16	54	26	-0.693280019921	0.365041623307	-0.135738600608	-0.6201171875	-0.40673828125	0.86181640625	12.8125	-9.6875	0.25
18	12	12	16	54	26	-0.695549004631	0.358821744316	-0.138731387112	-0.55517578125	-0.2109375	0.86279296875	29.625	-1.875	1.1875
18	12	12	16	54	26	-0.695740857993	0.3571783052	-0.139038308142	-0.56103515625	-0.26953125	0.85595703125	1.125	3.9375	2.875
18	12	12	16	54	26	-0.696144968578	0.357776767123	-0.137690956436	-0.58154296875	-0.35400390625	0.771484375	-6.3125	2.75	-4.625
18	12	12	16	54	26	-0.696795216574	0.359230677477	-0.134146963828	-0.61767578125	-0.3984375	0.91748046875	-18.125	1.375	-11.375
18	12	12	16	54	26	-0.696200419566	0.362473419111	-0.130610055043	-0.6689453125	-0.37841796875	0.7685546875	-26.125	-0.875	-9.25
18	12	12	16	54	26	-0.695356465894	0.365164375972	-0.125485200902	-0.6396484375	-0.365234375	0.88671875	-35.0	-4.3125	-8.1875
18	12	12	16	54	26	-0.693833157359	0.367607064283	-0.121396388985	-0.5439453125	-0.23974609375	0.78369140625	-36.0625	-1.875	-4.4375
18	12	12	16	54	26	-0.692520763196	0.368994494958	-0.116142329458	-0.5185546875	-0.251953125	0.79833984375	-36.125	-10.1875	-3.5
18	12	12	16	54	26	-0.692094882899	0.370765115839	-0.112663770179	-0.6259765625	-0.3046875	0.65576171875	-22.5	-10.125	-10.1875
18	12	12	16	54	26	-0.692902464378	0.369857212555	-0.11193368446	-0.681640625	-0.29736328125	0.673828125	-0.25	-10.9375	-10.25
18	12	12	16	54	26	-0.694892269252	0.364444597251	-0.112855143245	-0.6416015625	-0.294921875	0.78564453125	22.375	-17.125	-2.5
18	12	12	16	54	26	-0.696552511582	0.358865221073	-0.116387070848	-0.63818359375	-0.34912109375	0.60888671875	39.875	-14.3125	6.875
18	12	12	16	54	26	-0.698694153589	0.353863443615	-0.119439592817	-0.71826171875	-0.4296875	0.654296875	40.9375	-15.5625	2.0
18	12	12	16	54	26	-0.69931124872	0.351730731923	-0.121149662132	-0.73876953125	-0.38232421875	0.564453125	21.1875	-15.0625	1.75
18	12	12	16	54	27	-0.698771107416	0.351491205137	-0.119991614742	-0.74560546875	-0.4072265625	0.7890625	-2.9375	-11.9375	2.4375
18	12	12	16	54	27	-0.695480595442	0.3527145556	-0.118649783022	-0.76220703125	-0.24853515625	0.76220703125	-24.5625	-12.1875	13.25
18	12	12	16	54	27	-0.692775565902	0.353009767701	-0.115899991159	-0.59912109375	-0.3525390625	0.80078125	-20.3125	-12.0	17.3125
18	12	12	16	54	27	-0.69205136388	0.352952909191	-0.115474131798	-0.67333984375	-0.3701171875	0.69482421875	-1.5	-8.125	4.75
18	12	12	16	54	27	-0.691923648518	0.350447701313	-0.117975514914	-0.6044921875	-0.19287109375	0.66357421875	11.9375	-4.3125	5.25
18	12	12	16	54	27	-0.69149759927	0.34825112987	-0.119257397085	-0.57080078125	-0.25146484375	0.59716796875	10.25	-9.5	8.1875
18	12	12	16	54	27	-0.691879477806	0.345146299135	-0.119626303502	-0.685546875	-0.31591796875	0.673828125	14.1875	-19.5	3.9375
18	12	12	16	54	27	-0.69163012528	0.340627226367	-0.119076100814	-0.52001953125	-0.25927734375	0.64892578125	12.125	-23.625	13.1875
18	12	12	16	54	27	-0.691749003215	0.338062266526	-0.116695261527	-0.4677734375	-0.39501953125	0.6611328125	6.3125	-19.5	9.0
18	12	12	16	54	27	-0.69231041669	0.336298192362	-0.115110415752	-0.69873046875	-0.38330078125	0.66015625	7.0625	-23.875	-1.5
18	12	12	16	54	27	-0.691189375791	0.334212187358	-0.111627847092	-0.5302734375	-0.36181640625	0.82568359375	-7.8125	-20.6875	13.125
18	12	12	16	54	27	-0.689914336874	0.332018222983	-0.10869934837	-0.380859375	-0.21826171875	1.0361328125	-18.25	-3.1875	12.625
18	12	12	16	54	27	-0.688819513846	0.330311111903	-0.108699942775	-0.681640625	-0.13330078125	1.08251953125	-13.875	-2.4375	3.25
18	12	12	16	54	27	-0.687233269041	0.328846612219	-0.105221150606	-0.5126953125	-0.13232421875	1.13037109375	-30.125	-6.5625	5.8125
18	12	12	16	54	27	-0.68669334825	0.32647077769	-0.100767106743	-0.4599609375	-0.12255859375	1.18896484375	-29.75	-8.5625	-1.0625
18	12	12	16	54	27	-0.686919537739	0.323532693874	-0.0974687251684	-0.41357421875	-0.0322265625	1.1943359375	-26.125	-3.375	-6.5625
18	12	12	16	54	27	-0.686872348616	0.322806811074	-0.0948462439799	-0.30322265625	0.0537109375	0.87744140625	-30.125	2.5625	-10.125
18	12	12	16	54	27	-0.685517714321	0.32487631707	-0.0909385144531	-0.56640625	-0.01904296875	0.8447265625	-44.375	-7.125	-12.0625
18	12	12	16	54	27	-0.682640309625	0.328472967939	-0.078975106004	-0.42236328125	-0.00048828125	1.01611328125	-90.0	-22.1875	-13.0625
18	12	12	16	54	27	-0.678434550983	0.335555340168	-0.0651214165076	-0.56982421875	-0.32763671875	0.99951171875	-96.4375	-24.5	-7.375
18	12	12	16	54	27	-0.672832761526	0.338430484639	-0.0525498011315	-0.58251953125	-0.08056640625	1.1044921875	-96.75	-37.75	3.5625
18	12	12	16	54	27	-0.667400048514	0.340932480201	-0.0428454352133	-0.51611328125	-0.09130859375	0.84765625	-76.9375	-33.625	8.3125
18	12	12	16	54	27	-0.662698362398	0.342396188345	-0.0344227184005	-0.59521484375	0.0224609375	0.7880859375	-71.625	-38.625	0.125
18	12	12	16	54	27	-0.657198831684	0.346542994642	-0.025084390771	-0.59130859375	-0.01025390625	0.6015625	-79.75	-36.5625	-1.25
18	12	12	16	54	27	-0.651176354624	0.353084188912	-0.0149534358312	-0.60498046875	-0.1611328125	0.486328125	-82.5625	-32.875	-0.625
18	12	12	16	54	27	-0.645025148067	0.362551985193	-0.00280764163617	-0.5986328125	-0.3984375	0.326171875	-84.625	-30.375	-3.1875
18	12	12	16	54	27	-0.636708484396	0.373529133867	0.00781237404167	-0.7294921875	-0.345703125	0.26708984375	-90.5	-28.25	4.625
18	12	12	16	54	27	-0.62753161401	0.382182743331	0.0230701176907	-0.75634765625	-0.5849609375	0.431640625	-106.6875	-35.6875	13.5625
18	12	12	16	54	27	-0.617166547284	0.391649301219	0.0369250159322	-0.81298828125	-0.70751953125	0.5224609375	-95.1875	-43.5625	18.1875
18	12	12	16	54	27	-0.606726478309	0.399825486309	0.0491923892483	-0.80029296875	-0.7666015625	0.45361328125	-80.5625	-45.0625	24.0625
18	12	12	16	54	27	-0.599232937907	0.403618600365	0.056456556077	-0.72509765625	-0.79443359375	0.5283203125	-40.9375	-37.0625	25.875
18	12	12	16	54	27	-0.595564227577	0.40452958602	0.0582258939443	-0.619140625	-0.82177734375	0.5322265625	-0.5	-19.875	23.125
18	12	12	16	54	27	-0.592094361679	0.407282308575	0.0553581678222	-0.9189453125	-0.84814453125	0.4853515625	14.875	-10.0625	20.1875
18	12	12	16	54	27	-0.588009091944	0.409482353939	0.0518795648902	-0.8662109375	-0.53955078125	0.5546875	1.1875	-6.9375	18.8125
18	12	12	16	54	27	-0.583607931708	0.414726615348	0.0557851547356	-0.626953125	-0.66650390625	0.51513671875	-33.4375	-4.125	10.4375
18	12	12	16	54	27	-0.578829674083	0.416117747564	0.0609101660412	-0.42578125	-0.568359375	0.60107421875	-33.8125	-17.4375	19.75
18	12	12	16	54	27	-0.576211537302	0.416366392064	0.0655493264551	-0.2138671875	-0.64599609375	0.4931640625	-15.75	-11.125	19.125
18	12	12	16	54	27	-0.575446246564	0.415837428706	0.0648201011722	-0.44482421875	-0.6083984375	0.47607421875	11.75	-5.5625	11.875
18	12	12	16	54	27	-0.573603703819	0.412655314058	0.0639032855818	-0.4521484375	-0.4462890625	0.67138671875	4.75	-15.4375	17.8125
18	12	12	16	54	27	-0.569636175269	0.409725452114	0.0655511895681	-0.46826171875	-0.47119140625	0.83740234375	-16.0625	-21.75	25.125
18	12	12	16	54	27	-0.563592222939	0.406184345209	0.0668327359886	-0.60009765625	-0.34619140625	0.91845703125	-25.1875	-32.0	30.4375
18	12	12	16	54	27	-0.556570298042	0.402337033084	0.0693958141105	-0.4990234375	-0.22314453125	0.8388671875	-33.625	-37.8125	33.875
18	12	12	16	54	27	-0.550714146333	0.39947069575	0.0700065527922	-0.67578125	-0.45166015625	0.71533203125	-10.4375	-36.5625	31.125
18	12	12	16	54	27	-0.546807280417	0.395441943277	0.0686026769939	-0.658203125	-0.51123046875	0.7138671875	9.5625	-31.875	27.875
18	12	12	16	54	27	-0.5448081615	0.390447883612	0.0689707845054	-0.46337890625	-0.5810546875	0.84619140625	7.5625	-24.8125	21.6875
18	12	12	16	54	27	-0.539039727856	0.386580348306	0.0708588229213	-0.47412109375	-0.47607421875	0.90673828125	-16.6875	-29.125	36.9375
18	12	12	16	54	27	-0.530270417105	0.384824468214	0.0752559190021	-0.515625	-0.50634765625	0.8330078125	-36.125	-35.625	46.4375
18	12	12	16	54	27	-0.520074153562	0.383601226985	0.0819692041114	-0.51904296875	-0.43115234375	0.837890625	-54.6875	-41.6875	45.5625
18	12	12	16	54	27	-0.510119296682	0.380605878692	0.0895363733228	-0.396484375	-0.349609375	0.833984375	-56.125	-47.25	44.6875
18	12	12	16	54	27	-0.503895945443	0.372734076892	0.0922222351701	-0.25927734375	-0.25732421875	0.84765625	-16.6875	-46.25	38.625
18	12	12	16	54	27	-0.498527827947	0.361078676559	0.0877672645186	-0.2021484375	0.12158203125	0.89501953125	9.625	-42.625	43.0625
18	12	12	16	54	28	-0.49132754703	0.35381686834	0.0839224071014	-0.53662109375	0.08984375	0.68212890625	-0.3125	-47.0	38.8125
18	12	12	16	54	28	-0.480292395338	0.351079153385	0.085633527851	-1.0302734375	-0.076171875	0.96484375	-46.6875	-60.1875	35.0
18	12	12	16	54	28	-0.469714488878	0.352407933833	0.100217150564	-0.8037109375	-0.6083984375	0.861328125	-88.25	-60.0	23.375
18	12	12	16	54	28	-0.459950449599	0.35222585518	0.115964152632	-0.55712890625	-0.76123046875	0.82666015625	-80.5625	-57.75	27.3125
18	12	12	16	54	28	-0.448843093634	0.352226474485	0.127011487334	-0.61474609375	-0.6630859375	0.67626953125	-61.875	-55.125	40.25
18	12	12	16	54	28	-0.43669943133	0.35479158551	0.133847917946	-0.875	-0.54150390625	0.630859375	-55.5625	-46.8125	41.1875
18	12	12	16	54	28	-0.421565038293	0.358699541052	0.14324788546	-0.8740234375	-0.3564453125	0.58740234375	-85.0625	-50.6875	45.0
18	12	12	16	54	28	-0.407703521149	0.361989458673	0.153438121582	-0.78857421875	-0.5751953125	0.603515625	-76.625	-46.625	44.9375
18	12	12	16	54	28	-0.398182293778	0.365956626838	0.160029732417	-0.61279296875	-0.58447265625	0.373046875	-45.25	-25.3125	34.3125
18	12	12	16	54	28	-0.391836110073	0.368032981891	0.163936416146	-0.685546875	-0.69921875	0.42822265625	-18.8125	-25.625	23.6875
18	12	12	16	54	28	-0.385986341785	0.370727552183	0.166687017618	-0.56298828125	-0.619140625	0.314453125	-13.8125	-16.625	25.5
18	12	12	16	54	28	-0.381881785773	0.375107152847	0.172173328698	-0.7529296875	-0.9775390625	0.2548828125	-10.5	-19.0625	12.75
18	12	12	16	54	28	-0.376579920823	0.377129227028	0.177792108486	-0.59375	-0.7255859375	0.2900390625	-20.4375	-25.625	16.9375
18	12	12	16	54	28	-0.371322157499	0.378524000791	0.186881730155	-0.4541015625	-0.92919921875	0.50390625	-36.8125	-21.1875	19.25
18	12	12	16	54	28	-0.364493462626	0.375967804718	0.19366003967	-0.21337890625	-0.69775390625	0.56591796875	-31.125	-29.6875	35.25
18	12	12	16	54	28	-0.357414252405	0.373527190013	0.19427075912	-0.556640625	-0.763671875	0.69189453125	-2.4375	-31.1875	40.8125
18	12	12	16	54	28	-0.348760725521	0.370306496629	0.190493913957	-0.68310546875	-0.421875	0.9267578125	-5.875	-29.8125	44.5625
18	12	12	16	54	28	-0.339710140882	0.366564697474	0.188348094639	-0.6142578125	-0.55078125	1.0576171875	-12.0	-27.8125	50.0
18	12	12	16	54	28	-0.329351521892	0.361639689995	0.184390464721	-0.48486328125	-0.2314453125	0.95068359375	-11.375	-32.25	55.875
18	12	12	16	54	28	-0.320239862664	0.358568552154	0.181145780901	-0.58544921875	-0.3408203125	0.77490234375	-4.75	-30.5625	47.75
18	12	12	16	54	28	-0.311999476023	0.357224752184	0.180229744268	-0.60009765625	-0.26806640625	0.623046875	-16.625	-28.0625	35.0
18	12	12	16	54	28	-0.303519129182	0.355580624696	0.184137786596	-0.4453125	-0.48046875	0.552734375	-28.625	-31.5	37.625
18	12	12	16	54	28	-0.29662975103	0.353636373965	0.188903102765	-0.37109375	-0.583984375	0.576171875	-26.0625	-26.875	32.875
18	12	12	16	54	28	-0.288621120782	0.350263610101	0.193960228768	-0.3046875	-0.46240234375	0.43310546875	-26.6875	-39.375	35.3125
18	12	12	16	54	28	-0.276188369415	0.346501960922	0.196047965207	-0.7451171875	-0.337890625	0.79052734375	-37.0	-54.5	45.5625
18	12	12	16	54	28	-0.262871649809	0.337698824795	0.203241837442	-0.55908203125	-0.37451171875	1.13134765625	-66.8125	-70.625	43.125
18	12	12	16	54	28	-0.248831067622	0.328723112635	0.209831054816	-0.658203125	-0.3046875	1.322265625	-75.25	-71.0	41.125
18	12	12	16	54	28	-0.238276293423	0.322991328072	0.214839280955	-0.6142578125	-0.294921875	1.18310546875	-62.9375	-47.25	28.9375
18	12	12	16	54	28	-0.229125542955	0.320189823746	0.218749586028	-0.76953125	-0.3173828125	1.02587890625	-53.3125	-39.625	20.6875
18	12	12	16	54	28	-0.219048723197	0.31792276376	0.221978324399	-0.751953125	-0.2734375	0.904296875	-49.75	-40.3125	26.3125
18	12	12	16	54	28	-0.207579253746	0.317685979343	0.229673840589	-0.53173828125	-0.2998046875	0.3994140625	-59.3125	-39.75	35.4375
18	12	12	16	54	28	-0.195495633143	0.320129439849	0.24200442879	-0.9052734375	-0.62109375	0.37841796875	-74.9375	-46.1875	26.9375
18	12	12	16	54	28	-0.184076316058	0.322988018759	0.255668331554	-0.70751953125	-0.67626953125	0.169921875	-73.3125	-38.875	29.8125
18	12	12	16	54	28	-0.170897415374	0.324644054419	0.266050654862	-0.72802734375	-0.58154296875	0.2451171875	-64.125	-44.6875	39.8125
18	12	12	16	54	28	-0.158687287718	0.32634651055	0.279228592812	-0.98046875	-0.96923828125	0.36669921875	-67.3125	-49.5625	30.8125
18	12	12	16	54	28	-0.142637465906	0.326168000771	0.289425273139	-0.76806640625	-0.5361328125	0.3427734375	-73.4375	-56.375	48.25
18	12	12	16	54	28	-0.125305307419	0.323303562297	0.30059846032	-0.65283203125	-0.830078125	0.435546875	-70.3125	-65.25	63.6875
18	12	12	16	54	28	-0.113281362676	0.319824536864	0.304016415672	-0.44140625	-0.3212890625	0.29736328125	-33.1875	-52.3125	42.75
18	12	12	16	54	28	-0.103148740459	0.3156107319	0.307554143888	-0.53564453125	-0.50390625	0.58740234375	-34.875	-46.6875	33.0625
18	12	12	16	54	28	-0.0882560299386	0.304013336877	0.304501613668	-0.4716796875	-0.0634765625	0.94677734375	-29.8125	-84.125	47.0
18	12	12	16	54	28	-0.0827605714422	0.29503289259	0.316516462757	-0.40771484375	-1.08203125	0.51953125	-43.0	-61.125	10.3125
18	12	12	16	54	28	-0.0773922095235	0.292967354663	0.315550254918	-0.8857421875	-0.3798828125	0.4765625	-3.8125	-45.6875	0.8125
18	12	12	16	54	28	-0.0617675606372	0.284667888154	0.318725495699	-0.673828125	-0.85009765625	0.8818359375	-33.875	-77.9375	60.8125
18	12	12	16	54	28	-0.0525504438961	0.279963863126	0.317316791888	-0.740234375	-0.52783203125	0.57275390625	-1.8125	-59.1875	28.25
18	12	12	16	54	28	-0.0383905063986	0.276240750334	0.323420180296	-0.78662109375	-0.63671875	0.48291015625	-45.75	-65.4375	44.8125
18	12	12	16	54	28	-0.027893034558	0.270385433461	0.332519151579	-0.658203125	-1.0048828125	0.64208984375	-47.5625	-58.3125	33.6875
18	12	12	16	54	28	-0.0201415141868	0.264281080087	0.337950194098	-0.4453125	-1.08154296875	0.5947265625	-17.0625	-47.0625	36.125
18	12	12	16	54	28	-0.0145869223347	0.261710137954	0.339161202568	-0.326171875	-0.87744140625	0.3486328125	10.125	-28.0	36.3125
18	12	12	16	54	28	-0.00665262624909	0.259086224105	0.338490506215	-0.27685546875	-0.57421875	0.29296875	7.0	-33.4375	43.8125
18	12	12	16	54	28	0.00274662601376	0.257572483958	0.338933650099	-0.3046875	-0.349609375	0.19091796875	-8.4375	-33.5	43.5625
18	12	12	16	54	29	0.00958228539883	0.255425887861	0.340689917811	-0.55615234375	-0.6552734375	0.36279296875	-5.5625	-37.3125	26.5
18	12	12	16	54	29	0.0120847163963	0.252802501584	0.340935483788	-0.5810546875	-0.88525390625	0.52783203125	13.25	-28.375	11.6875
18	12	12	16	54	29	0.0151363970911	0.248224705522	0.338982054209	-0.3369140625	-0.76318359375	0.6474609375	16.25	-26.6875	19.9375
18	12	12	16	54	29	0.0209955159882	0.245171475944	0.334829653231	-0.4287109375	-0.681640625	0.744140625	17.1875	-26.8125	34.3125
18	12	12	16	54	29	0.0286246250836	0.242668463396	0.33293673738	-0.50244140625	-0.5068359375	0.67822265625	-3.6875	-30.6875	32.875
18	12	12	16	54	29	0.0371094304356	0.240051628131	0.33258106323	-0.59375	-0.50390625	0.7734375	-17.6875	-33.4375	31.25
18	12	12	16	54	29	0.0454099392116	0.235899751415	0.334532092498	-0.44091796875	-0.5625	0.7216796875	-26.4375	-34.25	32.75
18	12	12	16	54	29	0.0541385644713	0.232850759254	0.334841222874	-0.54052734375	-0.67919921875	0.763671875	-13.3125	-33.5	38.9375
18	12	12	16	54	29	0.0631696826328	0.229485996811	0.333670198023	-0.4765625	-0.6181640625	0.78271484375	-8.5	-33.375	42.6875
18	12	12	16	54	29	0.0726920826664	0.227170387644	0.331600407327	-0.466796875	-0.54296875	0.728515625	-5.0625	-30.4375	46.5
18	12	12	16	54	29	0.0829436159826	0.224478748774	0.3280514613	-0.5859375	-0.4892578125	0.81689453125	-2.5	-37.9375	45.625
18	12	12	16	54	29	0.0923439474693	0.220453627402	0.326530151329	-0.48193359375	-0.46630859375	0.72607421875	-10.8125	-40.125	39.375
18	12	12	16	54	29	0.102294853662	0.215148782314	0.323608182647	-0.44970703125	-0.40966796875	0.78857421875	-8.125	-46.0625	40.875
18	12	12	16	54	29	0.113094041275	0.210502616491	0.321948768336	-0.44677734375	-0.35986328125	0.6201171875	-12.4375	-47.9375	44.4375
18	12	12	16	54	29	0.122310942212	0.205621539079	0.322927742138	-0.642578125	-0.5634765625	0.744140625	-20.3125	-49.6875	32.0625
18	12	12	16	54	29	0.131280832961	0.198538609773	0.327988468774	-0.5224609375	-0.61181640625	0.70703125	-41.8125	-52.25	28.25
18	12	12	16	54	29	0.140803506955	0.19262066231	0.333607268754	-0.6220703125	-0.75244140625	0.7666015625	-41.4375	-49.0	33.5625
18	12	12	16	54	29	0.151850579026	0.186151232327	0.335926682862	-0.47900390625	-0.5703125	0.6982421875	-31.125	-53.5	42.6875
18	12	12	16	54	29	0.162655385136	0.181392797233	0.336418942916	-0.39306640625	-0.4248046875	0.5947265625	-22.5625	-45.4375	45.625
18	12	12	16	54	29	0.173278028173	0.178404958207	0.336302196278	-0.5771484375	-0.40478515625	0.638671875	-19.8125	-43.875	41.125
18	12	12	16	54	29	0.183230735648	0.17474670092	0.338812063153	-0.58544921875	-0.53125	0.6171875	-28.375	-43.3125	38.1875
18	12	12	16	54	29	0.191219427536	0.173153372461	0.341973333063	-0.6845703125	-0.728515625	0.5615234375	-16.75	-34.375	34.1875
18	12	12	16	54	29	0.199831886501	0.171450143305	0.345219654872	-0.64111328125	-0.70361328125	0.5263671875	-18.3125	-34.5625	38.4375
18	12	12	16	54	29	0.208737106088	0.169553123016	0.350763786166	-0.5771484375	-0.76904296875	0.42041015625	-25.75	-32.25	42.75
18	12	12	16	54	29	0.217955661601	0.168212210409	0.356016626748	-0.72900390625	-0.7763671875	0.4755859375	-26.5625	-35.375	40.75
18	12	12	16	54	29	0.227351757039	0.165951524131	0.360222837595	-0.5830078125	-0.67919921875	0.49560546875	-27.5	-34.0	42.625
18	12	12	16	54	29	0.235661709928	0.163089378122	0.361518857266	-0.5341796875	-0.6796875	0.689453125	-17.5	-31.3125	38.9375
18	12	12	16	54	29	0.244875459741	0.160279899621	0.360416148996	-0.33544921875	-0.56982421875	0.609375	-6.4375	-29.875	49.4375
18	12	12	16	54	29	0.25170414182	0.160031100837	0.355400877259	-0.5224609375	-0.55126953125	0.6796875	19.6875	-26.0625	36.1875
18	12	12	16	54	29	0.259405621558	0.160038009347	0.351876096067	-0.51611328125	-0.39794921875	0.607421875	6.0	-25.625	36.9375
18	12	12	16	54	29	0.265375808162	0.159848031641	0.350518230513	-0.6513671875	-0.56787109375	0.74560546875	-1.3125	-21.5	27.0625
18	12	12	16	54	29	0.270997621196	0.159119549202	0.35370072406	-0.5595703125	-0.60498046875	0.58056640625	-20.4375	-15.8125	27.4375
18	12	12	16	54	29	0.277643620374	0.157650796093	0.353814039857	-0.61669921875	-0.57421875	0.84130859375	-15.875	-21.5	29.125
18	12	12	16	54	29	0.286855260592	0.155573204095	0.353930565143	-0.34619140625	-0.380859375	0.67333984375	-24.1875	-21.1875	46.0
18	12	12	16	54	29	0.29377005219	0.153507517402	0.353708176281	-0.6416015625	-0.580078125	0.75244140625	-11.4375	-29.75	29.3125
18	12	12	16	54	29	0.298823354403	0.151059600112	0.355890314446	-0.4833984375	-0.45703125	0.5966796875	-23.75	-20.625	19.5
18	12	12	16	54	29	0.301700074944	0.14972087474	0.357853032449	-0.6005859375	-0.650390625	0.69189453125	-11.5625	-14.3125	11.8125
18	12	12	16	54	29	0.306522301805	0.148195171004	0.358097639324	-0.4873046875	-0.51171875	0.69775390625	-12.0	-16.1875	22.375
18	12	12	16	54	29	0.312497328303	0.147093468986	0.357723992418	-0.57080078125	-0.52685546875	0.767578125	-11.5625	-19.1875	27.375
18	12	12	16	54	29	0.319468935036	0.144963454473	0.359875590556	-0.59130859375	-0.44287109375	0.7529296875	-33.125	-22.0625	26.9375
18	12	12	16	54	29	0.325926793393	0.142455643404	0.364928145636	-0.62255859375	-0.4990234375	0.76171875	-47.8125	-17.625	23.375
18	12	12	16	54	29	0.332531307879	0.137517077212	0.369092661297	-0.54638671875	-0.5126953125	0.86181640625	-50.4375	-24.9375	22.125
18	12	12	16	54	29	0.337586900503	0.13201961052	0.372499159965	-0.43359375	-0.6669921875	0.720703125	-32.1875	-25.8125	20.9375
18	12	12	16	54	29	0.343450782047	0.130007138042	0.372015730688	-0.48876953125	-0.42333984375	0.63037109375	-13.5	-24.5625	23.875
18	12	12	16	54	29	0.349725718771	0.126645875471	0.371026639513	-0.47607421875	-0.384765625	0.6572265625	-16.25	-32.0625	22.1875
18	12	12	16	54	29	0.356570550227	0.121766218367	0.369449082595	-0.38623046875	-0.27587890625	0.71044921875	-23.75	-35.75	21.375
18	12	12	16	54	29	0.364922846594	0.117124425927	0.369988676377	-0.64208984375	-0.43994140625	0.78759765625	-32.8125	-42.5625	26.75
18	12	12	16	54	29	0.373661252934	0.110413787416	0.371769142702	-0.69970703125	-0.45947265625	1.00244140625	-52.375	-47.0	22.5625
18	12	12	16	54	29	0.380369000869	0.103087811693	0.377134155387	-0.64404296875	-0.755859375	0.90478515625	-53.5625	-37.375	22.375
18	12	12	16	54	29	0.387024843475	0.0977175168591	0.382691337106	-0.67578125	-0.72265625	0.77490234375	-48.8125	-32.9375	24.375
18	12	12	16	54	30	0.393970536687	0.0934421210949	0.386646529808	-0.5	-0.5625	0.541015625	-36.8125	-30.8125	30.0
18	12	12	16	54	30	0.400089036743	0.0906990554691	0.391483002543	-0.62353515625	-0.5302734375	0.421875	-34.875	-29.0625	23.9375
18	12	12	16	54	30	0.411073324793	0.0849612573293	0.39215235513	-0.5869140625	-0.14990234375	0.6494140625	-52.1875	-54.5625	31.4375
18	12	12	16	54	30	0.420782990091	0.0752575321703	0.396734760022	-0.45654296875	-0.6767578125	0.57421875	-54.75	-56.5625	39.1875
18	12	12	16	54	30	0.422608740387	0.0692751184777	0.401490510437	-0.42431640625	-0.57763671875	0.31982421875	-29.875	-29.375	0.375
18	12	12	16	54	30	0.427969566852	0.0668931325256	0.402762574394	-0.67041015625	-0.666015625	0.42919921875	-7.875	-36.75	20.1875
18	12	12	16	54	30	0.437319159857	0.0654910619019	0.399110954125	-0.822265625	-0.61572265625	0.84521484375	-2.9375	-47.75	34.4375
18	12	12	16	54	30	0.448002443717	0.0607305764984	0.39422994332	-0.5546875	-0.5439453125	0.89306640625	-10.6875	-55.8125	42.8125
18	12	12	16	54	30	0.455441837623	0.0559078964436	0.393735633142	-0.4912109375	-0.67822265625	0.6748046875	-15.75	-41.0625	34.0
18	12	12	16	54	30	0.463748875595	0.0504154476495	0.392886484891	-0.57958984375	-0.48828125	0.7255859375	-27.8125	-50.4375	28.0
18	12	12	16	54	30	0.470818213828	0.0452874143972	0.394952639575	-0.595703125	-0.65576171875	0.63232421875	-30.3125	-41.3125	29.0
18	12	12	16	54	30	0.479005926236	0.0421144354107	0.394166701278	-0.5126953125	-0.5634765625	0.58837890625	-14.0	-40.1875	38.6875
18	12	12	16	54	30	0.4869271214	0.0389395216161	0.392568970274	-0.43994140625	-0.67431640625	0.53564453125	-1.0625	-40.0625	42.9375
18	12	12	16	54	30	0.494501864886	0.0364986565295	0.390804176853	-0.52197265625	-0.6435546875	0.62744140625	-3.0	-37.9375	38.625
18	12	12	16	54	30	0.503907319067	0.0314942074417	0.389344087734	-0.3427734375	-0.548828125	0.72509765625	-23.5	-40.3125	48.5
18	12	12	16	54	30	0.511841072958	0.026550306074	0.390075876136	-0.326171875	-0.66796875	0.5537109375	-20.9375	-35.125	47.25
18	12	12	16	54	30	0.51916218831	0.0256346248637	0.390134576497	-0.7626953125	-0.69384765625	0.73193359375	-10.25	-34.125	35.6875
18	12	12	16	54	30	0.527537218225	0.0224003423682	0.391609255135	-0.66796875	-0.57568359375	0.724609375	-32.125	-37.25	39.6875
18	12	12	16	54	30	0.535823883067	0.019164904805	0.390866402456	-0.51708984375	-0.5732421875	0.7109375	-20.3125	-37.0	42.5
18	12	12	16	54	30	0.546259063481	0.0180662215408	0.386348589032	-0.54931640625	-0.42529296875	0.755859375	-5.0625	-44.75	50.4375
18	12	12	16	54	30	0.555600380111	0.0157469952838	0.38116273468	-0.42626953125	-0.35205078125	0.75830078125	-7.25	-43.6875	43.0625
18	12	12	16	54	30	0.564587755029	0.0126955949239	0.377327729902	-0.443359375	-0.28076171875	0.6923828125	-16.875	-45.0625	38.5625
18	12	12	16	54	30	0.572459159929	0.00848404128694	0.376471702574	-0.5966796875	-0.51708984375	0.62548828125	-20.1875	-47.625	35.875
18	12	12	16	54	30	0.57818670287	0.00494385336561	0.376282172827	-0.705078125	-0.666015625	0.650390625	-11.875	-43.0	24.875
18	12	12	16	54	30	0.585162296641	-0.00134281532556	0.376598661758	-0.56103515625	-0.69140625	0.6728515625	-25.5	-47.375	34.4375
18	12	12	16	54	30	0.59282612588	-0.00799549289512	0.376642646228	-0.52685546875	-0.81640625	0.66748046875	-20.5	-49.875	43.75
18	12	12	16	54	30	0.601696426811	-0.0130617808214	0.375129462283	-0.53271484375	-0.6728515625	0.6787109375	-17.25	-51.25	48.0625
18	12	12	16	54	30	0.611880458242	-0.0169678570964	0.372316288806	-0.47021484375	-0.52880859375	0.65478515625	-15.375	-52.25	56.3125
18	12	12	16	54	30	0.621083694667	-0.0192867971221	0.369500853726	-0.48974609375	-0.4716796875	0.63330078125	-9.875	-45.0625	50.9375
18	12	12	16	54	30	0.628424611555	-0.0215456379059	0.368290025847	-0.52197265625	-0.470703125	0.541015625	-11.5	-39.8125	40.75
18	12	12	16	54	30	0.634168024944	-0.0211185887036	0.368293538259	-0.732421875	-0.59326171875	0.5947265625	-0.5625	-30.125	33.375
18	12	12	16	54	30	0.641108865268	-0.02142319228	0.366269449778	-0.4921875	-0.52880859375	0.5986328125	1.3125	-30.5	44.5625
18	12	12	16	54	30	0.646545441468	-0.0220336924733	0.364501970777	-0.4951171875	-0.7197265625	0.53564453125	14.0	-29.625	39.375
18	12	12	16	54	30	0.652528399065	-0.0214844258227	0.361573120949	-0.5302734375	-0.5380859375	0.59130859375	12.0	-30.8125	37.25
18	12	12	16	54	30	0.658343355248	-0.025208214882	0.361277055416	-0.41357421875	-0.56640625	0.5859375	-15.6875	-31.125	38.6875
18	12	12	16	54	30	0.664838700728	-0.0297233496057	0.359976008161	-0.34228515625	-0.53955078125	0.60107421875	-17.25	-35.5625	42.0
18	12	12	16	54	30	0.671653972977	-0.0326549323467	0.359021144043	-0.43359375	-0.59423828125	0.4951171875	-6.625	-36.8125	47.5625
18	12	12	16	54	30	0.676988066001	-0.0321648675426	0.357658678937	-0.5947265625	-0.59765625	0.52734375	10.4375	-29.8125	36.5625
18	12	12	16	54	30	0.681098874838	-0.031189311322	0.358097239777	-0.65576171875	-0.6767578125	0.62255859375	7.0	-18.5625	33.1875
18	12	12	16	54	30	0.686294363354	-0.0316779415315	0.356025882377	-0.5283203125	-0.72802734375	0.8857421875	5.125	-21.0625	39.6875
18	12	12	16	54	30	0.691277776457	-0.0315548834918	0.354000627181	-0.40771484375	-0.87890625	0.84423828125	17.0	-13.0625	48.75
18	12	12	16	54	30	0.696005735488	-0.0250862367171	0.34962035016	-0.54638671875	-0.6259765625	0.8583984375	41.75	-5.375	41.0
18	12	12	16	54	30	0.701961065657	-0.0198363052203	0.346799650036	-0.4716796875	-0.38134765625	0.6982421875	19.875	-7.8125	48.125
18	12	12	16	54	30	0.708501925474	-0.0155030572941	0.344912506965	-0.5185546875	-0.2939453125	0.685546875	6.75	-10.9375	50.5
18	12	12	16	54	30	0.714901010061	-0.0140990466425	0.34423646348	-0.4658203125	-0.3203125	0.62646484375	-7.375	-15.125	49.9375
18	12	12	16	54	30	0.719362326602	-0.012207064765	0.342957484573	-0.4677734375	-0.39453125	0.63818359375	5.4375	-11.4375	36.6875
18	12	12	16	54	30	0.722184121765	-0.00891133213131	0.341072081848	-0.52587890625	-0.42626953125	0.6708984375	18.8125	-7.625	24.3125
18	12	12	16	54	30	0.725162966452	-0.00531008989827	0.338380901103	-0.54931640625	-0.4619140625	0.69287109375	25.1875	-10.9375	25.125
18	12	12	16	54	30	0.728162513407	-0.00152590635668	0.335516289706	-0.5693359375	-0.59912109375	0.70361328125	34.6875	-11.625	30.375
18	12	12	16	54	31	0.729448769515	0.00378427108275	0.331917195935	-0.5439453125	-0.65185546875	0.7021484375	51.5625	-5.0	20.25
18	12	12	16	54	31	0.731192839495	0.00701896298347	0.328487467626	-0.49072265625	-0.552734375	0.72119140625	35.8125	-9.0625	18.875
18	12	12	16	54	31	0.732478470583	0.00592037427269	0.328855428673	-0.4453125	-0.56787109375	0.63623046875	4.75	-6.8125	17.1875
18	12	12	16	54	31	0.73269247307	0.00335705481663	0.332653613648	-0.65576171875	-0.69775390625	0.69189453125	-8.8125	-5.3125	11.75
18	12	12	16	54	31	0.733475610445	0.000793474489122	0.337226657877	-0.669921875	-0.53369140625	0.6806640625	-23.0	-3.8125	12.5625
18	12	12	16	54	31	0.734854540316	-0.00176999847751	0.339046260088	-0.6611328125	-0.58447265625	0.98095703125	-18.5	-5.3125	13.125
18	12	12	16	54	31	0.739280807678	-0.00756859479459	0.334544097332	-0.35400390625	-0.34326171875	1.09423828125	-27.5	-28.75	17.75
18	12	12	16	54	31	0.741977553237	-0.0117803280499	0.329788147428	0.060546875	-0.51708984375	0.62158203125	7.4375	-15.5	23.125
18	12	12	16	54	31	0.740859646825	-0.00805680288194	0.330817209243	-0.62548828125	-0.40673828125	0.59619140625	19.5	5.0	-4.25
18	12	12	16	54	31	0.739505527581	-0.00958256584931	0.339723321766	-0.8349609375	-0.33544921875	0.58740234375	-41.6875	10.0	-4.6875
18	12	12	16	54	31	0.737867128022	-0.019470561158	0.351080463263	-0.72021484375	-0.66552734375	0.734375	-76.375	5.5	-1.9375
18	12	12	16	54	31	0.736536103534	-0.0322276508383	0.359020913316	-0.49462890625	-0.83154296875	0.822265625	-71.125	-3.625	-0.375
18	12	12	16	54	31	0.737617878776	-0.0399174259594	0.36108790822	-0.33251953125	-0.74560546875	0.78076171875	-33.0625	-9.4375	16.0
18	12	12	16	54	31	0.737255864722	-0.0479133913244	0.365240425076	-0.39111328125	-0.6201171875	0.6455078125	-43.5	-6.3125	3.1875
18	12	12	16	54	31	0.736339523951	-0.0598764152019	0.371587783638	-0.4521484375	-0.513671875	0.62353515625	-76.3125	-13.0625	-7.9375
18	12	12	16	54	31	0.735429888042	-0.0734880558721	0.379403451247	-0.408203125	-0.50634765625	0.58056640625	-91.5625	-11.5	-3.5625
18	12	12	16	54	31	0.735359761655	-0.0821542363204	0.385563381007	-0.4287109375	-0.4267578125	0.52392578125	-67.625	-7.1875	4.125
18	12	12	16	54	31	0.735490245103	-0.0863666968316	0.390267603916	-0.40380859375	-0.39404296875	0.49072265625	-41.6875	1.6875	8.1875
18	12	12	16	54	31	0.733484308242	-0.0833768465556	0.393812162501	-0.265625	-0.326171875	0.42578125	0.6875	30.9375	0.375
18	12	12	16	54	31	0.729500147393	-0.0723274493525	0.395817307216	-0.41943359375	-0.484375	0.46630859375	55.4375	50.9375	-8.625
18	12	12	16	54	31	0.727781135841	-0.0589597934604	0.391051135301	-0.68017578125	-0.51513671875	0.84033203125	80.375	26.375	-14.0625
18	12	12	16	54	31	0.729934015536	-0.0488291004623	0.381538383737	-0.63232421875	-0.39794921875	1.1103515625	64.25	-2.5	-1.5625
18	12	12	16	54	31	0.730774036036	-0.042846686152	0.376648006045	-0.55859375	-0.52392578125	1.05712890625	36.75	7.1875	2.5625
18	12	12	16	54	31	0.728891968277	-0.0386357909831	0.376958365105	-0.51220703125	-0.63671875	0.96923828125	20.3125	28.8125	-2.125
18	12	12	16	54	31	0.726864540177	-0.0348509238762	0.375791835912	-0.52685546875	-0.64697265625	0.98193359375	26.25	21.125	-8.5625
18	12	12	16	54	31	0.72530408008	-0.0324107099657	0.372997831639	-0.2998046875	-0.44775390625	0.91064453125	19.4375	17.625	-11.1875
18	12	12	16	54	31	0.722470383148	-0.0317991948653	0.372129925323	-0.35546875	-0.5166015625	0.9208984375	8.6875	19.5625	-19.0
18	12	12	16	54	31	0.720336881861	-0.0295410143044	0.370605452183	-0.3291015625	-0.45703125	0.8193359375	17.75	18.5625	-13.0625
18	12	12	16	54	31	0.71799082974	-0.0268567512612	0.369219291771	-0.435546875	-0.447265625	0.79248046875	20.125	14.5625	-17.0625
18	12	12	16	54	31	0.71571212941	-0.0264287354626	0.370185405498	-0.474609375	-0.400390625	0.66455078125	1.0	9.5	-17.5625
18	12	12	16	54	31	0.713621393323	-0.0294188771452	0.373900500812	-0.65234375	-0.57666015625	0.70751953125	-20.0625	1.375	-14.9375
18	12	12	16	54	31	0.71244955393	-0.0312493936102	0.375419961126	-0.46484375	-0.53857421875	0.6650390625	-8.25	2.5	-6.375
18	12	12	16	54	31	0.711781034572	-0.0306391767583	0.375482500831	-0.5244140625	-0.46875	0.6884765625	4.0	1.75	-5.6875
18	12	12	16	54	31	0.712156757247	-0.0270995543553	0.374449923355	-0.46484375	-0.19384765625	0.66943359375	5.875	7.0	-2.0
18	12	12	16	54	31	0.712339411221	-0.0250243474082	0.378661100781	-0.669921875	-0.20751953125	0.65673828125	-24.0	13.375	2.125
18	12	12	16	54	31	0.712298060184	-0.0255133324042	0.385446636681	-0.79541015625	-0.44091796875	0.67822265625	-35.8125	11.125	6.3125
18	12	12	16	54	31	0.710038162165	-0.0331428455304	0.394662318968	-0.6611328125	-0.62109375	0.5673828125	-61.25	5.0625	-8.1875
18	12	12	16	54	31	0.704237967713	-0.0440682798309	0.404671323101	-0.49462890625	-0.986328125	0.4873046875	-51.9375	11.75	-22.375
18	12	12	16	54	31	0.698178892149	-0.0494383165172	0.412474250646	-0.41748046875	-0.93994140625	0.35888671875	-16.375	21.9375	-18.4375
18	12	12	16	54	31	0.693511615165	-0.048464022394	0.415911648102	-0.46533203125	-0.76318359375	0.42431640625	16.8125	23.25	-15.3125
18	12	12	16	54	31	0.690688491894	-0.046204594235	0.41889317072	-0.5322265625	-0.734375	0.46484375	16.5	19.5625	-2.6875
18	12	12	16	54	31	0.689918721331	-0.0439477554064	0.419090678639	-0.49755859375	-0.65478515625	0.66455078125	14.1875	12.4375	4.0
18	12	12	16	54	31	0.688780749124	-0.0434569688415	0.420714727844	-0.47607421875	-0.71875	0.61083984375	5.375	12.0	4.875
18	12	12	16	54	31	0.688253645254	-0.040284445359	0.419812750271	-0.5400390625	-0.689453125	0.70068359375	22.9375	10.25	4.75
18	12	12	16	54	31	0.688182863132	-0.0347295830707	0.417853647983	-0.52783203125	-0.5283203125	0.6787109375	31.1875	13.1875	5.25
18	12	12	16	54	31	0.688534428618	-0.0272825892733	0.414976117381	-0.5400390625	-0.3876953125	0.68603515625	35.875	14.625	4.875
18	12	12	16	54	31	0.687825472452	-0.0229498959661	0.414196792622	-0.57568359375	-0.48486328125	0.65478515625	21.5	11.875	-1.0625
18	12	12	16	54	31	0.686652193123	-0.0187990111539	0.412052351624	-0.56689453125	-0.494140625	0.728515625	26.9375	10.6875	-7.9375
18	12	12	16	54	31	0.685449664728	-0.0149541556419	0.411880172536	-0.60302734375	-0.50390625	0.62353515625	20.125	11.625	-4.0625
18	12	12	16	54	31	0.68521588996	-0.0123297354153	0.409933183411	-0.50244140625	-0.48583984375	0.75537109375	16.5	7.5625	-0.5
18	12	12	16	54	31	0.683837536524	-0.00994872531715	0.410461213238	-0.4970703125	-0.54150390625	0.5703125	14.8125	12.5	-1.0
18	12	12	16	54	32	0.682443064031	-0.00762949494713	0.411382367549	-0.57177734375	-0.56005859375	0.689453125	9.875	15.125	-2.0
18	12	12	16	54	32	0.68128103185	-0.00366214494813	0.411930270915	-0.53564453125	-0.486328125	0.6708984375	14.5625	20.0	1.5625
18	12	12	16	54	32	0.680746395132	6.10370658237e-05	0.412183305508	-0.5048828125	-0.4775390625	0.71728515625	11.625	19.9375	6.4375
18	12	12	16	54	32	0.679029202724	0.00250248964599	0.414741881574	-0.6171875	-0.55126953125	0.67626953125	2.875	21.1875	-0.6875
18	12	12	16	54	32	0.677082488686	0.00518813770291	0.416637976	-0.55517578125	-0.46533203125	0.74462890625	1.0	25.4375	-4.25
18	12	12	16	54	32	0.675673354769	0.00518809712334	0.419808611933	-0.5380859375	-0.44580078125	0.69140625	-16.375	19.1875	-3.75
18	12	12	16	54	32	0.673522720894	0.0050659162514	0.423095559695	-0.4111328125	-0.375	0.63330078125	-17.5	24.6875	-7.6875
18	12	12	16	54	32	0.671656570357	0.00500507440651	0.426713111902	-0.576171875	-0.52197265625	0.66015625	-14.25	19.3125	-4.5
18	12	12	16	54	32	0.670464823611	0.00396724747699	0.427425139713	-0.65576171875	-0.5859375	0.80322265625	-7.0625	5.5	-9.75
18	12	12	16	54	32	0.668948843714	0.000366212870646	0.426943171695	-0.587890625	-0.69140625	0.8935546875	-9.1875	-0.9375	-15.375
18	12	12	16	54	32	0.666647288669	-6.10371075508e-05	0.426771455995	-0.5546875	-0.7119140625	0.71044921875	11.3125	7.0	-10.9375
18	12	12	16	54	32	0.663595576682	0.00317393027846	0.427748142144	-0.76416015625	-0.60009765625	0.568359375	21.25	11.0625	-16.9375
18	12	12	16	54	32	0.661675978922	0.00366207533764	0.428035572381	-0.59130859375	-0.49951171875	0.51171875	8.8125	1.75	-14.5
18	12	12	16	54	32	0.660098475563	0.00128174461274	0.43072722534	-0.59765625	-0.60205078125	0.63623046875	-15.875	4.875	-8.875
18	12	12	16	54	32	0.657353681102	-0.00207521124953	0.434207436152	-0.54296875	-0.60498046875	0.57080078125	-19.0625	6.8125	-15.9375
18	12	12	16	54	32	0.655178271899	-0.00555442730974	0.436907589925	-0.55712890625	-0.65283203125	0.61767578125	-16.9375	4.0	-13.3125
18	12	12	16	54	32	0.653079671627	-0.00653079671627	0.43902823159	-0.57666015625	-0.5576171875	0.49169921875	-4.5	4.3125	-12.5625
18	12	12	16	54	32	0.650819342761	-0.0050659294241	0.441285177545	-0.64208984375	-0.52197265625	0.54736328125	0.625	13.625	-11.4375
18	12	12	16	54	32	0.648325922619	-0.00347906021364	0.442817225438	-0.60986328125	-0.53662109375	0.431640625	10.4375	9.0	-12.6875
18	12	12	16	54	32	0.645777900433	-0.0018311282621	0.443621340298	-0.6826171875	-0.60595703125	0.46826171875	15.9375	4.75	-14.9375
18	12	12	16	54	32	0.64338167137	0.000244144453608	0.442755966618	-0.61767578125	-0.58642578125	0.4375	26.6875	1.5625	-15.375
18	12	12	16	54	32	0.64140342421	0.00213618040226	0.442982781703	-0.66552734375	-0.625	0.4521484375	19.875	2.3125	-9.875
18	12	12	16	54	32	0.640452880377	0.00372320839636	0.442756618151	-0.6015625	-0.580078125	0.49609375	15.0625	1.3125	-3.5
18	12	12	16	54	32	0.640455941579	0.00598157650574	0.442636661425	-0.6923828125	-0.63427734375	0.59423828125	13.25	2.1875	4.375
18	12	12	16	54	32	0.641079456709	0.00964396402551	0.441302910788	-0.6787109375	-0.60009765625	0.66162109375	19.1875	4.4375	9.0625
18	12	12	16	54	32	0.641798800656	0.0135501030666	0.438425181656	-0.62255859375	-0.58544921875	0.73828125	25.3125	4.6875	8.875
18	12	12	16	54	32	0.64227555603	0.0177002671528	0.435304501151	-0.4765625	-0.5	0.71044921875	25.9375	10.4375	9.4375
18	12	12	16	54	32	0.642400813324	0.021850783009	0.432437982176	-0.55908203125	-0.49169921875	0.69873046875	25.875	8.0	4.25
18	12	12	16	54	32	0.641602296278	0.0255737597166	0.429932132323	-0.51220703125	-0.46533203125	0.64453125	25.9375	9.6875	-1.5
18	12	12	16	54	32	0.641184150336	0.0283817829516	0.428107151876	-0.69873046875	-0.53076171875	0.74072265625	17.6875	3.9375	-2.8125
18	12	12	16	54	32	0.640884169985	0.0300910376955	0.425058796169	-0.3759765625	-0.3623046875	0.73291015625	13.3125	8.5	-3.375
18	12	12	16	54	32	0.641968566227	0.0314941795182	0.423706577937	-0.55322265625	-0.47216796875	0.69140625	6.0	1.125	8.3125
18	12	12	16	54	32	0.64275601178	0.0319211275435	0.421749505403	-0.8369140625	-0.6103515625	0.77490234375	10.375	-13.6875	-1.5
18	12	12	16	54	32	0.641606475514	0.0300905624456	0.419070591788	-0.48779296875	-0.51220703125	0.7744140625	6.375	-5.0	-15.8125
18	12	12	16	54	32	0.641614013165	0.0266728808745	0.417122352166	-0.1484375	-0.353515625	0.7177734375	-11.0625	1.9375	-4.0
18	12	12	16	54	32	0.642645740214	0.0240480977913	0.412662916667	-0.27490234375	-0.474609375	0.75390625	6.625	-11.8125	-0.1875
18	12	12	16	54	32	0.643688722382	0.0280766937508	0.407783458585	-0.85546875	-0.45703125	0.68701171875	34.8125	-18.9375	-4.5625
18	12	12	16	54	32	0.643395821692	0.0297252409794	0.404800406931	-0.853515625	-0.3837890625	0.755859375	14.0625	-15.0	-18.875
18	12	12	16	54	32	0.642527346505	0.0264286445366	0.406622701854	-0.63720703125	-0.4482421875	0.74462890625	-23.875	-4.3125	-15.125
18	12	12	16	54	32	0.642652861556	0.0198978851617	0.408150791645	-0.48583984375	-0.576171875	0.74853515625	-31.25	-12.3125	-6.875
18	12	12	16	54	32	0.641373844965	0.0167850977698	0.407969430885	-0.40380859375	-0.53271484375	0.6455078125	-5.4375	-3.875	-11.25
18	12	12	16	54	32	0.640469267743	0.0170295364243	0.408098496534	-0.53369140625	-0.47314453125	0.5439453125	5.0625	-0.625	-6.8125
18	12	12	16	54	32	0.639176664759	0.0184330932732	0.409495439636	-0.60888671875	-0.4169921875	0.515625	1.75	4.5625	-8.8125
18	12	12	16	54	32	0.638245952071	0.0176391967245	0.413697146709	-0.70361328125	-0.4482421875	0.5439453125	-21.4375	3.375	-7.4375
18	12	12	16	54	32	0.63763687483	0.0136719306942	0.419801514797	-0.94580078125	-0.63720703125	0.6044921875	-38.3125	-10.5	-10.5625
18	12	12	16	54	32	0.635931090006	0.0102539997237	0.426273417085	-0.8603515625	-0.6669921875	0.59912109375	-34.875	0.25	-12.1875
18	12	12	16	54	32	0.63392426672	0.00671400629108	0.431588531675	-0.60986328125	-0.65234375	0.537109375	-28.0625	5.5	-8.875
18	12	12	16	54	32	0.633545890714	0.00469971421821	0.434265800812	-0.5361328125	-0.60791015625	0.61962890625	-18.1875	3.9375	1.6875
18	12	12	16	54	32	0.633005430689	0.00512703270446	0.436469177019	-0.568359375	-0.578125	0.5703125	-5.75	8.8125	3.125
18	12	12	16	54	33	0.632639631228	0.00720226497684	0.438483657573	-0.64208984375	-0.55419921875	0.5673828125	-0.3125	10.3125	4.5625
18	12	12	16	54	33	0.631972781105	0.0105593288711	0.438303703025	-0.52685546875	-0.46728515625	0.55126953125	13.6875	12.4375	1.75
18	12	12	16	54	33	0.631343774387	0.0129393735663	0.439084214321	-0.55078125	-0.548828125	0.47412109375	11.1875	8.5	4.3125
18	12	12	16	54	33	0.630559428152	0.0132447387387	0.438052948974	-0.6015625	-0.6689453125	0.59912109375	14.75	-2.75	-3.625
18	12	12	16	54	33	0.628984200574	0.0136722426908	0.437694876499	-0.51611328125	-0.61962890625	0.53857421875	13.375	3.0625	-6.0625
