18	12	13	16	26	08	0.712496618939	-0.291761658402	0.491905273026	-0.6416015625	-0.89453125	0.45361328125	-10.6875	13.25	-39.0
18	12	13	16	26	08	0.709661717991	-0.296877491727	0.490421596633	-0.23681640625	-0.7939453125	0.54248046875	-26.0625	6.6875	-24.3125
18	12	13	16	26	08	0.704975562658	-0.303231047211	0.492567341182	-0.43701171875	-0.83349609375	0.46240234375	-44.125	12.875	-28.375
18	12	13	16	26	08	0.698536292094	-0.313227457495	0.494376930185	-0.41650390625	-1.01953125	0.458984375	-56.75	9.0	-39.3125
18	12	13	16	26	08	0.692765905646	-0.325569457332	0.494763033583	-0.060546875	-0.9892578125	0.634765625	-79.0	6.25	-21.5625
18	12	13	16	26	08	0.686464810028	-0.337403527148	0.496583772952	-0.322265625	-1.0048828125	0.69921875	-89.5625	9.0625	-31.625
18	12	13	16	26	08	0.680229178819	-0.350765104592	0.497369903831	-0.31396484375	-1.056640625	0.68212890625	-94.75	-0.875	-34.75
18	12	13	16	26	08	0.672789598747	-0.366332502193	0.500487590467	-0.2626953125	-0.8984375	0.69189453125	-104.6875	-9.9375	-33.625
18	12	13	16	26	08	0.668345708167	-0.377142295047	0.502266377398	-0.48583984375	-0.70263671875	0.640625	-99.625	-5.9375	-31.8125
18	12	13	16	26	08	0.661086978787	-0.391915750235	0.505687897632	-0.5498046875	-0.6533203125	0.55322265625	-105.3125	-12.375	-31.5
18	12	13	16	26	08	0.653185179123	-0.409354606277	0.507680276579	-0.4921875	-0.8193359375	0.31201171875	-112.125	-24.25	-39.25
18	12	13	16	26	08	0.647515416376	-0.423030384664	0.509089083608	-0.59716796875	-0.84765625	0.10400390625	-87.875	-28.1875	-41.375
18	12	13	16	26	08	0.64387371664	-0.436532829786	0.508433790844	-0.49267578125	-0.7646484375	0.26904296875	-93.8125	-38.6875	-32.5
18	12	13	16	26	08	0.638619371147	-0.449285787156	0.509955542955	-0.5546875	-0.8349609375	0.03125	-85.625	-29.4375	-31.0
18	12	13	16	26	08	0.633747580567	-0.462111425645	0.511551427596	-0.6328125	-0.8037109375	-0.04345703125	-86.3125	-35.875	-30.5
18	12	13	16	26	08	0.630261676439	-0.475534449074	0.51117969593	-0.46728515625	-0.78125	0.05859375	-92.875	-47.5625	-19.9375
18	12	13	16	26	08	0.626433867868	-0.48653457671	0.512353686728	-0.646484375	-0.78515625	-0.16455078125	-71.625	-38.6875	-23.875
18	12	13	16	26	08	0.624412421543	-0.49733259147	0.511737413707	-0.66650390625	-0.80908203125	-0.08642578125	-72.125	-50.1875	-21.8125
18	12	13	16	26	08	0.624938310655	-0.503783652324	0.509948196652	-0.689453125	-0.818359375	-0.14794921875	-34.9375	-46.0625	-19.875
18	12	13	16	26	08	0.626837528929	-0.506658065009	0.508611210182	-0.669921875	-0.69580078125	-0.17333984375	-10.8125	-36.75	-14.3125
18	12	13	16	26	08	0.628497436339	-0.508681910698	0.507278060932	-0.58642578125	-0.7626953125	-0.23681640625	0.125	-30.8125	-10.8125
18	12	13	16	26	08	0.62966050456	-0.510943009274	0.505876915645	-0.40576171875	-0.80029296875	-0.18212890625	-3.375	-27.0625	-2.25
18	12	13	16	26	08	0.628739341306	-0.51392925481	0.506360700463	-0.44677734375	-0.88916015625	-0.24951171875	-12.5625	-17.4375	-2.3125
18	12	13	16	26	08	0.626842009058	-0.517892351204	0.506173396409	-0.326171875	-0.923828125	-0.2529296875	-13.5625	-14.5	-5.6875
18	12	13	16	26	08	0.624956004751	-0.522108962266	0.505690057561	-0.2119140625	-0.93310546875	-0.11328125	-23.9375	-12.9375	1.0625
18	12	13	16	26	08	0.623365493082	-0.526744757201	0.505809247152	-0.46337890625	-1.1298828125	-0.0615234375	-38.0625	-17.8125	-0.875
18	12	13	16	26	08	0.628228924709	-0.530329459516	0.49779802875	-0.248046875	-1.421875	0.44677734375	-30.875	-46.5	1.875
18	12	13	16	26	08	0.637763559603	-0.529302860453	0.487432269786	-0.29931640625	-1.24365234375	0.685546875	-4.0	-50.5625	0.375
18	12	13	16	26	09	0.645612497825	-0.529892957659	0.478258605876	-0.412109375	-0.99072265625	0.64794921875	-17.75	-50.875	-9.8125
18	12	13	16	26	09	0.650204763072	-0.533994318231	0.468686977906	-0.24267578125	-1.09228515625	0.44189453125	-23.3125	-51.1875	-16.3125
18	12	13	16	26	09	0.654870505959	-0.537373467654	0.459062454592	-0.28271484375	-1.0146484375	0.28076171875	-5.875	-51.625	-22.5625
18	12	13	16	26	09	0.657661288423	-0.542059387701	0.450444576201	-0.27734375	-0.88037109375	0.15673828125	-10.3125	-48.8125	-28.4375
18	12	13	16	26	09	0.659135494635	-0.54951355294	0.442394116595	-0.28076171875	-0.68603515625	0.25048828125	-41.75	-57.3125	-25.625
18	12	13	16	26	09	0.656619245328	-0.560244288238	0.437074773731	-0.29541015625	-0.78173828125	-0.04833984375	-57.3125	-54.5	-22.875
18	12	13	16	26	09	0.655094599115	-0.571842103709	0.429995476639	-0.44677734375	-1.08740234375	0.0771484375	-70.6875	-70.0	-24.4375
18	12	13	16	26	09	0.655747329305	-0.582750884233	0.420278863514	-0.3798828125	-1.14404296875	0.20458984375	-68.5625	-84.125	-20.0625
18	12	13	16	26	09	0.656494778936	-0.592224696915	0.411499423539	-0.57080078125	-1.1015625	0.1162109375	-57.75	-79.125	-28.625
18	12	13	16	26	09	0.660957050753	-0.600043288019	0.398747106157	-0.40380859375	-0.98583984375	0.40771484375	-55.1875	-97.625	-22.375
18	12	13	16	26	09	0.663403870626	-0.606762156398	0.389961112285	-0.572265625	-0.81982421875	0.111328125	-40.4375	-80.4375	-24.6875
18	12	13	16	26	09	0.6638352488	-0.614639661219	0.382089799328	-0.53076171875	-0.96484375	-0.0625	-41.8125	-76.1875	-21.25
18	12	13	16	26	09	0.663080411759	-0.621820989967	0.3759123947	-0.48828125	-0.95654296875	-0.33935546875	-23.125	-65.125	-19.5
18	12	13	16	26	09	0.66296815592	-0.628238927351	0.369936475146	-0.4599609375	-0.76416015625	-0.21728515625	-28.125	-66.25	-14.25
18	12	13	16	26	09	0.661523842557	-0.636193302359	0.363172805242	-0.21728515625	-0.7392578125	-0.1064453125	-46.125	-65.875	-6.0625
18	12	13	16	26	09	0.662121479924	-0.640453603323	0.358160844782	-0.451171875	-1.12939453125	-0.1337890625	-23.9375	-55.1875	-3.1875
18	12	13	16	26	09	0.66258700673	-0.646351916109	0.350641336926	-0.349609375	-1.16845703125	0.08642578125	-46.625	-66.625	-2.8125
18	12	13	16	26	09	0.665104298621	-0.650150590888	0.342775602556	-0.5380859375	-1.18994140625	0.16064453125	-37.0625	-69.75	-8.6875
18	12	13	16	26	09	0.667550248861	-0.655404093651	0.332584923292	-0.43310546875	-0.83203125	0.36083984375	-57.125	-85.9375	-10.0625
18	12	13	16	26	09	0.66661238174	-0.661363465349	0.326226257133	-0.4638671875	-0.7900390625	-0.06396484375	-42.375	-64.9375	-10.3125
18	12	13	16	26	09	0.663342031145	-0.668163895376	0.322393504647	-0.66015625	-0.8935546875	-0.3798828125	-36.8125	-56.625	-13.9375
18	12	13	16	26	09	0.659373225198	-0.675547797509	0.31738783403	-0.3515625	-0.92041015625	-0.50830078125	-28.1875	-53.75	-9.125
18	12	13	16	26	09	0.655533614062	-0.681474190038	0.315132220615	-0.47265625	-0.66064453125	-0.46484375	-27.6875	-45.6875	-3.9375
18	12	13	16	26	09	0.651374747492	-0.688240409737	0.311527053148	-0.37744140625	-0.88232421875	-0.18212890625	-55.625	-50.0625	4.6875
18	12	13	16	26	09	0.650029269284	-0.692815233394	0.305666345594	-0.35986328125	-1.3056640625	-0.0771484375	-40.875	-47.1875	-0.5
18	12	13	16	26	09	0.653148411863	-0.694225776706	0.296635948197	-0.14794921875	-1.1103515625	0.20166015625	-22.625	-52.75	-5.4375
18	12	13	16	26	09	0.65533888415	-0.693852327002	0.293397971138	-0.5166015625	-0.92236328125	-0.1435546875	5.3125	-29.0625	-11.5
18	12	13	16	26	09	0.657053632263	-0.695079123476	0.287907290607	-0.35888671875	-0.7216796875	0.1142578125	-22.75	-47.6875	-3.4375
18	12	13	16	26	09	0.653252425706	-0.698540036644	0.289120502716	-0.68896484375	-0.83447265625	-0.57421875	-8.75	-20.8125	-5.5625
18	12	13	16	26	09	0.65218577782	-0.701076822091	0.286204877136	-0.404296875	-0.861328125	-0.28564453125	-13.625	-37.25	0.6875
18	12	13	16	26	09	0.650621586595	-0.703171791666	0.284967372215	-0.3408203125	-0.8857421875	-0.58837890625	10.5	-24.1875	0.0625
18	12	13	16	26	09	0.649964233628	-0.704224558888	0.284485237387	-0.45849609375	-0.70361328125	-0.3916015625	1.75	-29.3125	5.1875
18	12	13	16	26	09	0.64868734733	-0.706060898938	0.283327687834	-0.3603515625	-0.8134765625	-0.2255859375	-15.75	-27.9375	10.0625
18	12	13	16	26	09	0.648020317009	-0.707103265758	0.282536125783	-0.4287109375	-0.9833984375	-0.19775390625	-11.875	-19.875	7.625
18	12	13	16	26	09	0.648869246985	-0.707341332265	0.280092274895	-0.38134765625	-1.1494140625	-0.24658203125	2.6875	-21.1875	0.75
18	12	13	16	26	09	0.649661755957	-0.707767542472	0.277223195749	-0.287109375	-1.11083984375	-0.2666015625	4.75	-20.5	0.6875
18	12	13	16	26	09	0.65118912907	-0.707463979291	0.27453826062	-0.35400390625	-0.890625	-0.10595703125	-0.5625	-25.6875	1.5625
18	12	13	16	26	09	0.652342920099	-0.707457596076	0.271911275172	-0.43310546875	-0.90283203125	-0.07470703125	-7.5	-27.875	0.6875
18	12	13	16	26	09	0.654707553341	-0.70670819056	0.26818169007	-0.3837890625	-0.8818359375	0.0400390625	-5.75	-30.75	-0.4375
18	12	13	16	26	09	0.658150402729	-0.704903922945	0.26446867245	-0.25146484375	-0.900390625	0.00732421875	8.875	-24.125	0.4375
18	12	13	16	26	09	0.660270256241	-0.704459169674	0.260311762143	-0.21533203125	-0.8779296875	-0.01611328125	0.0625	-25.6875	-1.0
18	12	13	16	26	09	0.659386195554	-0.706934269824	0.255746381503	-0.296875	-1.0859375	-0.15087890625	-16.9375	-27.4375	-5.0
18	12	13	16	26	09	0.657072053892	-0.71096844252	0.25031606995	-0.3759765625	-1.224609375	-0.1640625	-32.0625	-34.1875	-7.0
18	12	13	16	26	09	0.657776778207	-0.712891599653	0.242431972074	-0.2841796875	-1.10791015625	0.22412109375	-41.0	-52.8125	1.25
18	12	13	16	26	09	0.661155123915	-0.712365348154	0.234077723432	-0.42041015625	-1.2099609375	0.2392578125	-20.25	-52.625	-8.125
18	12	13	16	26	09	0.663826494182	-0.713875935634	0.220583757813	-0.24169921875	-1.15234375	0.546875	-52.75	-70.5	-17.5
18	12	13	16	26	09	0.666620993726	-0.714228059749	0.210020402803	-0.39111328125	-1.0703125	0.18701171875	-18.1875	-55.4375	-27.1875
18	12	13	16	26	09	0.668172404848	-0.714987809482	0.200933914019	-0.50634765625	-0.7294921875	0.12060546875	-20.25	-59.0	-27.9375
18	12	13	16	26	09	0.6655184557	-0.718984538531	0.193417827046	-0.57763671875	-0.6552734375	-0.11083984375	-34.625	-55.8125	-26.6875
18	12	13	16	26	09	0.660705080296	-0.724791947207	0.185546738485	-0.57080078125	-0.67919921875	-0.18115234375	-47.625	-58.4375	-25.875
18	12	13	16	26	10	0.656937698067	-0.729937557482	0.175785614646	-0.49658203125	-0.89697265625	-0.21240234375	-40.875	-63.5625	-27.0
18	12	13	16	26	10	0.652910146099	-0.735065615543	0.166447225242	-0.46240234375	-0.9111328125	-0.2744140625	-37.0625	-59.0	-26.875
18	12	13	16	26	10	0.649044381916	-0.739436965103	0.158507453436	-0.49609375	-0.8447265625	-0.259765625	-34.4375	-56.5625	-21.4375
18	12	13	16	26	10	0.644969564221	-0.74397028658	0.150881495482	-0.56201171875	-1.0849609375	-0.44091796875	-25.0625	-49.125	-26.8125
18	12	13	16	26	10	0.640320498089	-0.748596979226	0.143310697694	-0.56982421875	-0.91796875	-0.328125	-35.5625	-53.125	-24.0
18	12	13	16	26	10	0.637532994518	-0.751550384059	0.136356985137	-0.49072265625	-0.97265625	-0.40087890625	-16.1875	-48.5625	-20.3125
18	12	13	16	26	10	0.636366467968	-0.752885131631	0.128054560694	-0.3662109375	-0.87109375	-0.0107421875	-30.5	-59.0625	-10.9375
18	12	13	16	26	10	0.634757877247	-0.754568426578	0.120359859032	-0.4287109375	-1.0185546875	-0.1630859375	-23.8125	-52.1875	-15.0625
18	12	13	16	26	10	0.635736658719	-0.754082797473	0.111693364579	-0.33056640625	-1.0517578125	0.0498046875	-19.3125	-54.9375	-12.5
18	12	13	16	26	10	0.636134512827	-0.753815125064	0.104252326608	-0.38916015625	-0.9189453125	-0.01708984375	-15.625	-49.9375	-14.75
18	12	13	16	26	10	0.635398207034	-0.754237814055	0.0952181751174	-0.35498046875	-0.81884765625	0.10400390625	-31.75	-60.4375	-14.3125
18	12	13	16	26	10	0.633240885495	-0.755799699767	0.0872804304826	-0.55419921875	-1.013671875	-0.16015625	-25.5	-52.375	-22.875
18	12	13	16	26	10	0.630921618246	-0.757264633605	0.0774537615898	-0.515625	-1.0078125	-0.02783203125	-36.5625	-62.9375	-23.25
18	12	13	16	26	10	0.629999667952	-0.757684157911	0.0681146705517	-0.4892578125	-1.0615234375	-0.228515625	-13.3125	-59.75	-25.9375
18	12	13	16	26	10	0.627487796675	-0.758771353785	0.0580430789454	-0.51416015625	-0.8955078125	-0.09228515625	-30.8125	-68.5	-24.125
18	12	13	16	26	10	0.622938119418	-0.761551922004	0.0485850228352	-0.5478515625	-0.9033203125	-0.224609375	-36.875	-60.5625	-26.875
18	12	13	16	26	10	0.619210698028	-0.763499913419	0.0399786108633	-0.48828125	-0.89697265625	-0.25244140625	-27.6875	-57.875	-21.25
18	12	13	16	26	10	0.615182312043	-0.765453058372	0.0305180232187	-0.419921875	-0.84521484375	-0.1513671875	-36.125	-60.625	-20.25
18	12	13	16	26	10	0.613903613986	-0.765456872439	0.021057540945	-0.3818359375	-1.06787109375	-0.18310546875	-17.75	-56.5625	-22.1875
18	12	13	16	26	10	0.610174705754	-0.766731484814	0.0139161581386	-0.58251953125	-0.7421875	-0.1611328125	-27.8125	-51.9375	-22.8125
18	12	13	16	26	10	0.608025293221	-0.766470752084	0.00653068724901	-0.60595703125	-0.91015625	-0.24267578125	-12.9375	-58.5	-21.4375
18	12	13	16	26	10	0.605471604415	-0.766299999337	-0.00549318995941	-0.3291015625	-0.93994140625	0.02685546875	-38.75	-72.5625	-22.4375
18	12	13	16	26	10	0.605776133958	-0.764346047915	-0.0177612952123	-0.31787109375	-1.1923828125	-0.08642578125	-15.125	-66.6875	-30.125
18	12	13	16	26	10	0.605109553074	-0.762704153239	-0.0271609593623	-0.482421875	-0.923828125	-0.08154296875	-13.75	-59.375	-29.5
18	12	13	16	26	10	0.602590308059	-0.762743956225	-0.0346674055482	-0.53271484375	-0.86962890625	-0.33984375	-7.6875	-51.375	-26.375
18	12	13	16	26	10	0.599308286002	-0.762517406765	-0.0434573275928	-0.39697265625	-0.65283203125	-0.16455078125	-20.4375	-63.75	-19.3125
18	12	13	16	26	10	0.593207006061	-0.76514487375	-0.051331113499	-0.45703125	-0.79052734375	-0.40625	-28.1875	-51.5	-20.0
18	12	13	16	26	10	0.588622936139	-0.766357277702	-0.0604858284647	-0.40087890625	-0.98046875	-0.326171875	-26.875	-55.375	-20.5625
18	12	13	16	26	10	0.587806901173	-0.764924088091	-0.0671360804995	-0.42578125	-1.0927734375	-0.35791015625	3.125	-47.1875	-17.25
18	12	13	16	26	10	0.585333636663	-0.763863447637	-0.0743416443646	-0.53564453125	-0.9384765625	-0.2421875	-10.8125	-55.1875	-19.9375
18	12	13	16	26	10	0.583964356974	-0.761692639531	-0.0830049671284	-0.37744140625	-0.990234375	-0.18505859375	-8.9375	-61.625	-17.5
18	12	13	16	26	10	0.582344809501	-0.759837599149	-0.0902722956978	-0.38916015625	-0.92822265625	-0.1826171875	-8.25	-55.1875	-13.8125
18	12	13	16	26	10	0.581423274512	-0.757998703146	-0.0961307639467	-0.419921875	-0.86376953125	-0.34521484375	8.1875	-47.4375	-17.0
18	12	13	16	26	10	0.580942140731	-0.754834151547	-0.101991418067	-0.31396484375	-0.7294921875	-0.103515625	1.75	-55.75	-6.5625
18	12	13	16	26	10	0.579179955917	-0.753501586657	-0.107669242516	-0.43505859375	-0.83984375	-0.35302734375	4.375	-46.5625	-15.625
18	12	13	16	26	10	0.578016075597	-0.751420898276	-0.114565593864	-0.2685546875	-0.9150390625	-0.240234375	-0.75	-51.0625	-10.0
18	12	13	16	26	10	0.576473342008	-0.749628966283	-0.121154005705	-0.34326171875	-0.9462890625	-0.18017578125	-7.125	-47.125	-12.75
18	12	13	16	26	10	0.576898858563	-0.745354301817	-0.128966069419	-0.298828125	-1.0	0.05615234375	-7.125	-56.625	-13.8125
18	12	13	16	26	10	0.578973334431	-0.739799260662	-0.136412123388	-0.32470703125	-1.1337890625	0.078125	3.0625	-54.625	-16.5
18	12	13	16	26	10	0.580998074202	-0.73425851798	-0.143616815695	-0.3935546875	-1.03955078125	-0.0009765625	9.875	-54.375	-22.4375
18	12	13	16	26	10	0.582472471367	-0.728716214571	-0.150821489757	-0.34228515625	-0.97998046875	-0.0478515625	12.625	-59.1875	-17.875
18	12	13	16	26	10	0.582155439134	-0.724367870795	-0.158508877693	-0.4072265625	-0.93359375	-0.11572265625	5.5	-60.6875	-21.0625
18	12	13	16	26	10	0.58049494896	-0.720568117697	-0.167660564062	-0.30322265625	-0.94287109375	-0.06640625	-7.375	-65.9375	-16.875
18	12	13	16	26	10	0.578291374315	-0.717996805007	-0.17504376375	-0.47412109375	-1.04736328125	-0.23681640625	-0.75	-56.125	-20.8125
18	12	13	16	26	10	0.574949432693	-0.715207797483	-0.184081474416	-0.361328125	-0.8408203125	-0.08740234375	-15.1875	-65.625	-18.1875
18	12	13	16	26	10	0.572692697218	-0.713561795073	-0.190124453995	-0.533203125	-1.1123046875	-0.47802734375	13.1875	-47.5625	-22.6875
18	12	13	16	26	10	0.570314565103	-0.708864871479	-0.198242905335	-0.33740234375	-0.81640625	0.029296875	-8.3125	-71.8125	-10.9375
18	12	13	16	26	10	0.568980637401	-0.705457863879	-0.203067858897	-0.46240234375	-0.96337890625	-0.248046875	13.9375	-51.1875	-12.25
18	12	13	16	26	10	0.56688590033	-0.70073396013	-0.209652569728	-0.458984375	-0.92041015625	0.09033203125	-7.6875	-63.875	-11.9375
18	12	13	16	26	10	0.567567196096	-0.695253030512	-0.214966304404	-0.37451171875	-0.9951171875	-0.05517578125	15.75	-52.25	-14.625
18	12	13	16	26	11	0.567568820991	-0.690433218953	-0.218445941534	-0.49072265625	-0.8876953125	-0.13232421875	22.125	-49.5	-12.75
18	12	13	16	26	11	0.565445783111	-0.688129939421	-0.223333993999	-0.4443359375	-0.943359375	-0.3046875	11.125	-45.5625	-13.875
18	12	13	16	26	11	0.563671870279	-0.684768241761	-0.228398499035	-0.3515625	-0.87353515625	-0.21435546875	11.0625	-51.375	-8.1875
18	12	13	16	26	11	0.562210563837	-0.68178178244	-0.232794603243	-0.32568359375	-0.8662109375	-0.26318359375	15.1875	-45.3125	-7.125
18	12	13	16	26	11	0.56103056349	-0.678400208137	-0.237363779527	-0.27978515625	-0.9521484375	-0.10400390625	6.8125	-43.875	-3.9375
18	12	13	16	26	11	0.560175239412	-0.674615049164	-0.24163584363	-0.2861328125	-1.00048828125	-0.01220703125	4.0	-42.5	-3.0625
18	12	13	16	26	11	0.560420899601	-0.668452373386	-0.246397208853	-0.19189453125	-0.95361328125	0.234375	2.0625	-50.75	0.75
18	12	13	16	26	11	0.560241411204	-0.66290249124	-0.250060906602	-0.37744140625	-1.01708984375	0.201171875	4.0	-47.4375	-4.875
18	12	13	16	26	11	0.559444564817	-0.658626041778	-0.255613554162	-0.40185546875	-1.21875	-0.02197265625	4.625	-46.1875	-13.875
18	12	13	16	26	11	0.558237044972	-0.653148329133	-0.260868700001	-0.35302734375	-1.015625	0.07470703125	5.625	-56.1875	-7.125
18	12	13	16	26	11	0.556520825885	-0.647097367408	-0.267090933765	-0.40185546875	-0.91552734375	0.10205078125	2.6875	-63.875	-13.5625
18	12	13	16	26	11	0.554737462649	-0.638964297114	-0.274591687144	-0.26953125	-0.95556640625	0.35302734375	-7.4375	-75.5	-6.0
18	12	13	16	26	11	0.553897365099	-0.631656620541	-0.280824438217	-0.33447265625	-0.97216796875	0.28955078125	-1.375	-62.5	-12.875
18	12	13	16	26	11	0.553477251652	-0.624340406611	-0.286565471604	-0.36865234375	-1.07568359375	0.1865234375	9.25	-60.875	-14.0
18	12	13	16	26	11	0.551260694654	-0.619191734639	-0.293086122202	-0.42236328125	-1.103515625	0.01318359375	3.625	-59.125	-16.625
18	12	13	16	26	11	0.547251505302	-0.614513512757	-0.300542762894	-0.42236328125	-1.0244140625	0.0078125	-5.6875	-66.125	-14.125
18	12	13	16	26	11	0.541635084753	-0.610605971137	-0.308232722335	-0.490234375	-0.96240234375	0.03076171875	-15.3125	-68.9375	-13.75
18	12	13	16	26	11	0.536132156404	-0.605345938891	-0.317199318856	-0.29931640625	-0.83056640625	0.17919921875	-24.125	-74.375	-9.1875
18	12	13	16	26	11	0.532722111202	-0.600349986913	-0.322025877486	-0.3251953125	-0.837890625	0.0302734375	4.0625	-59.1875	-2.6875
18	12	13	16	26	11	0.527218665873	-0.598080077204	-0.328001054689	-0.42138671875	-0.935546875	-0.0966796875	-9.625	-54.4375	-6.0
18	12	13	16	26	11	0.522035206355	-0.595582783072	-0.333863273561	-0.37451171875	-1.06787109375	-0.16015625	-2.8125	-54.8125	-2.125
18	12	13	16	26	11	0.516413321501	-0.5933168536	-0.339840370419	-0.3896484375	-0.95263671875	-0.16357421875	-5.9375	-55.0625	-3.8125
18	12	13	16	26	11	0.510501127743	-0.590823878115	-0.34680385077	-0.28125	-0.88134765625	0.00439453125	-21.9375	-54.6875	-1.75
18	12	13	16	26	11	0.50458558991	-0.588327144205	-0.352666691484	-0.22119140625	-0.7099609375	0.06640625	-22.5625	-51.75	4.25
18	12	13	16	26	11	0.500318940379	-0.586686062575	-0.355356456129	-0.42626953125	-1.05810546875	-0.13232421875	4.25	-39.375	3.3125
18	12	13	16	26	11	0.494442302947	-0.58605542438	-0.361325568874	-0.37353515625	-1.14453125	-0.09375	-21.125	-41.6875	-1.0625
18	12	13	16	26	11	0.489815790862	-0.583567448777	-0.366827776085	-0.30859375	-1.19970703125	-0.08154296875	-8.5625	-46.25	0.8125
18	12	13	16	26	11	0.483643062785	-0.580139741516	-0.371948614919	-0.34375	-0.95849609375	0.1669921875	-22.5	-55.375	5.5
18	12	13	16	26	11	0.478033547255	-0.577155927329	-0.376774908989	-0.32080078125	-1.00048828125	0.1884765625	-24.25	-48.25	5.125
18	12	13	16	26	11	0.473143663172	-0.572813890462	-0.381224886503	-0.25439453125	-1.00634765625	0.37890625	-27.9375	-48.75	8.75
18	12	13	16	26	11	0.468628628872	-0.571961302574	-0.384094811343	-0.45166015625	-1.10546875	-0.0517578125	-7.9375	-32.25	1.1875
18	12	13	16	26	11	0.463149550527	-0.570208632185	-0.388012874631	-0.3115234375	-0.96533203125	0.04150390625	-17.125	-40.375	7.9375
18	12	13	16	26	11	0.456652105314	-0.57047944779	-0.390613936649	-0.53466796875	-0.935546875	-0.12451171875	-11.5	-35.3125	4.1875
18	12	13	16	26	11	0.447889814643	-0.570940491438	-0.397351143817	-0.38427734375	-0.85205078125	-0.0625	-41.1875	-44.125	3.125
18	12	13	16	26	11	0.440933201703	-0.570637389635	-0.401991426691	-0.427734375	-0.9326171875	-0.0556640625	-25.8125	-38.75	3.1875
18	12	13	16	26	11	0.433833190065	-0.568109078943	-0.409907668047	-0.17529296875	-0.83251953125	0.154296875	-46.25	-49.4375	2.0
18	12	13	16	26	11	0.42980543216	-0.564203552242	-0.413936444321	-0.26171875	-0.9189453125	0.09716796875	-12.3125	-43.75	1.8125
18	12	13	16	26	11	0.424335157778	-0.561548252525	-0.419818356616	-0.32763671875	-0.966796875	0.10400390625	-30.625	-42.1875	-4.0625
18	12	13	16	26	11	0.419740584157	-0.557253385685	-0.425722055329	-0.201171875	-1.02294921875	0.1826171875	-27.1875	-46.5	0.4375
18	12	13	16	26	11	0.415832792947	-0.551880245681	-0.430725380864	-0.306640625	-1.13037109375	0.18603515625	-16.5	-49.6875	-4.1875
18	12	13	16	26	11	0.410952901306	-0.545719573827	-0.43774754317	-0.1484375	-1.03466796875	0.279296875	-31.75	-56.6875	-1.4375
18	12	13	16	26	11	0.40496529127	-0.542476489647	-0.442196463489	-0.53662109375	-1.087890625	0.0859375	-20.75	-47.625	-8.125
18	12	13	16	26	11	0.396609367789	-0.539554757041	-0.450808985917	-0.42822265625	-1.05517578125	0.0439453125	-45.5625	-56.0	-9.9375
18	12	13	16	26	11	0.389213127694	-0.535450332328	-0.456838679753	-0.43310546875	-0.9638671875	0.0419921875	-25.625	-58.75	-5.3125
18	12	13	16	26	11	0.380071682757	-0.532600851733	-0.465217017179	-0.4287109375	-0.75	-0.0439453125	-42.0625	-59.375	-11.5
18	12	13	16	26	11	0.371397248215	-0.52953862375	-0.4719216965	-0.3935546875	-0.78857421875	-0.025390625	-33.625	-57.375	-3.4375
18	12	13	16	26	11	0.362903001099	-0.527204191641	-0.47947628265	-0.40234375	-0.82861328125	-0.09619140625	-37.6875	-52.75	-7.9375
18	12	13	16	26	11	0.356262076968	-0.524963187254	-0.485778631246	-0.412109375	-1.044921875	-0.2578125	-18.75	-46.0625	-7.25
18	12	13	16	26	11	0.348082270059	-0.524656355151	-0.492002661572	-0.6396484375	-1.06689453125	-0.337890625	-25.0625	-42.25	-12.6875
18	12	13	16	26	11	0.339237067775	-0.523687305057	-0.499150906848	-0.4970703125	-1.00537109375	-0.314453125	-31.4375	-47.625	-6.5
18	12	13	16	26	12	0.329718742242	-0.523570412986	-0.503855649242	-0.59375	-0.90478515625	-0.20068359375	-30.3125	-42.875	0.25
18	12	13	16	26	12	0.319035713645	-0.520760036124	-0.511543584477	-0.24609375	-0.7158203125	0.1005859375	-58.125	-57.1875	7.6875
18	12	13	16	26	12	0.313295425379	-0.517032056962	-0.51532306185	-0.23193359375	-0.9482421875	0.0693359375	-23.75	-42.875	8.0625
18	12	13	16	26	12	0.307983705922	-0.515869655658	-0.52124075477	-0.39892578125	-1.04150390625	-0.212890625	-29.4375	-29.0625	-9.4375
18	12	13	16	26	12	0.303287132331	-0.513799774595	-0.524175868879	-0.3984375	-1.08740234375	-0.150390625	-11.75	-32.25	1.25
18	12	13	16	26	12	0.29815506444	-0.511960016483	-0.527645963579	-0.431640625	-0.931640625	-0.20751953125	-12.1875	-32.9375	-4.5625
18	12	13	16	26	12	0.291691996167	-0.508004286273	-0.531381150582	-0.271484375	-0.78271484375	0.03369140625	-22.0625	-46.8125	4.3125
18	12	13	16	26	12	0.28394344378	-0.504530633337	-0.53639187101	-0.31396484375	-0.69677734375	0.083984375	-37.5625	-46.9375	-0.25
18	12	13	16	26	12	0.279229843085	-0.499928228351	-0.54088193867	-0.31884765625	-0.95458984375	-0.0107421875	-20.875	-42.125	-7.4375
18	12	13	16	26	12	0.275756908874	-0.496032846042	-0.545105124647	-0.4296875	-1.0693359375	-0.1552734375	-11.9375	-34.8125	-15.3125
18	12	13	16	26	12	0.274225625509	-0.492544134845	-0.547596775443	-0.416015625	-1.14794921875	-0.37646484375	14.75	-30.5625	-13.5
18	12	13	16	26	12	0.268670636023	-0.487903921938	-0.549731126457	-0.4873046875	-0.9345703125	-0.1376953125	1.3125	-49.5	-6.1875
18	12	13	16	26	12	0.262572936513	-0.48290959407	-0.554076503408	-0.44970703125	-1.046875	-0.20751953125	-8.4375	-53.0	-9.0625
18	12	13	16	26	12	0.253848670782	-0.477484527897	-0.559150678776	-0.39453125	-0.890625	0.123046875	-37.0625	-58.875	-1.4375
18	12	13	16	26	12	0.248346528083	-0.472340570369	-0.563525066057	-0.33544921875	-1.0166015625	0.046875	-25.5625	-45.3125	-5.1875
18	12	13	16	26	12	0.243775056113	-0.467896740151	-0.567079130283	-0.3623046875	-0.97607421875	0.00390625	-18.375	-39.0	-7.1875
18	12	13	16	26	12	0.240659841941	-0.464840313523	-0.570308283818	-0.42822265625	-0.98193359375	-0.2451171875	-3.375	-30.25	-13.375
18	12	13	16	26	12	0.236637507103	-0.462654708239	-0.573740667209	-0.478515625	-0.85400390625	-0.34716796875	-2.3125	-30.6875	-14.6875
18	12	13	16	26	12	0.229977416232	-0.461541725463	-0.577690086156	-0.58251953125	-0.8515625	-0.37109375	-12.4375	-35.0625	-9.9375
18	12	13	16	26	12	0.222043588145	-0.457453736433	-0.583612091764	-0.29345703125	-0.8974609375	-0.11181640625	-34.75	-50.1875	0.625
18	12	13	16	26	12	0.215877920953	-0.454704696382	-0.587270951488	-0.38623046875	-0.9423828125	-0.09521484375	-24.0	-36.5	0.5
18	12	13	16	26	12	0.211301261708	-0.453180782259	-0.588921396366	-0.53125	-0.98583984375	-0.203125	-6.1875	-26.6875	-3.8125
18	12	13	16	26	12	0.208245993305	-0.449327960936	-0.590071003304	-0.2421875	-0.978515625	0.0107421875	-5.8125	-30.875	4.75
18	12	13	16	26	12	0.207091640589	-0.448057687463	-0.591489858221	-0.35205078125	-0.94189453125	-0.28076171875	5.0625	-13.9375	-5.5
18	12	13	16	26	12	0.203801645906	-0.447338203906	-0.59315495505	-0.38037109375	-0.8076171875	-0.189453125	-7.25	-17.6875	-1.0
18	12	13	16	26	12	0.200502750748	-0.447453779523	-0.594855345141	-0.4189453125	-0.80322265625	-0.2138671875	-9.0	-12.8125	-1.5625
18	12	13	16	26	12	0.197017124784	-0.447377795746	-0.595445808362	-0.3974609375	-0.833984375	-0.19140625	-2.625	-15.8125	5.0625
18	12	13	16	26	12	0.194945167408	-0.448117538856	-0.59490624506	-0.51904296875	-0.97607421875	-0.28369140625	9.1875	-8.5	1.5625
18	12	13	16	26	12	0.193473545387	-0.448406983582	-0.594275050924	-0.44921875	-0.96044921875	-0.25927734375	10.6875	-8.0	2.4375
18	12	13	16	26	12	0.192322876394	-0.450136849701	-0.592715789484	-0.51806640625	-0.96728515625	-0.37548828125	20.125	-2.9375	4.5625
18	12	13	16	26	12	0.191952472286	-0.451774944311	-0.590810789102	-0.42724609375	-0.94482421875	-0.43798828125	28.25	-2.6875	7.9375
18	12	13	16	26	12	0.191038971908	-0.452939364386	-0.587948375843	-0.25244140625	-0.91455078125	-0.3349609375	29.3125	-7.5	23.375
18	12	13	16	26	12	0.190549741485	-0.457514689998	-0.586297506954	-0.3330078125	-0.8701171875	-0.55859375	24.1875	9.4375	20.125
18	12	13	16	26	12	0.188967330851	-0.459173523898	-0.583686881435	-0.24658203125	-0.9208984375	-0.1767578125	14.125	-3.4375	28.0
18	12	13	16	26	12	0.186827816029	-0.462400370544	-0.582578080364	-0.294921875	-0.91845703125	-0.21630859375	-0.0625	4.0625	26.0
18	12	13	16	26	12	0.184140133542	-0.466240132623	-0.580984398801	-0.4306640625	-0.86767578125	-0.15185546875	-4.375	7.75	21.875
18	12	13	16	26	12	0.181513907617	-0.469226268246	-0.579208804065	-0.40966796875	-0.8896484375	-0.14404296875	-0.8125	2.75	22.75
18	12	13	16	26	12	0.179562432607	-0.471427678264	-0.576528463087	-0.3974609375	-0.87353515625	-0.10546875	6.9375	0.875	22.1875
18	12	13	16	26	12	0.178464890807	-0.471552580841	-0.572930892616	-0.35595703125	-0.89501953125	-0.013671875	15.9375	-6.8125	20.3125
18	12	13	16	26	12	0.178766697016	-0.472215068219	-0.569258102789	-0.3798828125	-0.95654296875	-0.1328125	24.5625	-1.25	16.9375
18	12	13	16	26	12	0.180239336353	-0.472662858352	-0.566292097081	-0.37841796875	-1.06201171875	-0.201171875	26.75	0.9375	12.5
18	12	13	16	26	12	0.179381526666	-0.472715183406	-0.563718196764	-0.41064453125	-0.98828125	-0.12841796875	17.5625	-7.8125	15.375
18	12	13	16	26	12	0.178896786733	-0.473395932414	-0.561226869333	-0.46875	-1.07568359375	-0.193359375	19.75	-4.4375	14.625
18	12	13	16	26	12	0.175719574313	-0.471311758542	-0.559568272767	-0.39990234375	-0.94970703125	0.07421875	2.3125	-22.3125	16.5
18	12	13	16	26	12	0.174558548247	-0.469416012087	-0.55669528621	-0.390625	-0.9873046875	0.037109375	16.0	-16.4375	15.0
18	12	13	16	26	12	0.174316852375	-0.469178446852	-0.554261672416	-0.4609375	-0.92236328125	-0.06103515625	16.25	-5.6875	7.8125
18	12	13	16	26	12	0.173280914944	-0.468938805746	-0.551398304193	-0.4443359375	-0.828125	0.0107421875	13.9375	-6.9375	10.75
18	12	13	16	26	12	0.172791130167	-0.46893474146	-0.548891075095	-0.4521484375	-0.84375	-0.0537109375	16.125	-5.25	8.375
18	12	13	16	26	12	0.171930871904	-0.469468323283	-0.54716374392	-0.45263671875	-0.83056640625	-0.10302734375	11.6875	-4.5	8.125
18	12	13	16	26	12	0.171569732821	-0.469604242022	-0.546386427681	-0.45654296875	-0.87548828125	-0.10009765625	7.625	-3.3125	3.1875
18	12	13	16	26	13	0.172240659122	-0.469602987699	-0.545652548744	-0.4375	-0.95361328125	-0.1162109375	11.25	-0.75	1.8125
18	12	13	16	26	13	0.172606867279	-0.47137299717	-0.544309774539	-0.4697265625	-0.92822265625	-0.22119140625	14.9375	3.9375	6.875
18	12	13	16	26	13	0.172361497194	-0.472041012499	-0.543512440691	-0.41162109375	-0.9482421875	-0.1669921875	10.4375	-2.0625	9.5625
18	12	13	16	26	13	0.171808536138	-0.472336149618	-0.542768494451	-0.4833984375	-0.97412109375	-0.1484375	9.9375	-4.9375	5.875
18	12	13	16	26	13	0.171751733859	-0.470577778269	-0.542171518076	-0.3740234375	-0.9736328125	-0.0625	10.8125	-12.375	5.4375
18	12	13	16	26	13	0.172607182353	-0.468932454745	-0.538817611674	-0.3994140625	-0.96044921875	-0.001953125	26.875	-9.4375	9.625
18	12	13	16	26	13	0.174379583523	-0.467901255615	-0.533087603253	-0.49365234375	-0.921875	-0.048828125	45.4375	-7.125	8.0625
18	12	13	16	26	13	0.175839601095	-0.4667897498	-0.526420187241	-0.49658203125	-0.84765625	0.0390625	46.0625	-7.3125	10.6875
18	12	13	16	26	13	0.177736272975	-0.464543534894	-0.518377117574	-0.49951171875	-0.89208984375	0.150390625	53.0625	-10.125	12.1875
18	12	13	16	26	13	0.180602632076	-0.461485806396	-0.511778665075	-0.44873046875	-0.95654296875	0.1396484375	49.8125	-10.5	6.5
18	12	13	16	26	13	0.184322218508	-0.457448684675	-0.505909559343	-0.42578125	-0.98193359375	0.1513671875	50.25	-11.875	0.4375
18	12	13	16	26	13	0.188411855448	-0.453787543005	-0.500905765358	-0.4033203125	-0.96923828125	0.10888671875	47.9375	-9.3125	-2.9375
18	12	13	16	26	13	0.193054562767	-0.449952019196	-0.496460895841	-0.33203125	-0.96875	0.1298828125	45.6875	-7.1875	-3.4375
18	12	13	16	26	13	0.195675370564	-0.445243864087	-0.492789439155	-0.423828125	-0.97021484375	0.291015625	30.375	-14.3125	-5.375
18	12	13	16	26	13	0.198602261838	-0.439439546782	-0.49119576007	-0.39453125	-1.14990234375	0.30029296875	23.0625	-18.0625	-8.75
18	12	13	16	26	13	0.200990148727	-0.433169476319	-0.492862268744	-0.197265625	-1.07470703125	0.3427734375	0.5	-17.625	-9.375
18	12	13	16	26	13	0.202700119701	-0.427617295581	-0.49420742825	-0.4033203125	-1.099609375	0.37744140625	-2.0625	-17.5625	-16.6875
18	12	13	16	26	13	0.204226732351	-0.422247619368	-0.495124701982	-0.361328125	-0.9951171875	0.333984375	1.75	-18.4375	-15.0625
18	12	13	16	26	13	0.205878488213	-0.416884101539	-0.495805205974	-0.3486328125	-0.89990234375	0.31884765625	3.3125	-18.5	-17.5
18	12	13	16	26	13	0.206540873617	-0.412166229177	-0.497980788369	-0.34228515625	-0.85009765625	0.265625	-5.9375	-19.375	-18.125
18	12	13	16	26	13	0.206786835904	-0.407409129179	-0.501769355953	-0.369140625	-0.921875	0.20556640625	-12.4375	-22.625	-21.6875
18	12	13	16	26	13	0.206418354322	-0.402216722347	-0.506280381164	-0.3642578125	-0.96044921875	0.19970703125	-15.75	-26.625	-21.5
18	12	13	16	26	13	0.204955279718	-0.39788667912	-0.510007837202	-0.4140625	-0.888671875	0.19091796875	-15.4375	-27.1875	-18.1875
18	12	13	16	26	13	0.203242987481	-0.394035053206	-0.511586402722	-0.5390625	-0.8662109375	0.138671875	-0.8125	-29.125	-17.8125
18	12	13	16	26	13	0.200196818631	-0.390750010023	-0.514041953205	-0.52734375	-0.81103515625	0.1201171875	-8.8125	-30.75	-14.1875
18	12	13	16	26	13	0.196900016275	-0.388123745658	-0.516603142514	-0.54541015625	-0.82080078125	0.1201171875	-12.125	-28.0625	-12.75
18	12	13	16	26	13	0.19427634584	-0.385439875583	-0.51898578972	-0.47509765625	-0.89453125	0.09814453125	-7.3125	-25.5625	-8.875
18	12	13	16	26	13	0.192080569805	-0.38342870655	-0.521797518672	-0.400390625	-0.89111328125	0.09521484375	-11.875	-19.5625	-6.5
18	12	13	16	26	13	0.190251198117	-0.38233349535	-0.52497611646	-0.44775390625	-0.9716796875	-0.00390625	-8.6875	-16.0625	-7.875
18	12	13	16	26	13	0.186769014197	-0.38183887347	-0.528812659806	-0.455078125	-0.89306640625	0.048828125	-21.875	-16.75	-3.625
18	12	13	16	26	13	0.183044085829	-0.38116382661	-0.532042446206	-0.4599609375	-0.91455078125	0.08056640625	-20.1875	-17.9375	-0.9375
18	12	13	16	26	13	0.178829128295	-0.38115628198	-0.534839471415	-0.4912109375	-0.87451171875	0.078125	-20.625	-16.5625	1.4375
18	12	13	16	26	13	0.175654220341	-0.380604488549	-0.536789043744	-0.4658203125	-0.92626953125	0.017578125	-8.1875	-17.1875	0.875
18	12	13	16	26	13	0.172120075173	-0.38073937196	-0.53888232046	-0.47119140625	-0.87939453125	0.04736328125	-14.0625	-13.5625	2.4375
18	12	13	16	26	13	0.169439050014	-0.381604085262	-0.540910973064	-0.5126953125	-0.97119140625	-0.0859375	-5.3125	-10.75	0.625
18	12	13	16	26	13	0.165530230305	-0.381171197735	-0.543832725671	-0.4267578125	-0.92431640625	0.07666015625	-20.9375	-16.0	4.3125
18	12	13	16	26	13	0.163089681002	-0.381051226981	-0.545056456342	-0.435546875	-0.9677734375	0.10791015625	-10.4375	-9.375	4.625
18	12	13	16	26	13	0.161805884885	-0.380252984848	-0.545110659338	-0.32421875	-0.92529296875	0.13330078125	-1.25	-8.1875	6.9375
18	12	13	16	26	13	0.160283234235	-0.381115199758	-0.544938581589	-0.392578125	-0.94921875	0.11669921875	-3.125	-0.875	9.5625
18	12	13	16	26	13	0.15832736054	-0.383916383113	-0.545844867118	-0.48095703125	-0.9462890625	-0.03564453125	-6.375	3.8125	8.0625
18	12	13	16	26	13	0.155636090889	-0.386099572927	-0.546496297185	-0.45458984375	-0.939453125	0.01025390625	-7.75	-0.6875	12.125
18	12	13	16	26	13	0.19427634584	-0.385439875583	-0.51898578972	-0.47509765625	-0.89453125	0.09814453125	-7.3125	-25.5625	-8.875
18	12	13	16	26	13	0.192080569805	-0.38342870655	-0.521797518672	-0.400390625	-0.89111328125	0.09521484375	-11.875	-19.5625	-6.5
18	12	13	16	26	13	0.190251198117	-0.38233349535	-0.52497611646	-0.44775390625	-0.9716796875	-0.00390625	-8.6875	-16.0625	-7.875
18	12	13	16	26	13	0.152767846986	-0.387748354735	-0.54735199831	-0.3837890625	-0.8994140625	0.04443359375	-10.9375	-2.375	14.75
18	12	13	16	26	13	0.150578054591	-0.389720664192	-0.547562110957	-0.38427734375	-0.9208984375	0.07373046875	-8.25	2.1875	15.25
18	12	13	16	26	13	0.148618639202	-0.391962587662	-0.548393623505	-0.41357421875	-0.9208984375	0.03857421875	-10.9375	4.0625	11.9375
18	12	13	16	26	13	0.146787335608	-0.393792885382	-0.54918604815	-0.37744140625	-0.923828125	0.029296875	-8.9375	2.3125	12.9375
18	12	13	16	26	13	0.144777881047	-0.396002905664	-0.549142746957	-0.44384765625	-0.8994140625	-0.0068359375	-3.0625	1.9375	12.1875
18	12	13	16	26	13	0.14269974	-0.39855829863	-0.549619828356	-0.517578125	-0.93505859375	-0.0927734375	-1.875	1.25	9.1875
18	12	13	16	26	13	0.139403625657	-0.398923860461	-0.549802040244	-0.40625	-0.87158203125	0.10986328125	-9.9375	-8.75	14.375
18	12	13	16	26	13	0.13756966405	-0.400990546943	-0.549180051963	-0.5498046875	-0.95166015625	-0.07373046875	5.125	-1.0625	9.25
18	12	13	16	26	14	0.134886970468	-0.401242961021	-0.548520001628	-0.42919921875	-0.8369140625	0.05908203125	-0.0625	-9.625	12.125
18	12	13	16	26	14	0.13324029482	-0.40197919454	-0.54773174792	-0.4072265625	-0.94482421875	0.07568359375	0.625	-2.625	14.4375
18	12	13	16	26	14	0.132691650157	-0.404727843693	-0.546880030084	-0.50048828125	-0.986328125	-0.12353515625	10.75	5.8125	10.9375
18	12	13	16	26	14	0.131530738444	-0.406860279568	-0.544616602848	-0.45654296875	-0.9248046875	0.01611328125	11.25	3.3125	17.75
18	12	13	16	26	14	0.1304321515	-0.409729074882	-0.543212984724	-0.43408203125	-0.92431640625	0.0	4.8125	7.875	18.375
18	12	13	16	26	14	0.128541046333	-0.412478818195	-0.54278989793	-0.45166015625	-0.869140625	0.05712890625	-7.0625	7.6875	16.4375
18	12	13	16	26	14	0.127808227578	-0.414918973771	-0.542238917768	-0.3740234375	-0.8818359375	0.11669921875	-6.8125	12.3125	16.1875
18	12	13	16	26	14	0.127317175549	-0.417778555434	-0.541311615506	-0.4033203125	-0.86669921875	0.1279296875	-6.25	15.125	15.5625
18	12	13	16	26	14	0.12695450529	-0.421330264431	-0.541448757897	-0.501953125	-0.935546875	0.0380859375	-9.25	17.5625	10.1875
18	12	13	16	26	14	0.126707941915	-0.424190846005	-0.542353936345	-0.46337890625	-1.0146484375	-0.03759765625	-7.375	12.875	10.375
18	12	13	16	26	14	0.12591594224	-0.427613713685	-0.541444655167	-0.552734375	-0.9501953125	-0.07861328125	3.25	10.8125	12.6875
18	12	13	16	26	14	0.12463028075	-0.43101814038	-0.538986292509	-0.65576171875	-0.88134765625	-0.06884765625	11.8125	7.0625	11.3125
18	12	13	16	26	14	0.123231133203	-0.431034305439	-0.537236470756	-0.3779296875	-0.8623046875	0.16455078125	1.75	-2.75	17.0625
18	12	13	16	26	14	0.122617286078	-0.434134771466	-0.534657753134	-0.56689453125	-0.87255859375	0.01513671875	9.4375	10.625	13.8125
18	12	13	16	26	14	0.119873033701	-0.437683057369	-0.533264101553	-0.623046875	-0.798828125	-0.00244140625	-2.875	6.625	15.125
18	12	13	16	26	14	0.117248850516	-0.441102260635	-0.53167867613	-0.6357421875	-0.93359375	-0.14990234375	8.0625	0.8125	19.25
18	12	13	16	26	14	0.114078283037	-0.445326459625	-0.525834354395	-0.63330078125	-0.7783203125	-0.17578125	33.1875	-2.6875	32.4375
18	12	13	16	26	14	0.111204667514	-0.449152112095	-0.517083393622	-0.6494140625	-0.70458984375	0.0068359375	42.1875	-0.75	36.25
18	12	13	16	26	14	0.110048859239	-0.454966276632	-0.508739457436	-0.69482421875	-0.69580078125	-0.10400390625	44.25	12.1875	30.75
18	12	13	16	26	14	0.10778923818	-0.460759319946	-0.500127416563	-0.64013671875	-0.6181640625	-0.087890625	42.375	9.1875	37.8125
18	12	13	16	26	14	0.107540960525	-0.467150120237	-0.49138040476	-0.58447265625	-0.705078125	-0.09814453125	46.875	19.125	38.3125
18	12	13	16	26	14	0.109983081538	-0.472707528587	-0.48143537579	-0.54833984375	-0.79296875	-0.0888671875	62.3125	21.6875	34.875
18	12	13	16	26	14	0.111936015282	-0.480153016478	-0.469960369503	-0.70751953125	-0.6943359375	-0.12255859375	66.4375	27.9375	34.4375
18	12	13	16	26	14	0.114010756612	-0.487536361788	-0.457507832745	-0.9091796875	-0.71044921875	-0.09375	70.75	26.375	27.125
18	12	13	16	26	14	0.116760890049	-0.488528052249	-0.44623045852	-0.525390625	-0.89501953125	0.236328125	64.5625	7.8125	36.875
18	12	13	16	26	14	0.120299370903	-0.492488900974	-0.43261387162	-0.685546875	-0.7666015625	0.1484375	77.1875	21.25	33.8125
18	12	13	16	26	14	0.123352811987	-0.496951308855	-0.414858517108	-0.87548828125	-0.55712890625	0.13623046875	96.75	16.875	31.8125
18	12	13	16	26	14	0.128906085527	-0.49981625681	-0.397948711003	-0.72216796875	-0.6767578125	0.1337890625	102.1875	18.875	34.0
18	12	13	16	26	14	0.138734097308	-0.501591206193	-0.378604313947	-0.83154296875	-0.7783203125	0.23828125	126.5	24.0	20.3125
18	12	13	16	26	14	0.148679566102	-0.500420263741	-0.359431020023	-0.58935546875	-0.75634765625	0.4697265625	128.6875	11.4375	17.125
18	12	13	16	26	14	0.159419599131	-0.500658105541	-0.33818682955	-0.443359375	-0.64697265625	0.314453125	139.0	22.0	22.0625
18	12	13	16	26	14	0.172174989805	-0.503891072609	-0.317312219779	-0.94384765625	-0.59814453125	0.181640625	135.5625	44.25	8.625
18	12	13	16	26	14	0.184020856931	-0.503417588049	-0.297729267035	-0.857421875	-0.6630859375	0.40576171875	131.5625	23.625	5.8125
18	12	13	16	26	14	0.193113561408	-0.501155326397	-0.27825686677	-0.7314453125	-0.71240234375	0.5029296875	126.0	9.3125	18.4375
18	12	13	16	26	14	0.202828139698	-0.497395880349	-0.260020425854	-0.47216796875	-0.78662109375	0.56298828125	123.9375	4.625	13.0625
18	12	13	16	26	14	0.215461256153	-0.492753178732	-0.24305006289	-0.517578125	-0.81298828125	0.552734375	126.5	6.125	-6.4375
18	12	13	16	26	14	0.227849991995	-0.489575351136	-0.224920230512	-0.75537109375	-0.7763671875	0.55859375	127.9375	15.375	-4.3125
18	12	13	16	26	14	0.238473608162	-0.485858694898	-0.209724934129	-0.4267578125	-0.79052734375	0.658203125	109.0625	11.8125	-2.125
18	12	13	16	26	14	0.251830268527	-0.480467250083	-0.203490575683	-0.42626953125	-1.0517578125	0.6171875	83.4375	12.625	-16.75
18	12	13	16	26	14	0.26342342834	-0.473014728831	-0.201412723244	-0.30126953125	-0.9150390625	0.70263671875	55.75	1.125	-24.6875
18	12	13	16	26	14	0.274412171316	-0.466183310612	-0.20507671166	-0.22900390625	-0.99951171875	0.70947265625	26.6875	1.1875	-33.9375
18	12	13	16	26	14	0.282531641976	-0.461486659102	-0.213684009194	-0.388671875	-0.90283203125	0.6826171875	-12.375	-2.6875	-46.625
18	12	13	16	26	14	0.291567834447	-0.459233072301	-0.219728742728	-0.81689453125	-0.9462890625	0.61279296875	0.0	-1.1875	-61.25
18	12	13	16	26	14	0.299141993713	-0.452283650972	-0.221869240389	-0.5302734375	-0.64892578125	0.83056640625	8.125	-10.625	-44.75
18	12	13	16	26	14	0.308292543963	-0.44611170141	-0.220095607509	-0.53173828125	-0.54296875	0.6416015625	33.8125	-7.5	-46.0
18	12	13	16	26	14	0.317630691086	-0.442876305634	-0.217837036219	-0.4951171875	-0.54296875	0.44677734375	38.25	3.9375	-44.0
18	12	13	16	26	14	0.324285258303	-0.443916183633	-0.216312244575	-1.00048828125	-0.5234375	0.439453125	17.25	4.9375	-54.625
18	12	13	16	26	14	0.328984932513	-0.444465357803	-0.218082219642	-0.77685546875	-0.7060546875	0.34521484375	9.25	-2.25	-37.1875
18	12	13	16	26	14	0.331908295624	-0.444395788973	-0.217223542502	-0.6845703125	-0.630859375	0.43359375	13.1875	0.125	-19.125
18	12	13	16	26	14	0.334894796036	-0.443901923013	-0.215939090282	-0.576171875	-0.53076171875	0.4091796875	14.4375	0.9375	-17.25
18	12	13	16	26	14	0.338188181929	-0.443532488374	-0.216120619421	-0.42578125	-0.52294921875	0.45703125	4.5625	7.8125	-16.9375
18	12	13	16	26	15	0.342097767504	-0.44353692711	-0.21850312358	-0.6181640625	-0.61865234375	0.5029296875	-4.625	3.8125	-32.5625
18	12	13	16	26	15	0.346144807234	-0.439593528778	-0.221261669234	-0.38671875	-0.64404296875	0.58740234375	1.125	-8.875	-24.125
18	12	13	16	26	15	0.351338926426	-0.432520436528	-0.223645904522	-0.1845703125	-0.685546875	0.716796875	9.375	-12.75	-19.8125
18	12	13	16	26	15	0.356941273572	-0.430307109898	-0.225895973579	-0.662109375	-0.66455078125	0.5849609375	2.9375	-5.8125	-44.5
18	12	13	16	26	15	0.360237191927	-0.424691694582	-0.230595749085	-0.38720703125	-0.82373046875	0.88232421875	-12.75	-14.0625	-22.125
18	12	13	16	26	15	0.364391480491	-0.414808124191	-0.243965284342	0.0517578125	-0.96630859375	0.88330078125	-38.1875	-33.125	-30.5
18	12	13	16	26	15	0.370369710108	-0.410959007607	-0.255926202123	-0.36181640625	-1.125	0.7900390625	-36.1875	-11.1875	-52.1875
18	12	13	16	26	15	0.373003162315	-0.405841601412	-0.269116501824	-0.228515625	-0.9111328125	0.84912109375	-57.0625	-22.0625	-40.5625
18	12	13	16	26	15	0.374092469933	-0.403023752483	-0.277837970816	-0.38671875	-0.880859375	0.765625	-41.6875	-15.9375	-27.6875
18	12	13	16	26	15	0.372257292614	-0.401554472555	-0.291445904613	-0.28466796875	-0.7509765625	0.85009765625	-86.3125	-16.3125	-26.375
18	12	13	16	26	15	0.370236358666	-0.401364044607	-0.305295460937	-0.38525390625	-0.85986328125	0.779296875	-86.3125	-15.1875	-28.875
18	12	13	16	26	15	0.367262699308	-0.401748892611	-0.315136665535	-0.3828125	-0.7099609375	0.73291015625	-72.9375	-10.875	-16.0625
18	12	13	16	26	15	0.36280675155	-0.404861571842	-0.326184266535	-0.45703125	-0.599609375	0.5751953125	-86.4375	-7.25	-18.0
18	12	13	16	26	15	0.355592735152	-0.409975352216	-0.336305521916	-0.63037109375	-0.54248046875	0.474609375	-89.5625	-9.9375	-10.5625
18	12	13	16	26	15	0.349193119925	-0.413953459068	-0.351390454712	-0.80908203125	-0.5986328125	0.2353515625	-100.125	-15.6875	-18.875
18	12	13	16	26	15	0.339615828578	-0.417134179098	-0.361223305809	-0.59375	-0.6240234375	0.32421875	-78.0	-27.9375	3.25
18	12	13	16	26	15	0.333494037647	-0.4158299558	-0.375058722793	-0.1787109375	-0.62109375	0.490234375	-92.1875	-29.25	-9.5
18	12	13	16	26	15	0.328918279973	-0.419799578708	-0.384155066645	-0.7177734375	-0.72705078125	0.2080078125	-62.9375	-11.0625	-26.25
18	12	13	16	26	15	0.322134069088	-0.420886044038	-0.390735564665	-0.5126953125	-0.58154296875	0.41796875	-60.25	-21.4375	-1.375
18	12	13	16	26	15	0.316219372569	-0.423639966223	-0.39812757523	-0.658203125	-0.7861328125	0.27880859375	-57.0625	-15.8125	-10.5
18	12	13	16	26	15	0.311048101433	-0.425188593914	-0.403764362437	-0.63427734375	-0.85400390625	0.27294921875	-41.4375	-17.75	-6.4375
18	12	13	16	26	15	0.306151645192	-0.425658208447	-0.411070839388	-0.4306640625	-0.90234375	0.365234375	-52.625	-15.9375	-2.0625
18	12	13	16	26	15	0.30298290404	-0.426275705442	-0.418218948122	-0.32763671875	-0.91064453125	0.35986328125	-50.3125	-7.0625	-3.6875
18	12	13	16	26	15	0.298825304137	-0.427608268133	-0.42565516157	-0.42822265625	-0.8955078125	0.34130859375	-56.3125	-8.1875	-5.9375
18	12	13	16	26	15	0.29375872925	-0.428766896527	-0.43230689368	-0.45556640625	-0.8271484375	0.3115234375	-53.1875	-13.0625	-3.0
18	12	13	16	26	15	0.288159830001	-0.427753460845	-0.437702635234	-0.3876953125	-0.7138671875	0.4248046875	-49.875	-21.8125	1.9375
18	12	13	16	26	15	0.28350877605	-0.427063704203	-0.443177012465	-0.40185546875	-0.75830078125	0.34619140625	-44.8125	-18.625	-2.6875
18	12	13	16	26	15	0.280331103717	-0.426691649485	-0.448175766295	-0.54736328125	-0.84130859375	0.16455078125	-28.6875	-18.625	-14.6875
18	12	13	16	26	15	0.276064850691	-0.426090807578	-0.453434838777	-0.494140625	-0.83740234375	0.15283203125	-31.3125	-22.875	-7.5
18	12	13	16	26	15	0.272220957768	-0.426031902515	-0.457465488446	-0.611328125	-0.919921875	0.048828125	-17.8125	-22.125	-10.1875
18	12	13	16	26	15	0.267882663098	-0.424437466207	-0.459959842585	-0.54736328125	-0.84814453125	0.19287109375	-15.4375	-27.875	-2.9375
18	12	13	16	26	15	0.265069985008	-0.425039690444	-0.459401744682	-0.56982421875	-0.82763671875	0.08544921875	4.625	-12.6875	2.4375
18	12	13	16	26	15	0.263364400491	-0.426509949161	-0.459102438121	-0.52197265625	-0.85986328125	0.10546875	1.1875	-3.0	1.75
18	12	13	16	26	15	0.261784654494	-0.429207202239	-0.459603275435	-0.54638671875	-0.97216796875	0.0263671875	-1.1875	2.25	2.625
18	12	13	16	26	15	0.259463483321	-0.432133959518	-0.461675320593	-0.412109375	-0.9404296875	0.025390625	-12.6875	3.375	9.0625
18	12	13	16	26	15	0.256282721061	-0.437615410815	-0.464470470893	-0.56884765625	-0.9658203125	-0.091796875	-19.6875	10.0	5.875
18	12	13	16	26	15	0.251281552934	-0.440368327525	-0.468566548913	-0.4638671875	-0.89306640625	0.07177734375	-34.25	-5.125	9.9375
18	12	13	16	26	15	0.247323358146	-0.439591023042	-0.470414886779	-0.31298828125	-0.92919921875	0.32275390625	-24.125	-12.8125	17.0625
18	12	13	16	26	15	0.245054053601	-0.43932729211	-0.465083907458	-0.6494140625	-0.85693359375	0.37353515625	15.9375	-8.0	12.1875
18	12	13	16	26	15	0.24829628758	-0.431405644203	-0.46064210481	-0.0390625	-0.93017578125	0.6572265625	26.9375	-16.4375	9.5625
18	12	13	16	26	15	0.251156882139	-0.431635837299	-0.455866525564	-0.40673828125	-0.97802734375	0.28466796875	28.3125	12.8125	5.8125
18	12	13	16	26	15	0.251956817528	-0.435064969801	-0.454596506043	-0.56884765625	-0.95458984375	0.1298828125	4.5	17.5625	-1.375
18	12	13	16	26	15	0.250074192475	-0.436180175598	-0.459130601853	-0.3076171875	-1.03125	0.248046875	-34.125	3.25	5.6875
18	12	13	16	26	15	0.247677406597	-0.439630448427	-0.460809369099	-0.41796875	-0.83154296875	0.1240234375	-20.8125	9.3125	9.75
18	12	13	16	26	15	0.245847313343	-0.440547643424	-0.461970783191	-0.37353515625	-0.8037109375	0.26123046875	-18.4375	1.9375	6.125
18	12	13	16	26	15	0.245662089659	-0.44170348891	-0.462516103214	-0.357421875	-0.841796875	0.21728515625	-9.75	7.8125	3.25
18	12	13	16	26	15	0.245428180071	-0.443797139342	-0.463084705844	-0.49755859375	-0.9130859375	0.12060546875	-6.5	8.625	-1.25
18	12	13	16	26	15	0.243834250649	-0.445432380786	-0.465634918199	-0.5126953125	-0.9775390625	0.0966796875	-16.9375	1.0	-2.0625
18	12	13	16	26	15	0.242672471184	-0.444268842491	-0.468682571987	-0.2744140625	-0.98046875	0.248046875	-20.25	-6.0	4.25
18	12	13	16	26	16	0.242857886557	-0.444273072694	-0.469419453509	-0.37841796875	-0.9453125	0.248046875	-8.9375	3.9375	0.4375
18	12	13	16	26	16	0.242554574316	-0.445253049731	-0.470704800484	-0.4150390625	-0.89697265625	0.21337890625	-14.375	6.0625	-1.1875
18	12	13	16	26	16	0.241879376383	-0.447870518269	-0.471857042346	-0.45947265625	-0.87841796875	0.0859375	-12.0	10.5625	0.3125
18	12	13	16	26	16	0.240658678722	-0.450372911562	-0.473443918551	-0.51416015625	-0.982421875	0.05712890625	-12.5625	6.875	1.625
18	12	13	16	26	16	0.238344856096	-0.451420884938	-0.476079354045	-0.40673828125	-1.0126953125	0.08203125	-18.1875	-3.0	7.4375
18	12	13	16	26	16	0.235108554349	-0.451540260922	-0.479677603486	-0.3623046875	-1.0029296875	0.21484375	-31.0625	-6.5625	9.0
18	12	13	16	26	16	0.231879961651	-0.45100316837	-0.482986611356	-0.376953125	-0.970703125	0.3544921875	-37.5	-6.25	6.9375
18	12	13	16	26	16	0.229311870758	-0.451482541389	-0.486028859954	-0.36767578125	-0.90576171875	0.31640625	-36.5625	1.0	5.4375
18	12	13	16	26	16	0.228087214408	-0.452146129069	-0.487790478337	-0.453125	-0.91943359375	0.20068359375	-20.0	2.3125	-1.0
18	12	13	16	26	16	0.225286006709	-0.452158964427	-0.492931398044	-0.33935546875	-0.91650390625	0.22998046875	-43.4375	-3.1875	0.0
18	12	13	16	26	16	0.223021428231	-0.453122901803	-0.497373185182	-0.45703125	-0.966796875	0.11279296875	-34.375	-0.5	-4.0
18	12	13	16	26	16	0.219903121406	-0.450365010506	-0.504013315728	-0.2353515625	-1.0380859375	0.3955078125	-56.125	-12.9375	0.0
18	12	13	16	26	16	0.217285575142	-0.449768933489	-0.509278325557	-0.435546875	-1.05322265625	0.21484375	-42.9375	-6.0625	-5.75
18	12	13	16	26	16	0.214050111959	-0.448608019076	-0.514831107607	-0.3935546875	-0.9609375	0.263671875	-48.125	-9.375	-5.4375
18	12	13	16	26	16	0.210387212134	-0.447141490018	-0.521787141436	-0.36328125	-0.92333984375	0.2646484375	-58.0625	-11.0	-8.8125
18	12	13	16	26	16	0.206115203982	-0.446959324477	-0.529905893091	-0.43212890625	-0.853515625	0.130859375	-63.5625	-8.8125	-13.875
18	12	13	16	26	16	0.201286648268	-0.445845653607	-0.538371596231	-0.41064453125	-0.888671875	0.21142578125	-70.25	-12.5625	-13.1875
18	12	13	16	26	16	0.196898879338	-0.44494508071	-0.547300759771	-0.400390625	-0.90283203125	0.14208984375	-70.125	-10.1875	-15.6875
18	12	13	16	26	16	0.193054323638	-0.445801068558	-0.554504751896	-0.556640625	-0.94091796875	-0.06640625	-52.3125	-4.875	-16.875
18	12	13	16	26	16	0.186343356264	-0.444770401932	-0.563180526778	-0.44189453125	-0.8720703125	0.1064453125	-72.9375	-19.0625	-9.625
18	12	13	16	26	16	0.181328274533	-0.444501455207	-0.570961295272	-0.4951171875	-0.94091796875	-0.0244140625	-60.375	-11.875	-13.4375
18	12	13	16	26	16	0.176205990562	-0.443963413699	-0.578238848142	-0.56591796875	-0.87060546875	-0.0810546875	-53.9375	-14.6875	-18.875
18	12	13	16	26	16	0.171808581898	-0.443589617491	-0.586407408482	-0.47509765625	-0.98828125	-0.189453125	-54.25	-11.875	-15.5625
18	12	13	16	26	16	0.167476006388	-0.444934433881	-0.593856247141	-0.638671875	-0.93359375	-0.33837890625	-47.0	-4.875	-21.0
18	12	13	16	26	16	0.162354757322	-0.444644513945	-0.600224317108	-0.50146484375	-0.90380859375	-0.24072265625	-43.1875	-15.9375	-10.6875
18	12	13	16	26	16	0.156066923601	-0.444152914761	-0.605896108951	-0.4541015625	-0.74365234375	-0.146484375	-45.4375	-20.125	-5.6875
18	12	13	16	26	16	0.150572901139	-0.442868654506	-0.610470270448	-0.4501953125	-0.7822265625	-0.12744140625	-36.6875	-21.3125	-5.6875
18	12	13	16	26	16	0.146849302002	-0.441890667704	-0.614435545825	-0.462890625	-0.9072265625	-0.20166015625	-27.3125	-15.125	-7.0625
18	12	13	16	26	16	0.146115698026	-0.441765005143	-0.615590196446	-0.44921875	-0.90771484375	-0.3291015625	2.4375	-6.1875	-5.9375
18	12	13	16	26	16	0.143003841365	-0.443171528875	-0.616753656422	-0.51171875	-0.7626953125	-0.330078125	-5.1875	-6.625	0.3125
18	12	13	16	26	16	0.138669638723	-0.444145669449	-0.620107187247	-0.46875	-0.8466796875	-0.33544921875	-22.75	-10.875	1.4375
18	12	13	16	26	16	0.13311337528	-0.441880255399	-0.624613609634	-0.36328125	-0.94873046875	-0.03955078125	-43.5625	-23.9375	2.25
18	12	13	16	26	16	0.131099486033	-0.438402052225	-0.627544187801	-0.2998046875	-1.07177734375	-0.0478515625	-23.3125	-19.5625	-2.5625
18	12	13	16	26	16	0.130431046583	-0.434505671794	-0.628046546251	-0.3330078125	-0.9833984375	0.0712890625	-8.3125	-16.9375	-5.75
18	12	13	16	26	16	0.131037790859	-0.429550056854	-0.628883743368	-0.2724609375	-0.9990234375	0.0234375	-1.8125	-18.75	-11.25
18	12	13	16	26	16	0.130431539517	-0.423765174948	-0.629269617415	-0.35595703125	-0.9716796875	0.0537109375	0.6875	-27.125	-14.25
18	12	13	16	26	16	0.128904974333	-0.4167439227	-0.630425890095	-0.36474609375	-0.9921875	0.087890625	-5.0625	-35.25	-17.125
18	12	13	16	26	16	0.126281526115	-0.408446579392	-0.632201086274	-0.33349609375	-0.9892578125	0.19970703125	-14.0625	-42.625	-17.6875
18	12	13	16	26	16	0.125303677386	-0.402888248624	-0.633842518097	-0.52490234375	-1.1435546875	-0.13134765625	1.5	-28.9375	-23.6875
18	12	13	16	26	16	0.123777061225	-0.396538247919	-0.636707249853	-0.412109375	-1.03125	-0.13720703125	-4.625	-34.0	-24.0
18	12	13	16	26	16	0.120364096076	-0.391671604725	-0.640212476541	-0.45361328125	-0.9892578125	-0.32177734375	-4.5625	-37.75	-17.9375
18	12	13	16	26	16	0.114316323603	-0.386954346846	-0.644883222205	-0.443359375	-0.72412109375	-0.26416015625	-19.9375	-44.125	-16.3125
18	12	13	16	26	16	0.10711476512	-0.384514541458	-0.648791996142	-0.47412109375	-0.7294921875	-0.265625	-23.125	-37.625	-3.9375
18	12	13	16	26	16	0.101808202451	-0.383917022431	-0.650888891447	-0.595703125	-0.81787109375	-0.36572265625	-6.75	-24.625	-5.25
18	12	13	16	26	16	0.0986339739853	-0.382694936193	-0.650459319778	-0.48779296875	-0.88134765625	-0.36279296875	16.125	-24.5	0.4375
18	12	13	16	26	16	0.0962502936541	-0.382132586283	-0.648850267493	-0.43505859375	-0.74658203125	-0.34326171875	24.875	-19.8125	2.9375
18	12	13	16	26	16	0.0937494939467	-0.38177284156	-0.64800675601	-0.4052734375	-0.7734375	-0.28173828125	14.1875	-17.0625	4.8125
18	12	13	16	26	16	0.0903924771163	-0.380185509762	-0.648372237952	-0.3349609375	-0.7958984375	-0.0703125	-6.625	-19.5	6.25
18	12	13	16	26	16	0.0886216482421	-0.378411996626	-0.648244163898	-0.33935546875	-0.89599609375	-0.0517578125	-2.3125	-14.75	3.1875
18	12	13	16	26	16	0.0888054328001	-0.376217654831	-0.647638795493	-0.39990234375	-1.060546875	-0.09765625	8.0625	-10.3125	-4.125
18	12	13	16	26	17	0.0878301377297	-0.372988166551	-0.647709118546	-0.41845703125	-1.0673828125	-0.03369140625	-0.375	-17.625	-6.25
18	12	13	16	26	17	0.08569249331	-0.370113446889	-0.646294737649	-0.517578125	-1.07080078125	-0.05029296875	9.1875	-22.125	-3.0
18	12	13	16	26	17	0.0803842012459	-0.362186674406	-0.644477434287	-0.40234375	-1.07861328125	0.42236328125	-9.9375	-49.5	0.6875
18	12	13	16	26	17	0.0779431571758	-0.355291400094	-0.643015787664	-0.46142578125	-1.23046875	0.14111328125	7.375	-39.5625	-8.125
18	12	13	16	26	17	0.0746446794292	-0.347833220006	-0.64146817727	-0.39404296875	-1.0185546875	0.2666015625	1.5625	-43.0625	-7.75
18	12	13	16	26	17	0.0733021337908	-0.341852832109	-0.640554449737	-0.37841796875	-0.974609375	0.0537109375	11.125	-33.0625	-12.1875
18	12	13	16	26	17	0.0705574793751	-0.336368744668	-0.641853333139	-0.357421875	-0.7998046875	-0.02587890625	-2.6875	-34.75	-13.6875
18	12	13	16	26	17	0.0675650136193	-0.330867153415	-0.645499172572	-0.2900390625	-0.79150390625	-0.10986328125	-15.625	-35.25	-14.375
18	12	13	16	26	17	0.0646363881859	-0.322754693793	-0.649171505898	-0.1435546875	-0.84814453125	0.0771484375	-22.375	-42.625	-13.25
18	12	13	16	26	17	0.0612166547869	-0.316642078798	-0.652204559374	-0.37353515625	-1.0244140625	0.0830078125	-23.9375	-35.3125	-13.8125
18	12	13	16	26	17	0.0559077154571	-0.308041746629	-0.658868764585	-0.375	-1.06591796875	0.23583984375	-60.1875	-44.75	-23.125
18	12	13	16	26	17	0.0509027045014	-0.297542787104	-0.665336189172	-0.3447265625	-1.20166015625	0.234375	-56.375	-52.8125	-26.0625
18	12	13	16	26	17	0.0441891346739	-0.287961791977	-0.671687053986	-0.52783203125	-1.1669921875	0.12744140625	-54.1875	-56.4375	-29.4375
18	12	13	16	26	17	0.0357056666989	-0.277039352387	-0.67682074876	-0.47509765625	-1.00146484375	0.3154296875	-57.3125	-66.75	-26.3125
18	12	13	16	26	17	0.0261237104976	-0.266913518706	-0.683122822172	-0.4970703125	-0.99951171875	0.21435546875	-64.0625	-67.75	-22.3125
18	12	13	16	26	17	0.0169676083357	-0.258542406151	-0.69066710765	-0.64990234375	-1.01611328125	-0.05810546875	-60.625	-60.625	-29.3125
18	12	13	16	26	17	0.00756841458011	-0.248536969115	-0.698613494226	-0.501953125	-0.9345703125	-0.08837890625	-60.9375	-69.0625	-27.375
18	12	13	16	26	17	-0.00146484027392	-0.241210365106	-0.706724397157	-0.56884765625	-0.73876953125	-0.33837890625	-50.3125	-59.8125	-26.9375
18	12	13	16	26	17	-0.0120851217521	-0.234744334639	-0.71631812567	-0.65869140625	-0.744140625	-0.3935546875	-65.1875	-59.5	-25.3125
18	12	13	16	26	17	-0.0216061878287	-0.225094973763	-0.724783843124	-0.4169921875	-0.83349609375	-0.22705078125	-64.5625	-67.4375	-23.0
18	12	13	16	26	17	-0.0292346351882	-0.217947562124	-0.730194520651	-0.50634765625	-0.92333984375	-0.31005859375	-37.4375	-54.0	-19.8125
18	12	13	16	26	17	-0.0374139853292	-0.21032396973	-0.733814593169	-0.46337890625	-0.74658203125	-0.11181640625	-34.375	-56.75	-18.8125
18	12	13	16	26	17	-0.0445550245446	-0.202938981659	-0.736134453469	-0.3525390625	-0.82470703125	-0.10498046875	-24.875	-54.1875	-11.625
18	12	13	16	26	17	-0.0506584677557	-0.195798029591	-0.739796732129	-0.50244140625	-0.89208984375	-0.234375	-27.75	-47.9375	-23.4375
18	12	13	16	26	17	-0.0567628598272	-0.187988826094	-0.741579297742	-0.4560546875	-0.970703125	-0.18505859375	-16.25	-52.5	-20.4375
18	12	13	16	26	17	-0.0627439436999	-0.181151775196	-0.743222765013	-0.46630859375	-0.77490234375	-0.2275390625	-11.3125	-49.1875	-21.3125
18	12	13	16	26	17	-0.0682360532768	-0.176815604958	-0.745835931165	-0.64990234375	-0.9287109375	-0.4677734375	-7.4375	-38.875	-21.0625
18	12	13	16	26	17	-0.0739754117302	-0.170473040398	-0.747322558766	-0.38720703125	-0.83544921875	-0.2646484375	-9.5625	-47.875	-13.5
18	12	13	16	26	17	-0.0784914817037	-0.16723690503	-0.747805314023	-0.4140625	-0.8701171875	-0.43505859375	9.125	-35.875	-4.5625
18	12	13	16	26	17	-0.0825814476453	-0.1644304656	-0.74897039472	-0.4423828125	-0.92236328125	-0.39794921875	0.25	-30.125	-4.75
18	12	13	16	26	17	-0.0867319618835	-0.161195715225	-0.7498255818	-0.37890625	-1.0048828125	-0.31884765625	-3.4375	-31.4375	-0.1875
18	12	13	16	26	17	-0.0904512554984	-0.159479845221	-0.751685332469	-0.42041015625	-0.8671875	-0.42724609375	-4.125	-23.6875	-0.875
18	12	13	16	26	17	-0.0952139225998	-0.159605389486	-0.754387232906	-0.5615234375	-0.8955078125	-0.42529296875	-15.5	-18.125	2.6875
18	12	13	16	26	17	-0.100219085158	-0.156737278127	-0.755000050791	-0.4677734375	-0.97998046875	-0.1689453125	-13.75	-28.75	-0.75
18	12	13	16	26	17	-0.106323983468	-0.152100669806	-0.750188335711	-0.30078125	-0.96630859375	0.17626953125	11.25	-43.3125	7.25
18	12	13	16	26	17	-0.111143744701	-0.147398211671	-0.744498296465	-0.2861328125	-0.83642578125	0.18212890625	22.9375	-39.8125	-0.0625
18	12	13	16	26	17	-0.11462373713	-0.143005013895	-0.7379131959	-0.3955078125	-1.09716796875	0.0830078125	36.4375	-36.125	-3.6875
18	12	13	16	26	17	-0.117798503232	-0.13543776097	-0.733097317265	-0.32080078125	-1.16796875	0.08740234375	22.8125	-45.4375	-12.6875
18	12	13	16	26	17	-0.120542183402	-0.127072823212	-0.72844099185	-0.2392578125	-1.13525390625	-0.00146484375	28.6875	-49.5625	-13.6875
18	12	13	16	26	17	-0.124871986633	-0.119257019492	-0.724696954683	-0.39794921875	-0.99365234375	0.01416015625	19.125	-51.125	-19.4375
18	12	13	16	26	17	-0.131163026539	-0.109739935652	-0.720145439801	-0.3232421875	-1.08447265625	0.23095703125	8.125	-62.625	-12.0625
18	12	13	16	26	17	-0.136048086007	-0.101624075012	-0.716983789286	-0.38720703125	-0.90673828125	0.07470703125	10.3125	-52.9375	-20.0
18	12	13	16	26	17	-0.140926744206	-0.0933815152167	-0.714582209253	-0.3359375	-0.865234375	0.046875	5.625	-53.625	-18.0625
18	12	13	16	26	17	-0.145932816087	-0.0849596319504	-0.714100354756	-0.36474609375	-0.8876953125	-0.0458984375	-4.4375	-54.125	-19.3125
18	12	13	16	26	17	-0.15045034922	-0.075805003542	-0.71575304069	-0.31591796875	-0.96240234375	-0.146484375	-15.75	-54.4375	-18.875
18	12	13	16	26	17	-0.155761012871	-0.0674435420152	-0.717526045187	-0.3974609375	-0.97900390625	-0.1435546875	-18.3125	-54.0625	-17.1875
18	12	13	16	26	17	-0.161681967788	-0.0590209372785	-0.720275161141	-0.3740234375	-0.91845703125	-0.09033203125	-31.75	-53.875	-14.4375
18	12	13	16	26	17	-0.167354693034	-0.0512073623106	-0.722823351424	-0.37646484375	-0.912109375	-0.0830078125	-31.0625	-50.4375	-13.0
18	12	13	16	26	17	-0.173335259815	-0.0433948484959	-0.723674709727	-0.349609375	-0.96923828125	-0.0341796875	-21.625	-52.875	-10.625
18	12	13	16	26	17	-0.17846576206	-0.0364988118029	-0.723750686218	-0.3935546875	-1.03125	-0.13427734375	-7.125	-48.8125	-11.625
18	12	13	16	26	18	-0.184020662241	-0.031494083488	-0.723265289404	-0.46533203125	-0.95458984375	-0.13916015625	-1.4375	-44.0	-9.375
18	12	13	16	26	18	-0.190188452839	-0.0260013738478	-0.72260625583	-0.43798828125	-1.03076171875	-0.12353515625	-2.8125	-48.3125	-4.875
18	12	13	16	26	18	-0.196769725942	-0.0183708708153	-0.723238601865	-0.314453125	-0.95849609375	-0.01318359375	-23.8125	-54.5625	-4.5
18	12	13	16	26	18	-0.202023885888	-0.0131223974218	-0.724783578527	-0.380859375	-0.95751953125	-0.12109375	-20.8125	-40.6875	-2.9375
18	12	13	16	26	18	-0.208738067576	-0.0083006950849	-0.726432888974	-0.47314453125	-0.8828125	-0.041015625	-28.9375	-43.125	-2.375
18	12	13	16	26	18	-0.214599680925	-0.0034179698896	-0.727173094012	-0.40380859375	-0.94091796875	-0.0810546875	-18.5625	-41.9375	-1.125
18	12	13	16	26	18	-0.221430621492	0.00256341954318	-0.72721771088	-0.38232421875	-0.84619140625	0.01708984375	-21.75	-48.9375	-3.0
18	12	13	16	26	18	-0.226379833485	0.00958253811194	-0.72790668486	-0.35986328125	-0.974609375	-0.12060546875	-18.3125	-47.25	-9.875
18	12	13	16	26	18	-0.231559963898	0.0164179310197	-0.727637820136	-0.2822265625	-0.9619140625	0.033203125	-20.75	-45.25	-4.625
18	12	13	16	26	18	-0.236327435657	0.0208129275721	-0.727597975327	-0.509765625	-1.0458984375	-0.13720703125	-8.0625	-37.5	-9.125
18	12	13	16	26	18	-0.242616863297	0.0270998458626	-0.728705089536	-0.5869140625	-1.09521484375	-0.09228515625	-26.375	-47.875	-12.3125
18	12	13	16	26	18	-0.249259706341	0.0364368375822	-0.728431585501	-0.3408203125	-1.01953125	-0.02392578125	-25.25	-61.8125	-10.6875
18	12	13	16	26	18	-0.257563234748	0.0441275399817	-0.726120806587	-0.34326171875	-0.8623046875	0.11767578125	-16.9375	-62.25	-4.5625
18	12	13	16	26	18	-0.265745557628	0.0523678659727	-0.722285927647	-0.240234375	-0.98828125	0.29638671875	-17.875	-62.25	-0.25
18	12	13	16	26	18	-0.271720342945	0.0610333205178	-0.716897382802	-0.16015625	-1.13525390625	0.2919921875	-2.9375	-56.5625	-5.8125
18	12	13	16	26	18	-0.278439972208	0.0695794757381	-0.713738937966	-0.296875	-0.9873046875	0.24853515625	-18.875	-58.1875	-9.875
18	12	13	16	26	18	-0.286308325608	0.0806863369119	-0.71360412343	-0.36083984375	-1.02978515625	0.18408203125	-47.6875	-70.0	-11.5
18	12	13	16	26	18	-0.295713164607	0.0945427640818	-0.712702295793	-0.31494140625	-1.07763671875	0.25244140625	-56.25	-86.5625	-12.6875
18	12	13	16	26	18	-0.302974503801	0.109922860867	-0.710561880188	-0.12158203125	-1.01708984375	0.44580078125	-61.6875	-81.0	-19.875
18	12	13	16	26	18	-0.311821190589	0.121151901217	-0.707319588518	-0.50927734375	-0.95751953125	0.4140625	-43.0	-74.1875	-26.3125
18	12	13	16	26	18	-0.318608447863	0.133974241966	-0.707042195412	-0.56982421875	-1.0263671875	0.2138671875	-57.5625	-72.0	-35.6875
18	12	13	16	26	18	-0.327333769625	0.145569837881	-0.706120525973	-0.6142578125	-0.8232421875	0.08740234375	-43.9375	-79.5	-30.75
18	12	13	16	26	18	-0.335080782773	0.156248962459	-0.71044450118	-0.87646484375	-0.77587890625	-0.43603515625	-50.75	-76.4375	-32.8125
18	12	13	16	26	18	-0.343864014881	0.169307557202	-0.716535948651	-0.658203125	-0.75927734375	-0.4287109375	-78.375	-88.6875	-14.6875
18	12	13	16	26	18	-0.351555676151	0.181026759629	-0.722642223199	-0.7724609375	-0.8564453125	-0.642578125	-64.625	-82.625	-18.0625
18	12	13	16	26	18	-0.358876466065	0.192438349915	-0.726358643305	-0.64501953125	-1.00537109375	-0.587890625	-51.8125	-80.5	-13.6875
18	12	13	16	26	18	-0.36761648602	0.200867649924	-0.727298364173	-0.626953125	-0.79345703125	-0.30615234375	-40.0625	-73.5	-9.0625
18	12	13	16	26	18	-0.373163684353	0.210202114641	-0.728627422932	-0.5185546875	-0.8134765625	-0.29638671875	-44.4375	-61.125	-16.625
18	12	13	16	26	18	-0.37873058136	0.218571186438	-0.727065058043	-0.359375	-0.82861328125	-0.12060546875	-28.9375	-57.375	-13.75
18	12	13	16	26	18	-0.383851991643	0.224671518721	-0.723270170293	-0.36962890625	-0.95166015625	-0.15478515625	0.5	-49.0625	-15.5625
18	12	13	16	26	18	-0.389836023193	0.230776578001	-0.719246547253	-0.412109375	-0.86279296875	-0.04736328125	-5.1875	-51.125	-16.8125
18	12	13	16	26	18	-0.395566976923	0.238219088247	-0.715023473948	-0.36376953125	-1.01123046875	-0.03466796875	-11.25	-55.0	-16.625
18	12	13	16	26	18	-0.40105541107	0.245906597352	-0.712085448326	-0.41650390625	-0.98095703125	-0.06591796875	-21.25	-55.1875	-16.375
18	12	13	16	26	18	-0.406677349871	0.253601138933	-0.710144224185	-0.41259765625	-0.93994140625	-0.0810546875	-30.0625	-55.8125	-11.5
18	12	13	16	26	18	-0.410578873129	0.259884769107	-0.710563288385	-0.646484375	-1.0556640625	-0.36376953125	-24.3125	-45.125	-16.5
18	12	13	16	26	18	-0.414249418732	0.26733644527	-0.711127151561	-0.4755859375	-0.86669921875	-0.37939453125	-29.5	-50.1875	-12.25
18	12	13	16	26	18	-0.417244092202	0.272160826087	-0.711988346334	-0.505859375	-0.8330078125	-0.5771484375	-6.625	-41.4375	-8.625
18	12	13	16	26	18	-0.42265966416	0.279535200268	-0.712753726796	-0.359375	-0.4609375	-0.1357421875	-48.375	-55.6875	-2.3125
18	12	13	16	26	18	-0.427051782981	0.284721533173	-0.711224014161	-0.291015625	-0.90283203125	-0.20263671875	-18.0625	-44.625	2.0625
18	12	13	16	26	18	-0.430161742175	0.290029596881	-0.710364999599	-0.47119140625	-1.0126953125	-0.1845703125	-25.375	-35.625	-9.875
18	12	13	16	26	18	-0.434069074964	0.294363772293	-0.706643946841	-0.40283203125	-1.26708984375	-0.21630859375	1.875	-38.1875	-7.9375
18	12	13	16	26	18	-0.440665066144	0.299005285185	-0.702683782066	-0.46044921875	-0.9287109375	-0.02294921875	-11.5625	-49.6875	-8.125
18	12	13	16	26	18	-0.446599084698	0.304690806453	-0.698310800606	-0.40771484375	-0.8974609375	-0.07177734375	-8.8125	-51.9375	-12.9375
18	12	13	16	26	18	-0.454284183113	0.311034824284	-0.6932365648	-0.32177734375	-0.71826171875	0.2236328125	-27.75	-59.125	-7.0
18	12	13	16	26	18	-0.456781802826	0.316585677614	-0.689567184438	-0.37744140625	-1.07177734375	-0.20751953125	-0.625	-36.5	-19.5
18	12	13	16	26	18	-0.459578077064	0.321704653944	-0.687597160186	-0.48828125	-0.99365234375	-0.22216796875	-12.75	-36.0	-16.0625
18	12	13	16	26	18	-0.46148455829	0.327940289868	-0.685848694816	-0.41162109375	-1.0029296875	-0.3876953125	-8.3125	-40.1875	-16.25
18	12	13	16	26	18	-0.466059101302	0.3333701953	-0.684501417117	-0.49365234375	-0.79248046875	-0.21337890625	-23.25	-47.8125	-7.875
18	12	13	16	26	18	-0.468375850126	0.340936603962	-0.68492491401	-0.54296875	-0.86328125	-0.25537109375	-45.0625	-43.875	-14.25
18	12	13	16	26	18	-0.471629329487	0.347114791872	-0.683487153047	-0.44775390625	-1.0107421875	-0.15576171875	-32.6875	-42.5	-7.1875
18	12	13	16	26	19	-0.473636685449	0.351626410421	-0.682622769338	-0.4638671875	-0.990234375	-0.3251953125	-14.9375	-32.375	-8.5
18	12	13	16	26	19	-0.477527423114	0.355154917574	-0.680586438541	-0.3740234375	-0.80517578125	-0.19189453125	-9.6875	-37.5625	-1.9375
