18	12	13	15	37	50	0.326136778932	-0.0233783242244	0.442051759878	-0.32861328125	0.859375	0.462890625	-15.9375	37.4375	39.9375
18	12	13	15	37	50	0.318864153104	-0.0277724329369	0.440208321628	-0.4853515625	0.7041015625	0.607421875	-26.75	28.75	38.8125
18	12	13	15	37	50	0.310864320667	-0.032960285325	0.439531508566	-0.5908203125	0.69970703125	0.55810546875	-23.625	31.125	44.6875
18	12	13	15	37	50	0.304154960225	-0.0380269998434	0.437341017461	-0.44970703125	0.5283203125	0.6328125	-20.375	32.125	35.5625
18	12	13	15	37	50	0.296276770809	-0.0426653199002	0.436907524815	-0.525390625	0.64208984375	0.634765625	-14.6875	32.5625	42.75
18	12	13	15	37	50	0.288398537262	-0.0464489495992	0.436595711541	-0.431640625	0.59326171875	0.630859375	-10.3125	33.0625	41.125
18	12	13	15	37	50	0.27967070304	-0.049256712648	0.439098873345	-0.3798828125	0.7021484375	0.55322265625	-0.3125	35.875	41.625
18	12	13	15	37	50	0.271069705918	-0.0534082397385	0.439229363609	-0.435546875	0.72119140625	0.59521484375	-15.3125	36.625	40.75
18	12	13	15	37	51	0.262831895316	-0.0577424461145	0.438317659142	-0.40673828125	0.75390625	0.5810546875	-23.4375	35.5625	36.625
18	12	13	15	37	51	0.25550453486	-0.0614040998731	0.436664940847	-0.28125	0.70361328125	0.55615234375	-25.3125	33.875	28.5
18	12	13	15	37	51	0.24866262487	-0.0662856187062	0.433664199731	-0.39990234375	0.64697265625	0.6259765625	-28.75	32.875	30.125
18	12	13	15	37	51	0.23523983012	-0.0724519144661	0.434162146249	-0.345703125	0.70263671875	0.65234375	-4.5	29.3125	27.0
18	12	13	15	37	51	0.227364605904	-0.0749540231008	0.435624481165	-0.287109375	0.76806640625	0.51708984375	-8.8125	33.25	31.8125
18	12	13	15	37	51	0.218886631685	-0.0781912368065	0.435087537827	-0.2509765625	0.7294921875	0.49853515625	-21.9375	36.0	32.75
18	12	13	15	37	51	0.210638112943	-0.0839866831089	0.431530413939	-0.544921875	0.724609375	0.61181640625	-37.25	34.1875	39.75
18	12	13	15	37	51	0.202219491391	-0.088322246919	0.430075018515	-0.41015625	0.765625	0.54345703125	-27.9375	34.5	36.625
18	12	13	15	37	51	0.194097427497	-0.0936916827698	0.425976712736	-0.3876953125	0.6640625	0.60107421875	-37.4375	37.6875	33.25
18	12	13	15	37	51	0.185612809226	-0.101015849809	0.419200517516	-0.7294921875	0.65380859375	0.7998046875	-46.6875	34.375	46.8125
18	12	13	15	37	51	0.175847096468	-0.103213273213	0.422985206013	-0.3271484375	0.84716796875	0.5419921875	1.375	37.0	42.5
18	12	13	15	37	51	0.168888109269	-0.107607421988	0.416513356579	-0.34521484375	0.57568359375	0.71728515625	-40.6875	31.875	28.3125
18	12	13	15	37	51	0.158153283822	-0.112312636909	0.41653338819	-0.65869140625	0.755859375	0.54296875	-20.625	32.0	59.6875
18	12	13	15	37	51	0.150091711943	-0.114323617922	0.417070625339	-0.14013671875	0.70458984375	0.46923828125	-14.3125	34.0625	28.0
18	12	13	15	37	51	0.140017689176	-0.120302905565	0.413705273424	-0.4208984375	0.65625	0.4599609375	-40.625	41.9375	42.6875
18	12	13	15	37	51	0.131233933172	-0.125007951227	0.409022598227	-0.44873046875	0.64599609375	0.60546875	-39.75	33.5	39.8125
18	12	13	15	37	51	0.124333896655	-0.128972765651	0.404619244439	-0.32958984375	0.609375	0.6748046875	-30.5625	32.375	26.5
18	12	13	15	37	51	0.117621047622	-0.133796230611	0.399862731174	-0.443359375	0.61181640625	0.72802734375	-31.0	32.375	28.3125
18	12	13	15	37	51	0.111635343157	-0.138430266966	0.395515048475	-0.43212890625	0.56787109375	0.74609375	-24.5	31.0625	25.5625
18	12	13	15	37	51	0.106324085462	-0.143616861707	0.390383955578	-0.60595703125	0.55810546875	0.859375	-23.5	26.875	28.125
18	12	13	15	37	51	0.0997940152986	-0.146913880626	0.389593394282	-0.39306640625	0.64794921875	0.69775390625	-9.3125	29.4375	29.0
18	12	13	15	37	51	0.0927167656724	-0.151984691589	0.382891554353	-0.54931640625	0.62646484375	0.79345703125	-41.6875	29.6875	31.9375
18	12	13	15	37	51	0.0847190002851	-0.155033329052	0.382700383132	-0.23828125	0.72705078125	0.4375	-23.5625	32.4375	28.1875
18	12	13	15	37	51	0.077150629452	-0.159245247026	0.378489757304	-0.22607421875	0.515625	0.43359375	-38.1875	34.9375	25.125
18	12	13	15	37	51	0.0692784337736	-0.165596820112	0.372943815292	-0.541015625	0.45361328125	0.4580078125	-43.0	32.3125	36.4375
18	12	13	15	37	51	0.062868748827	-0.170294960415	0.369887978535	-0.47998046875	0.45068359375	0.5693359375	-20.5	27.9375	31.625
18	12	13	15	37	51	0.0581061472549	-0.175478123275	0.366032106185	-0.46044921875	0.3740234375	0.634765625	-17.25	29.4375	21.875
18	12	13	15	37	51	0.0535289864341	-0.180484849356	0.360115188097	-0.56103515625	0.32373046875	0.76171875	-21.8125	25.4375	24.6875
18	12	13	15	37	51	0.0496846273944	-0.184150517013	0.357985675268	-0.505859375	0.34033203125	0.8193359375	3.5625	23.5625	23.9375
18	12	13	15	37	51	0.0468765317806	-0.187628201424	0.359997115159	-0.46923828125	0.42919921875	0.818359375	26.125	25.25	18.875
18	12	13	15	37	51	0.0433986839856	-0.191112910772	0.362082972437	-0.3623046875	0.5478515625	0.74560546875	17.125	30.75	14.75
18	12	13	15	37	51	0.0383922207179	-0.195196060184	0.358530849756	-0.4599609375	0.59423828125	0.876953125	-15.0	32.0	18.3125
18	12	13	15	37	51	0.0322279486048	-0.198128638582	0.353103565679	-0.419921875	0.5947265625	0.93212890625	-26.3125	30.1875	23.0625
18	12	13	15	37	51	0.0269793240043	-0.201551420503	0.344810410182	-0.46484375	0.52490234375	0.96630859375	-37.9375	28.4375	17.5625
18	12	13	15	37	51	0.0234381993527	-0.206427057841	0.333811229843	-0.61572265625	0.4326171875	0.91357421875	-50.8125	23.0	10.8125
18	12	13	15	37	51	0.0209963251184	-0.210451537814	0.32568718265	-0.47705078125	0.3896484375	0.82470703125	-35.0625	22.25	4.625
18	12	13	15	37	51	0.0192265426126	-0.215093130688	0.318855424152	-0.4384765625	0.34375	0.72314453125	-28.8125	24.4375	0.375
18	12	13	15	37	51	0.016906937215	-0.218508430432	0.312930928164	-0.43701171875	0.404296875	0.748046875	-26.8125	19.875	4.6875
18	12	13	15	37	51	0.0139775161413	-0.221748105421	0.307993652616	-0.4462890625	0.3955078125	0.73486328125	-22.6875	20.25	9.625
18	12	13	15	37	51	0.0125121309851	-0.223570418529	0.304258404687	-0.40771484375	0.39208984375	0.71875	-14.9375	11.6875	4.125
18	12	13	15	37	51	0.0108646698461	-0.225838642869	0.30176925685	-0.50244140625	0.41162109375	0.73779296875	-7.75	10.9375	8.6875
18	12	13	15	37	51	0.00781270811526	-0.22821652846	0.303657991198	-0.46240234375	0.47314453125	0.62646484375	8.75	15.375	18.3125
18	12	13	15	37	51	0.00390633878426	-0.22992465938	0.305793082955	-0.39794921875	0.52294921875	0.60546875	6.125	15.8125	20.625
18	12	13	15	37	51	0.000793462814449	-0.233583245454	0.309511533236	-0.35302734375	0.49462890625	0.5185546875	15.4375	26.0	13.875
18	12	13	15	37	51	-0.000854505987143	-0.237735772851	0.314275094843	-0.45458984375	0.5810546875	0.5634765625	22.375	24.0	8.25
18	12	13	15	37	51	-0.00262454068868	-0.23962666846	0.320621214829	-0.353515625	0.68017578125	0.5810546875	27.5625	17.5625	8.1875
18	12	13	15	37	51	-0.00445570382145	-0.23920415447	0.326731267894	-0.248046875	0.7529296875	0.61669921875	23.625	11.0	6.3125
18	12	13	15	37	51	-0.00769062853417	-0.237982227419	0.329781475953	-0.34814453125	0.77783203125	0.7255859375	7.3125	6.3125	14.75
18	12	13	15	37	51	-0.0109256530178	-0.235176207136	0.333690195799	-0.220703125	0.818359375	0.69287109375	8.5	2.5625	12.75
18	12	13	15	37	51	-0.0134281302182	-0.232855985375	0.336557772834	-0.30810546875	0.80322265625	0.7119140625	6.0625	-0.375	11.375
18	12	13	15	37	51	-0.0169071883092	-0.230535921458	0.340463163859	-0.3505859375	0.75244140625	0.71826171875	13.8125	-0.375	21.625
18	12	13	15	37	51	-0.0200195093612	-0.227843989163	0.345885852287	-0.29248046875	0.7685546875	0.70703125	22.9375	-0.125	20.1875
18	12	13	15	37	51	-0.0228282652352	-0.227061889506	0.350725165887	-0.384765625	0.77294921875	0.66015625	19.75	4.0	18.4375
18	12	13	15	37	52	-0.0256346116376	-0.227598730468	0.353147292702	-0.4560546875	0.73681640625	0.6328125	6.5625	6.375	17.375
18	12	13	15	37	52	-0.0289321888777	-0.228161438871	0.352862835236	-0.4521484375	0.69921875	0.63818359375	-7.9375	6.8125	17.125
18	12	13	15	37	52	-0.032227107916	-0.229557107712	0.349859436694	-0.4453125	0.63720703125	0.67578125	-19.3125	11.9375	12.8125
18	12	13	15	37	52	-0.0361343192304	-0.231027699809	0.345412352238	-0.43896484375	0.5732421875	0.7119140625	-24.4375	14.125	15.1875
18	12	13	15	37	52	-0.039490853958	-0.23261150608	0.337655956871	-0.5205078125	0.42626953125	0.76318359375	-35.125	10.6875	14.9375
18	12	13	15	37	52	-0.0431537179954	-0.234385116128	0.331435203274	-0.6005859375	0.4033203125	0.79248046875	-24.3125	9.375	22.0625
18	12	13	15	37	52	-0.04529035789	-0.235363369304	0.327897308066	-0.443359375	0.37548828125	0.73828125	-8.4375	8.875	12.8125
18	12	13	15	37	52	-0.0466951020703	-0.236893713902	0.326377399699	-0.4248046875	0.474609375	0.7099609375	-1.125	10.875	7.5
18	12	13	15	37	52	-0.0493192753477	-0.238722383521	0.323993457358	-0.44482421875	0.58935546875	0.7060546875	-13.4375	13.625	9.5
18	12	13	15	37	52	-0.052370055237	-0.240487200039	0.320873403708	-0.35009765625	0.5537109375	0.6630859375	-18.8125	17.4375	7.375
18	12	13	15	37	52	-0.066349429612	-0.245743149602	0.290423722257	-0.38330078125	0.52880859375	0.7509765625	-36.1875	0.8125	-6.6875
18	12	13	15	37	52	-0.065554290062	-0.244211093611	0.282542652418	-0.390625	0.42333984375	0.70556640625	-39.9375	-9.9375	-10.875
18	12	13	15	37	52	-0.0632346237612	-0.243599790956	0.276132662061	-0.39697265625	0.31640625	0.626953125	-27.0	-9.5	-15.375
18	12	13	15	37	52	-0.0598165248478	-0.245308789146	0.268502951842	-0.48095703125	0.17578125	0.64599609375	-23.5625	-2.125	-19.5625
18	12	13	15	37	52	-0.0552988347263	-0.247501958957	0.262150656898	-0.552734375	0.2041015625	0.7216796875	-13.625	-1.8125	-23.1875
18	12	13	15	37	52	-0.0499885424241	-0.249820639978	0.253055551759	-0.58251953125	0.1689453125	0.77197265625	-25.375	-2.6875	-30.5
18	12	13	15	37	52	-0.0445583305663	-0.251968203531	0.242079916474	-0.56396484375	-0.01953125	0.80810546875	-26.3125	-1.375	-29.0
18	12	13	15	37	52	-0.0376597704898	-0.254645968368	0.238410151593	-0.57080078125	0.0029296875	0.740234375	14.375	-1.8125	-27.5625
18	12	13	15	37	52	-0.030396550394	-0.256783709854	0.237129715423	-0.6787109375	0.01806640625	0.83251953125	30.0	-7.0625	-22.5
18	12	13	15	37	52	-0.0245975024309	-0.260196409089	0.24579191635	-0.41650390625	0.26513671875	0.52392578125	63.0	8.9375	-17.875
18	12	13	15	37	52	-0.0220959431528	-0.26441885563	0.250135842653	-0.49072265625	0.38671875	0.62890625	31.9375	17.75	-9.1875
18	12	13	15	37	52	-0.0211180726077	-0.271971478439	0.265196605435	-0.451171875	0.76513671875	0.65185546875	28.8125	21.3125	-0.8125
18	12	13	15	37	52	-0.0224621730414	-0.273391502859	0.270400615688	-0.45361328125	0.9033203125	0.7802734375	11.875	16.4375	-1.5
18	12	13	15	37	52	-0.0277097007043	-0.271603894568	0.26983389166	-0.48046875	0.7578125	0.9404296875	-16.1875	6.1875	20.625
18	12	13	15	37	52	-0.0314346823045	-0.268629197713	0.27406159912	-0.38623046875	0.51171875	0.98876953125	27.8125	4.625	28.0
18	12	13	15	37	52	-0.0315561634423	-0.267220277661	0.285897620046	-0.37451171875	0.3271484375	0.85986328125	84.0	5.9375	25.1875
18	12	13	15	37	52	-0.0332654602011	-0.266428869317	0.29792424081	-0.4853515625	0.4677734375	0.7236328125	72.625	2.25	33.125
18	12	13	15	37	52	-0.0368040364746	-0.267454872026	0.306334094637	-0.5361328125	0.48486328125	0.6787109375	49.3125	11.9375	36.1875
18	12	13	15	37	52	-0.0409542210925	-0.26965089238	0.312192013246	-0.49609375	0.47021484375	0.5908203125	32.375	18.0	32.5625
18	12	13	15	37	52	-0.0447399879848	-0.272468357932	0.31708627228	-0.43505859375	0.63720703125	0.578125	20.25	23.5	20.25
18	12	13	15	37	52	-0.0507827019796	-0.273994650465	0.320077511035	-0.49267578125	0.6884765625	0.72216796875	9.75	22.125	32.1875
18	12	13	15	37	52	-0.0590225806532	-0.275398018518	0.323311902503	-0.55419921875	0.6376953125	0.7451171875	11.6875	24.125	49.125
18	12	13	15	37	52	-0.0661658257625	-0.272842473393	0.335040791153	-0.11376953125	0.81103515625	0.54833984375	44.5625	14.625	41.3125
18	12	13	15	37	52	-0.0692168467413	-0.271801250916	0.346389422625	-0.10791015625	1.08154296875	0.48486328125	37.25	13.1875	8.875
18	12	13	15	37	52	-0.0745867700888	-0.274237608845	0.346077730281	-0.47998046875	1.02783203125	0.603515625	-23.375	22.75	12.875
18	12	13	15	37	52	-0.0822777159837	-0.274482855177	0.341257203312	-0.50439453125	0.54736328125	0.625	-33.8125	14.25	37.5625
18	12	13	15	37	52	-0.0857555923717	-0.27283095936	0.345097593786	-0.30615234375	0.59521484375	0.548828125	15.9375	1.875	23.9375
18	12	13	15	37	52	-0.0874050370675	-0.27430044454	0.35023051864	-0.2626953125	0.6845703125	0.47509765625	22.9375	15.4375	6.5625
18	12	13	15	37	52	-0.0883202048521	-0.278876997906	0.35120556926	-0.39453125	0.55126953125	0.5029296875	10.0625	26.5625	-0.125
18	12	13	15	37	52	-0.0877086922102	-0.281925156102	0.355107286902	-0.61328125	0.61767578125	0.5712890625	29.375	8.375	8.25
18	12	13	15	37	52	-0.0886863739242	-0.280830011304	0.362924417999	-0.60400390625	0.59033203125	0.68017578125	52.375	-6.75	32.75
18	12	13	15	37	52	-0.0874653186158	-0.279791361155	0.381050930997	-0.34326171875	0.49267578125	0.390625	108.4375	-6.0	29.4375
18	12	13	15	37	52	-0.0859407571512	-0.284739795533	0.393447528833	-0.41845703125	0.6689453125	0.32861328125	74.5625	20.6875	6.3125
18	12	13	15	37	53	-0.0860617331406	-0.291022938734	0.399302027096	-0.73974609375	0.609375	0.47900390625	45.6875	24.375	17.875
18	12	13	15	37	53	-0.0886854668261	-0.295292696837	0.404547332501	-0.28955078125	0.6865234375	0.29736328125	24.875	30.5625	8.1875
18	12	13	15	37	53	-0.087403399687	-0.299381058286	0.400639605828	-0.6591796875	0.7099609375	0.77880859375	-0.25	19.5625	-10.3125
18	12	13	15	37	53	-0.0853287788312	-0.299749379714	0.401191747681	-0.4599609375	0.53564453125	0.6376953125	21.1875	0.8125	-2.9375
18	12	13	15	37	53	-0.0811164903545	-0.302615168681	0.404239665626	-0.509765625	0.599609375	0.52490234375	35.0625	5.75	-13.9375
18	12	13	15	37	53	-0.0762971773504	-0.307935407786	0.40999051221	-0.251953125	0.6171875	0.2255859375	40.0625	18.5	-31.125
18	12	13	15	37	53	-0.0686680197574	-0.313431361293	0.409322435994	-0.6123046875	0.43310546875	0.64453125	34.5625	12.5625	-33.625
18	12	13	15	37	53	-0.0629303309659	-0.315994494093	0.415974981118	-0.66455078125	0.642578125	0.56396484375	61.8125	1.0625	-7.8125
18	12	13	15	37	53	-0.0582292294422	-0.315255733825	0.425000130615	-0.248046875	0.89306640625	0.45751953125	57.875	-3.0	-20.8125
18	12	13	15	37	53	-0.054201575067	-0.315077173982	0.428180235467	-0.40283203125	0.90576171875	0.5810546875	29.25	-1.8125	-22.4375
18	12	13	15	37	53	-0.0507220511355	-0.314281397469	0.431717289629	-0.46337890625	0.91455078125	0.5947265625	30.1875	-4.9375	-14.75
18	12	13	15	37	53	-0.0464493100555	-0.312327358153	0.437514657658	-0.39306640625	0.70166015625	0.55419921875	49.375	-10.8125	-7.5
18	12	13	15	37	53	-0.0347298265704	-0.303657095233	0.459483540284	-0.4287109375	0.935546875	0.4794921875	70.75	-34.8125	4.5
18	12	13	15	37	53	-0.0324713925139	-0.296209902011	0.463938072365	-0.38525390625	1.16064453125	0.51513671875	19.1875	-36.875	-0.0625
18	12	13	15	37	53	-0.0329598364522	-0.287360944476	0.460644232787	-0.6416015625	0.9892578125	0.658203125	-23.0	-46.1875	23.5625
18	12	13	15	37	53	-0.034789977566	-0.272582525982	0.461730140855	-0.22216796875	1.00927734375	0.6083984375	-7.625	-61.75	31.0
18	12	13	15	37	53	-0.0352787688643	-0.258792352914	0.467230061689	-0.0615234375	0.9775390625	0.51904296875	19.8125	-55.5	22.5625
18	12	13	15	37	53	-0.0330827590572	-0.249524573848	0.47103256761	-0.35009765625	0.9521484375	0.5185546875	18.25	-48.875	13.375
18	12	13	15	37	53	-0.0321673767768	-0.241896231815	0.473415890476	-0.36572265625	0.8251953125	0.4052734375	7.0	-41.5	18.375
18	12	13	15	37	53	-0.0325940347962	-0.236093120958	0.479144519007	-0.19091796875	0.82373046875	0.24755859375	20.1875	-25.1875	15.8125
18	12	13	15	37	53	-0.0332655796733	-0.233591510844	0.481710008774	-0.30078125	0.83447265625	0.2275390625	1.125	-13.0625	9.75
18	12	13	15	37	53	-0.0334477348191	-0.231570631211	0.479498913757	-0.36083984375	0.72265625	0.3115234375	-20.0	-14.4375	5.9375
18	12	13	15	37	53	-0.0328387486937	-0.228345276697	0.47713847312	-0.2509765625	0.681640625	0.33203125	-19.25	-19.375	-0.1875
18	12	13	15	37	53	-0.0319219283969	-0.228153285559	0.474739501092	-0.4833984375	0.6875	0.37841796875	-14.125	-10.1875	3.125
18	12	13	15	37	53	-0.031311900331	-0.226385649761	0.470227836549	-0.42626953125	0.66064453125	0.48681640625	-22.875	-14.8125	3.1875
18	12	13	15	37	53	-0.0283214240225	-0.225106490938	0.468463209855	-0.39208984375	0.71240234375	0.50048828125	-3.1875	-15.9375	-9.125
18	12	13	15	37	53	-0.0263071759932	-0.223885664833	0.466937114496	-0.53173828125	0.830078125	0.583984375	-2.5	-15.625	0.4375
18	12	13	15	37	53	-0.0242323246071	-0.222363623536	0.465846603026	-0.37939453125	0.70703125	0.509765625	0.0625	-13.6875	-3.75
18	12	13	15	37	53	-0.020996449879	-0.222965207581	0.467903444106	-0.41748046875	0.77685546875	0.4521484375	17.9375	-6.6875	-10.75
18	12	13	15	37	53	-0.0174565185569	-0.22559193212	0.468335198907	-0.5283203125	0.78173828125	0.40771484375	7.0625	-1.9375	-14.0
18	12	13	15	37	53	-0.0143433700283	-0.22870045743	0.468631468414	-0.53857421875	0.7255859375	0.376953125	6.3125	0.6875	-12.125
18	12	13	15	37	53	-0.0101933538965	-0.232982226484	0.469565697758	-0.62548828125	0.65966796875	0.43017578125	17.875	3.625	-13.0
18	12	13	15	37	53	-0.0059204889943	-0.23633127202	0.471991148381	-0.5947265625	0.55908203125	0.45361328125	32.125	1.4375	-8.5625
18	12	13	15	37	53	-0.00109867502526	-0.239328043003	0.476702885962	-0.54541015625	0.59521484375	0.416015625	44.5625	1.25	-10.9375
18	12	13	15	37	53	0.00421152893095	-0.244207641344	0.47919874836	-0.7138671875	0.5654296875	0.3935546875	32.3125	3.25	-11.8125
18	12	13	15	37	53	0.00762952011567	-0.248478211127	0.479011790942	-0.64794921875	0.4990234375	0.38671875	14.5	5.375	-6.875
18	12	13	15	37	53	0.0111087835171	-0.251656672753	0.479936070303	-0.4677734375	0.53515625	0.37109375	18.3125	5.75	-14.5
18	12	13	15	37	53	0.0153814442794	-0.255258730065	0.483233707778	-0.5849609375	0.623046875	0.39404296875	34.9375	5.8125	-12.625
18	12	13	15	37	53	0.0187382965531	-0.256537656067	0.488233335922	-0.486328125	0.77880859375	0.41455078125	40.1875	1.75	-9.375
18	12	13	15	37	53	0.0239266835689	-0.255869024288	0.494952747603	-0.3623046875	0.83349609375	0.404296875	51.5	-8.125	-19.375
18	12	13	15	37	53	0.0285042014761	-0.256354702783	0.50117344394	-0.453125	0.98681640625	0.37353515625	43.5	-3.625	-20.0625
18	12	13	15	37	53	0.0318609608703	-0.257390176226	0.504160032162	-0.46728515625	0.9111328125	0.29541015625	19.375	-3.125	-17.3125
18	12	13	15	37	53	0.0354013055553	-0.257513979548	0.506238669441	-0.4638671875	0.78955078125	0.30078125	16.6875	-9.125	-13.375
18	12	13	15	37	53	0.0397361785667	-0.255202707508	0.510100221632	-0.38720703125	0.7236328125	0.35107421875	32.8125	-18.125	-9.6875
18	12	13	15	37	53	0.0445578739557	-0.251172125106	0.521082972548	-0.18310546875	0.85888671875	0.28466796875	73.4375	-16.8125	-12.8125
18	12	13	15	37	53	0.0491947071413	-0.246461820641	0.530399509997	-0.2021484375	0.92822265625	0.294921875	62.625	-21.4375	-13.0625
18	12	13	15	37	53	0.0528577598049	-0.241583156245	0.536146145642	-0.337890625	0.96435546875	0.330078125	39.5	-25.4375	-5.375
18	12	13	15	37	53	0.0562761301372	-0.236213257734	0.541642493316	-0.33447265625	0.85693359375	0.2861328125	37.8125	-28.75	1.0625
18	12	13	15	37	53	0.0589008820785	-0.23291789224	0.549334651509	-0.43212890625	0.92919921875	0.263671875	50.6875	-15.4375	4.0
18	12	13	15	37	53	0.0629296511696	-0.226632196695	0.558004724532	-0.369140625	1.00146484375	0.34326171875	63.0	-29.25	3.5
18	12	13	15	37	53	0.0672025494288	-0.219003403588	0.568261339857	-0.32861328125	1.08447265625	0.33984375	73.5625	-33.25	3.75
18	12	13	15	37	54	0.0704971880496	-0.211003271937	0.576856211478	-0.40478515625	1.16015625	0.41943359375	66.5	-32.9375	11.625
18	12	13	15	37	54	0.074830404382	-0.20471547822	0.585398375553	-0.40673828125	0.927734375	0.37548828125	71.0625	-28.625	8.125
18	12	13	15	37	54	0.0808732768796	-0.199344997954	0.594006589126	-0.38623046875	0.76220703125	0.44970703125	83.9375	-27.1875	1.25
18	12	13	15	37	54	0.0875883066033	-0.195685094753	0.60670924574	-0.2958984375	1.0029296875	0.37158203125	101.0	-20.3125	-9.875
18	12	13	15	37	54	0.0918019895889	-0.19440780375	0.615756962083	-0.3330078125	1.01708984375	0.19482421875	71.4375	-5.625	-15.75
18	12	13	15	37	54	0.0946061958763	-0.196048452358	0.613414366811	-0.419921875	0.92529296875	0.1953125	-10.6875	-4.5625	-20.5
18	12	13	15	37	54	0.0967436831934	-0.19830929129	0.609454685607	-0.248046875	0.7578125	0.0341796875	-31.5625	-4.5625	-27.25
18	12	13	15	37	54	0.0964375398784	-0.202274688074	0.605908517958	-0.3173828125	0.71826171875	0.0419921875	-31.375	11.3125	-17.625
18	12	13	15	37	54	0.0975372015711	-0.20526759004	0.602008397432	-0.27001953125	0.7490234375	0.12060546875	-27.375	4.6875	-24.5625
18	12	13	15	37	54	0.10053102666	-0.20661659092	0.597509544613	-0.51123046875	0.71826171875	0.3359375	-16.0	-6.9375	-12.0625
18	12	13	15	37	54	0.100896830426	-0.205150784671	0.595675842785	-0.6826171875	1.08984375	0.18701171875	-17.125	-15.0625	10.875
18	12	13	15	37	54	0.100286117905	-0.198924198571	0.586151911286	-0.5341796875	1.173828125	0.51611328125	-57.375	-34.875	15.375
18	12	13	15	37	54	0.101259356892	-0.190738692156	0.577587278039	-0.22216796875	0.85791015625	0.44677734375	-48.4375	-45.125	6.4375
18	12	13	15	37	54	0.102602561504	-0.181583950312	0.572340404058	-0.3017578125	1.126953125	0.38330078125	-34.625	-50.1875	8.25
18	12	13	15	37	54	0.101627529759	-0.172675244258	0.566306439104	-0.1708984375	1.10009765625	0.3642578125	-44.75	-41.0625	10.75
18	12	13	15	37	54	0.104987506796	-0.171337169521	0.559546787672	-0.537109375	0.9375	0.31787109375	-43.5625	-28.6875	-8.3125
18	12	13	15	37	54	0.111454257283	-0.17713047899	0.549397464295	-0.4033203125	0.611328125	0.228515625	-38.8125	-12.375	-19.75
18	12	13	15	37	54	0.124211693663	-0.175239200249	0.540061457264	-0.2333984375	0.65771484375	0.28466796875	7.0	-25.4375	-11.75
18	12	13	15	37	54	0.126834698393	-0.17303963905	0.540176651001	-0.35302734375	0.88671875	0.330078125	2.0	-17.375	-10.625
18	12	13	15	37	54	0.129095973338	-0.174508457576	0.537014833771	-0.68994140625	0.8251953125	0.33935546875	-19.1875	-11.625	-1.3125
18	12	13	15	37	54	0.13092330485	-0.173831968397	0.534130461884	-0.4892578125	0.79296875	0.38427734375	-14.875	-13.75	-3.1875
18	12	13	15	37	54	0.132573152504	-0.171942251659	0.534504188064	-0.4013671875	0.8056640625	0.3017578125	1.8125	-14.9375	-2.5
18	12	13	15	37	54	0.133976109668	-0.170537243924	0.535171995249	-0.45263671875	0.87451171875	0.3515625	4.5625	-11.3125	-1.3125
18	12	13	15	37	54	0.135073209559	-0.168704180398	0.536142373593	-0.38525390625	0.896484375	0.326171875	4.125	-11.0	-3.0625
18	12	13	15	37	54	0.136296588045	-0.167486716344	0.535725550055	-0.4033203125	0.88330078125	0.345703125	-3.625	-10.375	-4.875
18	12	13	15	37	54	0.138310600991	-0.167364372426	0.534503942135	-0.44580078125	0.83544921875	0.3486328125	-6.8125	-9.6875	-8.6875
18	12	13	15	37	54	0.141052487543	-0.167724896482	0.532593685117	-0.4736328125	0.755859375	0.35888671875	-8.1875	-10.875	-10.25
18	12	13	15	37	54	0.144113620017	-0.169261782426	0.529698430542	-0.59912109375	0.6669921875	0.3974609375	-10.0	-9.5625	-6.875
18	12	13	15	37	54	0.146982523205	-0.169139772342	0.527623310042	-0.4736328125	0.67236328125	0.416015625	-4.0	-12.0625	-7.6875
18	12	13	15	37	54	0.150028434839	-0.167484957363	0.526015073818	-0.35986328125	0.79541015625	0.44287109375	-2.25	-15.625	-13.9375
18	12	13	15	37	54	0.152535034043	-0.166818026426	0.522794144289	-0.4619140625	0.80615234375	0.4716796875	-13.0625	-13.5	-9.75
18	12	13	15	37	54	0.155399543725	-0.163517430337	0.518201934888	-0.29638671875	0.833984375	0.4716796875	-22.4375	-25.3125	-13.75
18	12	13	15	37	54	0.158151064752	-0.159982223356	0.515898417322	-0.23046875	0.88916015625	0.37890625	-14.625	-24.0	-17.0
18	12	13	15	37	54	0.161689383952	-0.157538807089	0.514000114103	-0.40771484375	0.80615234375	0.3701171875	-9.625	-25.5625	-12.0625
18	12	13	15	37	54	0.164616816272	-0.154667783624	0.515335476376	-0.38623046875	0.873046875	0.322265625	6.6875	-21.9375	-9.4375
18	12	13	15	37	54	0.167184528575	-0.151985935068	0.515958678367	-0.41064453125	0.94775390625	0.33056640625	-0.5	-21.6875	-9.0625
18	12	13	15	37	54	0.169626416025	-0.149483660614	0.514616881434	-0.4306640625	0.892578125	0.35400390625	-11.0	-23.4375	-7.125
18	12	13	15	37	54	0.17273506939	-0.147404661688	0.51234564398	-0.45703125	0.76025390625	0.4111328125	-9.625	-23.8125	-6.375
18	12	13	15	37	54	0.176027095261	-0.145265078613	0.511174383775	-0.41259765625	0.7978515625	0.40380859375	-3.6875	-22.125	-10.375
18	12	13	15	37	54	0.179388057421	-0.144169646692	0.510087103051	-0.42138671875	0.78369140625	0.3857421875	-4.1875	-17.8125	-13.375
18	12	13	15	37	54	0.182323968239	-0.144418650437	0.507235412142	-0.470703125	0.7509765625	0.40478515625	-15.625	-13.75	-12.4375
18	12	13	15	37	54	0.186166749947	-0.145393179795	0.503870990431	-0.34228515625	0.626953125	0.3447265625	-17.75	-11.375	-22.875
18	12	13	15	37	54	0.19074459633	-0.147346385773	0.500269667687	-0.37890625	0.56396484375	0.369140625	-15.9375	-9.25	-26.25
18	12	13	15	37	54	0.1943495182	-0.146860848237	0.498997271131	-0.5166015625	0.7890625	0.482421875	-1.5	-16.0	-13.0625
18	12	13	15	37	54	0.195998029131	-0.14417544217	0.496068509108	-0.40625	0.8291015625	0.548828125	-12.375	-18.6875	-3.875
18	12	13	15	37	55	0.196849398465	-0.140205602566	0.493496864059	-0.310546875	0.83154296875	0.5439453125	-11.25	-19.875	-1.25
18	12	13	15	37	55	0.197942753891	-0.136173383882	0.490492744455	-0.3330078125	0.87451171875	0.57666015625	-13.4375	-21.8125	-1.8125
18	12	13	15	37	55	0.19910075727	-0.131594491929	0.489511978327	-0.26220703125	0.90576171875	0.4912109375	-5.6875	-21.875	-4.75
18	12	13	15	37	55	0.199162479256	-0.127444455007	0.488170857827	-0.318359375	0.9765625	0.49755859375	-12.6875	-19.4375	1.0
18	12	13	15	37	55	0.198311899323	-0.123845750608	0.484029966646	-0.34912109375	0.98486328125	0.51220703125	-32.0625	-19.8125	5.75
18	12	13	15	37	55	0.197515220197	-0.119998431059	0.478711950558	-0.201171875	0.9765625	0.4853515625	-41.5	-18.875	-1.375
18	12	13	15	37	55	0.196782339695	-0.117495658782	0.471020259126	-0.32080078125	0.90234375	0.498046875	-55.4375	-20.75	2.875
18	12	13	15	37	55	0.195874247043	-0.114142985968	0.463469354253	-0.353515625	0.8212890625	0.46435546875	-53.5625	-27.0625	10.5
18	12	13	15	37	55	0.194889132699	-0.110597904307	0.46039734668	-0.3330078125	0.85546875	0.40283203125	-30.125	-22.1875	10.0
18	12	13	15	37	55	0.193916066102	-0.108463597565	0.457170706674	-0.34228515625	0.837890625	0.345703125	-34.6875	-17.5	7.3125
18	12	13	15	37	55	0.192939235364	-0.105655747047	0.453507914824	-0.30322265625	0.88720703125	0.39453125	-36.75	-19.25	6.0625
18	12	13	15	37	55	0.191902099593	-0.103702820359	0.447954678408	-0.30078125	0.78173828125	0.42919921875	-44.25	-16.75	6.875
18	12	13	15	37	55	0.19093073047	-0.104071897523	0.441924069247	-0.41064453125	0.6923828125	0.45654296875	-44.6875	-10.25	7.875
18	12	13	15	37	55	0.191293320723	-0.105534828184	0.435628726867	-0.42724609375	0.73828125	0.54296875	-43.625	-6.75	-2.75
18	12	13	15	37	55	0.190744702217	-0.107000148156	0.427207094662	-0.447265625	0.736328125	0.65966796875	-53.25	-5.875	2.6875
18	12	13	15	37	55	0.188969799393	-0.108889574327	0.418040748076	-0.43408203125	0.6328125	0.6201171875	-57.75	-2.8125	9.375
18	12	13	15	37	55	0.188055155665	-0.110782248469	0.410657282478	-0.38232421875	0.62060546875	0.587890625	-47.75	-0.6875	2.25
18	12	13	15	37	55	0.187263296047	-0.113407824007	0.405777833155	-0.3779296875	0.67919921875	0.50634765625	-39.9375	3.625	-2.0625
18	12	13	15	37	55	0.185736241425	-0.116581078252	0.400343084952	-0.45947265625	0.66650390625	0.48388671875	-45.375	3.5	4.25
18	12	13	15	37	55	0.184573737765	-0.119997344063	0.393317845952	-0.5107421875	0.51513671875	0.53515625	-46.0625	0.5	7.4375
18	12	13	15	37	55	0.183604702912	-0.122626944199	0.388267790964	-0.51513671875	0.5078125	0.623046875	-29.3125	0.625	8.3125
18	12	13	15	37	55	0.183055075131	-0.126838428184	0.382773716621	-0.56787109375	0.50830078125	0.623046875	-33.5	5.0	3.9375
18	12	13	15	37	55	0.182804855052	-0.130801604133	0.375985945617	-0.50341796875	0.45947265625	0.6650390625	-36.875	5.25	0.4375
18	12	13	15	37	55	0.182132125059	-0.134035571927	0.369879583732	-0.5068359375	0.40478515625	0.66552734375	-30.6875	3.1875	5.4375
18	12	13	15	37	55	0.179880360139	-0.137092395274	0.365437297643	-0.5009765625	0.27783203125	0.6357421875	-18.3125	7.0625	17.4375
18	12	13	15	37	55	0.179446492616	-0.136904245897	0.366705621646	-0.244140625	0.48828125	0.60107421875	9.375	5.8125	0.5625
18	12	13	15	37	55	0.179144510662	-0.137028765396	0.368116028553	-0.341796875	0.66162109375	0.68017578125	5.125	4.5625	-0.875
18	12	13	15	37	55	0.177188614145	-0.137759111996	0.365974140687	-0.44677734375	0.61865234375	0.75048828125	-13.375	2.875	10.875
18	12	13	15	37	55	0.176091266078	-0.138187392167	0.364817156793	-0.36083984375	0.5546875	0.72607421875	-4.625	4.8125	5.0
18	12	13	15	37	55	0.174988686704	-0.138001193107	0.36682316257	-0.3076171875	0.693359375	0.6845703125	6.4375	6.8125	2.125
18	12	13	15	37	55	0.173105014924	-0.137336489274	0.368305945012	-0.3291015625	0.708984375	0.6826171875	2.3125	4.1875	7.625
18	12	13	15	37	55	0.171272344001	-0.136724893287	0.369706552963	-0.3046875	0.66455078125	0.62939453125	1.9375	4.125	7.5625
18	12	13	15	37	55	0.169868967233	-0.136359063168	0.37196603892	-0.30712890625	0.63623046875	0.5791015625	6.875	3.6875	5.9375
18	12	13	15	37	55	0.168826222068	-0.135622511004	0.374396256749	-0.29150390625	0.67138671875	0.583984375	7.6875	2.6875	3.625
18	12	13	15	37	55	0.166515843183	-0.13495840516	0.375698319204	-0.40478515625	0.69775390625	0.68017578125	2.1875	1.0625	13.9375
18	12	13	15	37	55	0.165781309184	-0.134407379538	0.374045604817	-0.35400390625	0.57421875	0.69873046875	-7.3125	-2.625	5.5
18	12	13	15	37	55	0.164189754778	-0.134037435499	0.374645618895	-0.44384765625	0.6806640625	0.7275390625	1.9375	-0.75	11.875
18	12	13	15	37	55	0.160281107868	-0.135927656978	0.371405385141	-0.48046875	0.5634765625	0.66552734375	-23.4375	7.75	21.8125
18	12	13	15	37	55	0.15826705242	-0.13586674072	0.369757733729	-0.24755859375	0.56884765625	0.64306640625	-11.375	6.125	6.875
18	12	13	15	37	55	0.154606134628	-0.135745773159	0.369089339161	-0.36572265625	0.73046875	0.70947265625	-12.4375	5.8125	16.9375
18	12	13	15	37	55	0.151130949443	-0.134894748897	0.367328777766	-0.34130859375	0.6328125	0.65673828125	-16.375	0.1875	19.125
18	12	13	15	37	55	0.149598242162	-0.134156236749	0.366213567105	-0.35205078125	0.58349609375	0.63330078125	-8.6875	-3.75	10.0625
18	12	13	15	37	55	0.148507505003	-0.134834804172	0.365378514159	-0.41943359375	0.65380859375	0.6376953125	-10.5625	0.25	6.1875
18	12	13	15	37	55	0.147042488677	-0.135628231565	0.363547140956	-0.41552734375	0.63818359375	0.708984375	-13.75	2.0625	7.5
18	12	13	15	37	55	0.144541585289	-0.136423329021	0.362696832681	-0.4560546875	0.59423828125	0.7001953125	-6.8125	3.0	16.25
18	12	13	15	37	55	0.141854480672	-0.136544093487	0.365256976051	-0.333984375	0.68212890625	0.60107421875	5.4375	7.5625	12.9375
18	12	13	15	37	55	0.137390821792	-0.136902538108	0.367860720988	-0.31884765625	0.70263671875	0.55029296875	0.75	11.3125	21.0
18	12	13	15	37	55	0.133548937576	-0.137089083087	0.368846540114	-0.3115234375	0.7265625	0.65869140625	-4.0	11.0625	16.5625
18	12	13	15	37	55	0.130128080208	-0.137635469451	0.368106215636	-0.33154296875	0.61669921875	0.68798828125	-8.0625	9.5625	16.5625
18	12	13	15	37	55	0.12659010461	-0.138431223364	0.366281204323	-0.40625	0.6005859375	0.73974609375	-11.625	7.3125	19.4375
18	12	13	15	37	56	0.12244010179	-0.13867592785	0.366526825148	-0.35595703125	0.66552734375	0.7080078125	-4.0625	9.625	21.375
18	12	13	15	37	56	0.116338747846	-0.137702106579	0.36928091525	-0.25244140625	0.798828125	0.638671875	0.5	12.5625	28.4375
18	12	13	15	37	56	0.109317607461	-0.137394714905	0.370068483549	-0.32177734375	0.8486328125	0.62060546875	-15.25	12.1875	33.0625
18	12	13	15	37	56	0.10217748064	-0.138189854342	0.369828766545	-0.36376953125	0.8193359375	0.58935546875	-22.1875	14.1875	33.5625
18	12	13	15	37	56	0.0963789649901	-0.140265270138	0.368791454383	-0.3671875	0.720703125	0.5859375	-21.0625	17.6875	25.9375
18	12	13	15	37	56	0.0914358372813	-0.14301346245	0.368062816293	-0.447265625	0.69189453125	0.65283203125	-13.8125	17.5625	24.0
18	12	13	15	37	56	0.0864925886688	-0.146311033902	0.36580810437	-0.4697265625	0.55078125	0.70458984375	-14.125	19.375	25.875
18	12	13	15	37	56	0.083194063427	-0.151128760855	0.362989798386	-0.529296875	0.45068359375	0.69384765625	-11.875	21.1875	18.125
18	12	13	15	37	56	0.0806322133588	-0.157052751682	0.35616121495	-0.52099609375	0.380859375	0.7109375	-32.1875	23.125	9.75
18	12	13	15	37	56	0.0775145307662	-0.162170163973	0.347350546922	-0.51708984375	0.3271484375	0.72900390625	-41.9375	19.5	13.5625
18	12	13	15	37	56	0.073305627753	-0.166387294967	0.337291339686	-0.4375	0.30810546875	0.6708984375	-52.75	18.0625	16.5625
18	12	13	15	37	56	0.0703151513197	-0.170172432187	0.329236047065	-0.37939453125	0.24755859375	0.71142578125	-35.25	18.875	10.875
18	12	13	15	37	56	0.0668986048214	-0.174632215688	0.3232008326	-0.4091796875	0.34033203125	0.70849609375	-28.5625	23.5	12.0625
18	12	13	15	37	56	0.0654930729646	-0.178045940203	0.318859098944	-0.41015625	0.42138671875	0.79638671875	-17.625	17.75	2.6875
18	12	13	15	37	56	0.0645162437124	-0.180242637354	0.31568402316	-0.36767578125	0.45068359375	0.8466796875	-9.75	14.875	0.625
18	12	13	15	37	56	0.0642109022237	-0.181279828521	0.316415700692	-0.33740234375	0.537109375	0.87890625	11.0625	12.9375	-0.5
18	12	13	15	37	56	0.0649417901893	-0.182129983012	0.319765074062	-0.29296875	0.66748046875	0.83349609375	19.75	13.125	-8.5625
18	12	13	15	37	56	0.0651283309427	-0.183299323169	0.321918291839	-0.26318359375	0.76123046875	0.78857421875	6.0625	15.375	-11.125
18	12	13	15	37	56	0.0642094760503	-0.184876903951	0.322390163971	-0.25244140625	0.7734375	0.7392578125	-8.0	17.75	-8.3125
18	12	13	15	37	56	0.0626244492592	-0.18604222353	0.322827204807	-0.29296875	0.75732421875	0.74072265625	-8.25	14.9375	-2.1875
18	12	13	15	37	56	0.0604872325273	-0.186161512824	0.320747131111	-0.255859375	0.71142578125	0.7646484375	-20.3125	10.3125	0.25
18	12	13	15	37	56	0.0558507446388	-0.188061359816	0.315022615389	-0.3759765625	0.58349609375	0.7353515625	-29.0	11.5625	3.3125
18	12	13	15	37	56	0.053713505124	-0.190927095486	0.310988987053	-0.419921875	0.54296875	0.68603515625	-27.75	14.0	3.875
18	12	13	15	37	56	0.0507215123017	-0.192143586914	0.308052313582	-0.32568359375	0.52099609375	0.65771484375	-21.9375	11.1875	9.0625
18	12	13	15	37	56	0.0476693737197	-0.193546202388	0.308416575423	-0.39892578125	0.54541015625	0.62939453125	-5.125	9.5625	14.9375
18	12	13	15	37	56	0.0442515885863	-0.195012173149	0.310737706887	-0.38671875	0.6240234375	0.59033203125	0.875	11.8125	16.0
18	12	13	15	37	56	0.0415048634217	-0.195133894646	0.311591658482	-0.28515625	0.61572265625	0.6416015625	-4.6875	8.8125	9.6875
18	12	13	15	37	56	0.039369858571	-0.195811637668	0.309526438471	-0.46435546875	0.52978515625	0.7587890625	-11.9375	2.9375	11.8125
18	12	13	15	37	56	0.0386369631592	-0.196297746477	0.308607402421	-0.49658203125	0.48779296875	0.77490234375	-1.0	-0.75	8.125
18	12	13	15	37	56	0.0394915710558	-0.198800690771	0.308730087172	-0.5390625	0.42529296875	0.72265625	8.5625	4.5625	0.1875
18	12	13	15	37	56	0.0410779230325	-0.203436430115	0.307748719064	-0.64306640625	0.33837890625	0.7177734375	7.75	10.1875	-2.4375
18	12	13	15	37	56	0.0426648085553	-0.207586572098	0.305123573631	-0.587890625	0.3017578125	0.775390625	1.375	11.125	-5.125
18	12	13	15	37	56	0.0439453742184	-0.211792289636	0.300232355251	-0.5361328125	0.2705078125	0.82177734375	-9.125	14.875	-7.3125
18	12	13	15	37	56	0.0477302466372	-0.221011794211	0.290348827689	-0.51806640625	0.1884765625	0.8037109375	-2.0625	17.625	-12.625
18	12	13	15	37	56	0.0527968161667	-0.229071041704	0.288459830294	-0.50537109375	0.28564453125	0.77783203125	13.875	17.125	-11.125
18	12	13	15	37	56	0.0551785574584	-0.233288104652	0.29005365602	-0.5185546875	0.287109375	0.6943359375	23.625	17.3125	-8.9375
18	12	13	15	37	56	0.057435479874	-0.237493572997	0.293464173469	-0.48974609375	0.318359375	0.69580078125	32.5625	21.1875	-7.9375
18	12	13	15	37	56	0.0598148416263	-0.242433215244	0.297609354867	-0.5185546875	0.416015625	0.6904296875	32.75	25.0625	-11.5
18	12	13	15	37	56	0.0609141488536	-0.246464261594	0.302495512744	-0.5634765625	0.53369140625	0.7314453125	31.5	22.25	-4.625
18	12	13	15	37	56	0.0607920133375	-0.248539235251	0.308720887009	-0.427734375	0.5556640625	0.662109375	34.5625	19.5625	1.8125
18	12	13	15	37	56	0.0611594163391	-0.24994791408	0.316051355094	-0.36279296875	0.5205078125	0.65771484375	44.25	19.125	0.9375
18	12	13	15	37	56	0.0622575268391	-0.252509204444	0.325814390458	-0.43115234375	0.67724609375	0.607421875	51.625	22.25	-4.75
18	12	13	15	37	56	0.0620134987714	-0.255439460983	0.334665367878	-0.513671875	0.76904296875	0.56396484375	40.0	21.3125	0.375
18	12	13	15	37	56	0.0615251669462	-0.258613226539	0.340829893083	-0.5546875	0.6865234375	0.54296875	28.125	18.875	2.5
18	12	13	15	37	56	0.0626847514483	-0.261908732682	0.348336783365	-0.6162109375	0.6044921875	0.50830078125	41.5625	14.6875	1.1875
18	12	13	15	37	56	0.0648841077084	-0.264358485875	0.356893111732	-0.60986328125	0.5185546875	0.53564453125	55.4375	11.0625	1.75
18	12	13	15	37	57	0.0673224646529	-0.26452906782	0.367984713865	-0.51171875	0.54052734375	0.59375	73.875	7.5	4.8125
18	12	13	15	37	57	0.0700721416722	-0.263808184936	0.380330587769	-0.4140625	0.65576171875	0.57763671875	77.5625	7.8125	-1.125
18	12	13	15	37	57	0.0726351245901	-0.2629513586	0.388994663036	-0.40966796875	0.63232421875	0.64111328125	60.3125	6.5625	-4.0625
18	12	13	15	37	57	0.0738554574561	-0.26166805464	0.396866268082	-0.45458984375	0.73681640625	0.6240234375	49.5625	4.1875	1.25
18	12	13	15	37	57	0.0747689502063	-0.259768695574	0.40173814715	-0.39794921875	0.662109375	0.62890625	34.8125	0.6875	0.875
18	12	13	15	37	57	0.0759297956077	-0.258979198363	0.406749323094	-0.4091796875	0.5712890625	0.57666015625	37.6875	4.25	1.375
18	12	13	15	37	57	0.0788617544109	-0.25245527573	0.434044841808	-0.40478515625	0.8408203125	0.52001953125	16.625	-1.8125	-0.9375
18	12	13	15	37	57	0.0791013420831	-0.250731723208	0.437864990821	-0.39794921875	0.85546875	0.49267578125	18.8125	-1.8125	-2.25
18	12	13	15	37	57	0.0794087978125	-0.248846786074	0.440624220914	-0.42822265625	0.826171875	0.5087890625	14.375	-4.4375	-0.75
18	12	13	15	37	57	0.0798990792454	-0.246594560849	0.442588406118	-0.40673828125	0.78369140625	0.5185546875	11.9375	-6.75	-0.6875
18	12	13	15	37	57	0.07989909532	-0.244519309283	0.445152102497	-0.376953125	0.84130859375	0.4833984375	11.1875	-4.0	-1.25
18	12	13	15	37	57	0.0805079843009	-0.243171955614	0.445693177684	-0.43994140625	0.7197265625	0.4697265625	3.6875	-6.6875	-1.1875
18	12	13	15	37	57	0.0802664504083	-0.242081172866	0.446745361626	-0.5576171875	0.68310546875	0.49365234375	7.75	-6.1875	10.3125
18	12	13	15	37	57	0.0804470692946	-0.239815277131	0.448684678592	-0.44091796875	0.6806640625	0.44921875	11.8125	-9.9375	6.875
18	12	13	15	37	57	0.0803236904168	-0.238041331782	0.451301950564	-0.44140625	0.62646484375	0.4306640625	16.875	-6.4375	10.0
18	12	13	15	37	57	0.0805702862027	-0.236766772864	0.45418446942	-0.5302734375	0.6689453125	0.46630859375	19.9375	-6.0625	10.5
18	12	13	15	37	57	0.080508745247	-0.234690011732	0.457111442877	-0.54443359375	0.70947265625	0.47705078125	19.1875	-9.375	13.875
18	12	13	15	37	57	0.0794698603094	-0.232977309371	0.460461310425	-0.51806640625	0.6708984375	0.45263671875	20.5	-4.625	18.5
18	12	13	15	37	57	0.0780043470474	-0.231449518	0.464302870102	-0.439453125	0.80517578125	0.4921875	21.75	2.125	12.5
18	12	13	15	37	57	0.0760536004436	-0.231151673258	0.465172142039	-0.470703125	0.859375	0.5205078125	2.1875	6.125	8.3125
18	12	13	15	37	57	0.0728172849068	-0.230293056122	0.462783448586	-0.37744140625	0.84521484375	0.5791015625	-17.4375	7.5	8.25
18	12	13	15	37	57	0.0696444406229	-0.228343428896	0.459128380688	-0.259765625	0.82275390625	0.5498046875	-27.0625	2.375	4.25
18	12	13	15	37	57	0.0671416411402	-0.226084217076	0.45674627332	-0.21484375	0.8515625	0.51708984375	-20.8125	0.9375	0.25
18	12	13	15	37	57	0.0662881533602	-0.223218947365	0.455959949909	-0.09814453125	0.84375	0.41748046875	-13.625	-4.0625	-9.875
18	12	13	15	37	57	0.0649462034402	-0.222001261195	0.454074067097	-0.31982421875	0.78076171875	0.40087890625	-19.875	-3.6875	0.3125
18	12	13	15	37	57	0.063541528358	-0.222792102312	0.450650435991	-0.58447265625	0.83642578125	0.4521484375	-28.9375	-2.0625	6.125
18	12	13	15	37	57	0.059451599946	-0.220044166125	0.445398690766	-0.33056640625	1.0439453125	0.5244140625	-49.375	-5.6875	7.125
18	12	13	15	37	57	0.0536530765254	-0.214978538706	0.436366147986	-0.1806640625	1.02734375	0.583984375	-74.125	-10.875	11.25
18	12	13	15	37	57	0.0482185959624	-0.206180274887	0.42926757646	-0.16552734375	1.162109375	0.66845703125	-64.625	-27.4375	16.9375
18	12	13	15	37	57	0.0424824840754	-0.197274983522	0.424336536339	-0.19677734375	0.93701171875	0.52880859375	-50.5	-31.25	31.1875
18	12	13	15	37	57	0.0382713962643	-0.192028409326	0.424830810206	-0.29736328125	1.08984375	0.40673828125	-26.0625	-18.9375	21.4375
18	12	13	15	37	57	0.0350353730242	-0.188055721755	0.421584183759	-0.24658203125	1.14208984375	0.3740234375	-52.3125	-16.125	6.25
18	12	13	15	37	57	0.0292984691105	-0.186716702102	0.414939568778	-0.4228515625	0.947265625	0.396484375	-67.1875	-5.75	23.875
18	12	13	15	37	57	0.0260626674311	-0.187016423908	0.408335468651	-0.38623046875	0.93212890625	0.33349609375	-67.0	-3.1875	5.625
18	12	13	15	37	57	0.0213628922965	-0.188725894231	0.39777705456	-0.48388671875	0.7568359375	0.4267578125	-81.1875	3.125	14.4375
18	12	13	15	37	57	0.0173344335378	-0.19165535672	0.384043154295	-0.57958984375	0.61962890625	0.46630859375	-92.75	3.0	12.3125
18	12	13	15	37	57	0.0137944593085	-0.195563927542	0.368788155496	-0.595703125	0.5224609375	0.51318359375	-95.375	6.25	8.25
18	12	13	15	37	57	0.00817885814797	-0.201480677212	0.354376495575	-0.6376953125	0.408203125	0.517578125	-86.8125	20.5	19.1875
18	12	13	15	37	57	0.00225840083743	-0.207650801323	0.341628905057	-0.6298828125	0.41748046875	0.54296875	-77.25	24.5	20.5625
18	12	13	15	37	57	-0.0042115275267	-0.214543757338	0.329475733176	-0.66650390625	0.3564453125	0.546875	-70.9375	28.1875	24.8125
18	12	13	15	37	57	-0.0125122514523	-0.221131156155	0.31616323182	-0.70166015625	0.244140625	0.564453125	-74.3125	28.625	37.125
18	12	13	15	37	57	-0.0203256855346	-0.227061712278	0.306472273481	-0.59326171875	0.263671875	0.53369140625	-55.3125	30.1875	34.5
18	12	13	15	37	57	-0.0280162406475	-0.23334659694	0.296398397787	-0.6416015625	0.17333984375	0.58740234375	-50.8125	31.0	36.5625
18	12	13	15	37	57	-0.0345475729904	-0.237194114206	0.295485513863	-0.64306640625	0.31689453125	0.60107421875	-3.25	18.3125	43.125
18	12	13	15	37	57	-0.0407117794784	-0.239570816271	0.30506367891	-0.4423828125	0.5302734375	0.48486328125	43.3125	19.0	44.75
18	12	13	15	37	58	-0.0478530756508	-0.242439306741	0.315195513598	-0.404296875	0.49755859375	0.53955078125	51.375	27.8125	50.375
18	12	13	15	37	58	-0.0564586629742	-0.244328678795	0.328680973098	-0.400390625	0.51953125	0.5625	70.1875	26.9375	64.625
18	12	13	15	37	58	-0.0653090083632	-0.247075575565	0.347663655735	-0.3251953125	0.40966796875	0.5654296875	105.1875	37.125	71.0625
18	12	13	15	37	58	-0.0738531433757	-0.252870721492	0.367251540241	-0.16162109375	0.458984375	0.30810546875	110.3125	54.375	62.9375
18	12	13	15	37	58	-0.0819096756897	-0.25982823354	0.381227894455	-0.193359375	0.62109375	0.345703125	73.0625	61.0625	42.9375
18	12	13	15	37	58	-0.107365109368	-0.231881779698	0.413834816097	-0.01123046875	1.134765625	0.59423828125	32.125	-2.6875	27.625
18	12	13	15	37	58	-0.110901361868	-0.232667028861	0.423463758194	-0.24462890625	1.02734375	0.3818359375	38.875	12.5625	22.9375
18	12	13	15	37	58	-0.11371148469	-0.236151226121	0.430553308105	-0.416015625	1.00439453125	0.34423828125	28.125	18.375	19.625
18	12	13	15	37	58	-0.11694666848	-0.23975287776	0.427929589097	-0.4775390625	0.875	0.2919921875	-30.5	16.625	10.9375
18	12	13	15	37	58	-0.122564074512	-0.244456732281	0.421649714505	-0.5400390625	0.67333984375	0.25341796875	-48.5	25.625	21.8125
18	12	13	15	37	58	-0.129885608766	-0.249211908173	0.410165080315	-0.51806640625	0.57666015625	0.380859375	-72.375	34.5625	21.75
18	12	13	15	37	58	-0.137330119128	-0.254152273799	0.398623559122	-0.478515625	0.544921875	0.45458984375	-67.4375	38.5625	19.6875
18	12	13	15	37	58	-0.144292911085	-0.257700791287	0.388626465685	-0.48974609375	0.62841796875	0.61083984375	-55.4375	33.3125	21.25
18	12	13	15	37	58	-0.150635680882	-0.261293091514	0.383303110187	-0.45751953125	0.51318359375	0.5703125	-23.8125	31.5625	27.4375
18	12	13	15	37	58	-0.155211890051	-0.26714999715	0.38494745991	-0.443359375	0.51220703125	0.4580078125	17.8125	36.5	25.9375
18	12	13	15	37	58	-0.157538263595	-0.274425429338	0.388138635489	-0.5068359375	0.6474609375	0.40234375	24.4375	35.375	15.0625
18	12	13	15	37	58	-0.162295502277	-0.2882744104	0.382392373736	-0.61572265625	0.60205078125	0.5185546875	-21.25	38.875	9.9375
18	12	13	15	37	58	-0.167726327039	-0.291812070442	0.373416910054	-0.71630859375	0.6982421875	0.76123046875	-40.9375	27.625	21.5
18	12	13	15	37	58	-0.173103588344	-0.292921057991	0.36439648181	-0.58203125	0.4775390625	0.8310546875	-33.6875	21.0625	24.0
18	12	13	15	37	58	-0.177924660954	-0.295666229043	0.360427143373	-0.63623046875	0.61474609375	0.8251953125	-6.75	24.9375	27.6875
18	12	13	15	37	58	-0.184328930284	-0.296208045917	0.359014161567	-0.505859375	0.67431640625	0.7431640625	-3.8125	18.6875	37.3125
18	12	13	15	37	58	-0.208991150465	-0.304880489653	0.366772144609	-0.31884765625	0.794921875	0.412109375	-42.0	24.625	15.0
18	12	13	15	37	58	-0.215641529377	-0.304632570937	0.362128840587	-0.3017578125	0.734375	0.52294921875	-36.4375	19.0625	21.6875
18	12	13	15	37	58	-0.221805279071	-0.304570264878	0.362493547717	-0.27490234375	0.7177734375	0.55126953125	-4.125	18.1875	29.125
18	12	13	15	37	58	-0.226741352136	-0.306756941005	0.369194734608	-0.2666015625	0.85888671875	0.46728515625	29.4375	22.6875	30.6875
18	12	13	15	37	58	-0.232359584717	-0.308775187571	0.375669357482	-0.21728515625	0.90625	0.40185546875	23.25	23.8125	30.75
18	12	13	15	37	58	-0.238714354299	-0.311286936059	0.379770061992	-0.22216796875	0.91015625	0.34228515625	7.5625	28.5	29.0625
18	12	13	15	37	58	-0.246038770669	-0.315437451455	0.383066069144	-0.22900390625	0.8974609375	0.23876953125	0.6875	37.8125	30.75
18	12	13	15	37	58	-0.254578377403	-0.32098482061	0.384156391124	-0.18701171875	0.8564453125	0.1064453125	-14.875	49.0625	28.5
18	12	13	15	37	58	-0.263128652268	-0.329170220756	0.380990268489	-0.27392578125	0.77978515625	0.0537109375	-33.25	62.125	19.9375
18	12	13	15	37	58	-0.268935090177	-0.335955228401	0.371906832603	-0.478515625	0.54345703125	0.31884765625	-43.5625	50.5625	9.375
18	12	13	15	37	58	-0.27521712078	-0.337475152095	0.361218656194	-0.6337890625	0.80224609375	0.66796875	-56.4375	27.0625	17.25
18	12	13	15	37	58	-0.283274197089	-0.337536373605	0.351452882318	-0.373046875	0.73486328125	0.66259765625	-55.8125	32.75	18.5625
18	12	13	15	37	58	-0.289366928745	-0.340636327637	0.34509188254	-0.4287109375	0.6416015625	0.71142578125	-21.1875	40.625	17.875
18	12	13	15	37	58	-0.292545608732	-0.345952119819	0.343937931401	-0.3857421875	0.6162109375	0.501953125	7.4375	37.625	11.875
18	12	13	15	37	58	-0.295719677489	-0.35260527902	0.344365411845	-0.427734375	0.81005859375	0.42529296875	8.625	40.875	11.375
18	12	13	15	37	58	-0.305241811791	-0.362127508369	0.333379479304	-0.41455078125	0.95849609375	0.51708984375	-43.0	36.8125	3.5
18	12	13	15	37	58	-0.313963689936	-0.364134403996	0.322508580409	-0.54052734375	0.88232421875	0.6923828125	-61.8125	43.8125	18.6875
18	12	13	15	37	59	-0.319521183747	-0.367861351374	0.314394196271	-0.6650390625	0.60791015625	0.77587890625	-23.3125	40.625	20.75
18	12	13	15	37	59	-0.331123287368	-0.379586308597	0.309943604286	-0.45849609375	0.9541015625	0.38427734375	-46.75	53.0625	15.25
18	12	13	15	37	59	-0.351440970396	-0.379822361718	0.280701115465	-0.39501953125	0.90380859375	0.50927734375	-113.25	39.75	13.375
18	12	13	15	37	59	-0.377131238809	-0.375422277054	0.253780820678	-0.66259765625	0.49609375	0.6240234375	-60.875	24.75	52.4375
18	12	13	15	37	59	-0.385146940924	-0.376113383514	0.255686297231	-0.52392578125	0.68115234375	0.5576171875	-0.5	15.25	56.6875
18	12	13	15	37	59	-0.429269232442	-0.37348193279	0.24927279188	-0.6201171875	0.69384765625	0.60546875	-72.0625	31.25	61.0
18	12	13	15	37	59	-0.441834105099	-0.370789085299	0.238830895601	-0.5390625	0.56884765625	0.59375	-71.9375	29.375	56.0
18	12	13	15	37	59	-0.456109033197	-0.372370026968	0.222775053013	-0.61376953125	0.36572265625	0.5908203125	-24.3125	27.5625	31.6875
18	12	13	15	37	59	-0.461798981963	-0.371282475189	0.213443172075	-0.62353515625	0.365234375	0.73828125	-37.5	19.5625	26.8125
18	12	13	15	37	59	-0.468142228642	-0.369508872516	0.204774077848	-0.4228515625	0.3828125	0.76611328125	-37.6875	25.5625	23.0
18	12	13	15	37	59	-0.473194924572	-0.366690972118	0.192622621172	-0.4921875	0.26416015625	0.8740234375	-46.125	24.3125	11.375
18	12	13	15	37	59	-0.477535435218	-0.366086086457	0.18585063909	-0.4306640625	0.462890625	0.7880859375	-26.3125	23.5	14.25
18	12	13	15	37	59	-0.482408114723	-0.3660173917	0.18261197865	-0.357421875	0.5068359375	0.6904296875	-15.5	20.8125	22.875
18	12	13	15	37	59	-0.514706685677	-0.371641054083	0.167723701202	-0.34912109375	0.8203125	0.65478515625	-19.125	18.875	35.75
18	12	13	15	37	59	-0.521427230621	-0.370852376595	0.168641395084	-0.19873046875	0.734375	0.6064453125	-15.9375	16.5625	34.25
18	12	13	15	37	59	-0.530642481196	-0.379335521122	0.182801268827	-0.1171875	0.9921875	0.40478515625	36.6875	16.375	40.4375
18	12	13	15	37	59	-0.535390520009	-0.38237820427	0.189693768375	-0.1591796875	0.97265625	0.40869140625	11.0	14.4375	35.9375
18	12	13	15	37	59	-0.559432878783	-0.380726848991	0.185053511725	-0.3193359375	0.6923828125	0.623046875	-30.125	21.0625	49.6875
18	12	13	15	37	59	-0.566815997915	-0.381335884028	0.185907346791	-0.30859375	0.69384765625	0.59326171875	-6.25	21.125	51.0625
18	12	13	15	37	59	-0.582894327081	-0.391119041668	0.185305463562	-0.4833984375	0.4599609375	0.599609375	8.625	28.875	39.8125
18	12	13	15	37	59	-0.588011038193	-0.399535006852	0.184081512476	-0.5888671875	0.44775390625	0.74853515625	45.625	21.4375	41.6875
18	12	13	15	37	59	-0.591928069	-0.408087344745	0.17181661314	-0.7412109375	0.40380859375	0.78955078125	-6.3125	42.25	17.0
18	12	13	15	37	59	-0.595094879497	-0.41040184305	0.164307222114	-0.42138671875	0.4609375	0.70166015625	-10.9375	42.375	9.3125
18	12	13	15	37	59	-0.599238060965	-0.409298272238	0.153685214658	-0.47216796875	0.3740234375	0.7939453125	-31.375	36.875	7.1875
18	12	13	15	37	59	-0.603140762535	-0.41088277812	0.148191233701	-0.51953125	0.35595703125	0.71728515625	-2.5	32.125	27.625
18	12	13	15	38	00	-0.603223263909	-0.414376478668	0.146243341124	-0.4580078125	0.36962890625	0.68017578125	23.375	22.75	11.4375
18	12	13	15	38	00	-0.601321601925	-0.419679997446	0.145935845534	-0.50341796875	0.3740234375	0.58642578125	35.5625	17.625	7.4375
18	12	13	15	38	00	-0.601066905735	-0.425898138527	0.14452949155	-0.32470703125	0.61572265625	0.50048828125	18.4375	36.6875	1.625
18	12	13	15	38	00	-0.60308290944	-0.427486357425	0.135618887236	-0.5927734375	0.4912109375	0.7099609375	-18.125	35.5625	2.9375
18	12	13	15	38	00	-0.63463186034	-0.462271755166	0.151669568469	-0.158203125	0.96337890625	0.3828125	-11.5625	31.1875	41.1875
18	12	13	15	38	00	-0.640477804768	-0.465679974307	0.151971577461	-0.43115234375	0.9833984375	0.36328125	-10.5	32.5625	49.5
18	12	13	15	38	00	-0.646275324947	-0.469097379124	0.153436223148	-0.26904296875	1.02294921875	0.31005859375	-9.625	34.25	45.125
18	12	13	15	38	00	-0.653525564432	-0.468887959836	0.152409949975	-0.22265625	0.921875	0.37451171875	-29.5	30.8125	40.5625
18	12	13	15	38	00	-0.69925380283	-0.459089386828	0.129023526157	-0.60400390625	0.7744140625	0.66259765625	-37.1875	30.0625	53.125
18	12	13	15	38	00	-0.706411160318	-0.458489773312	0.125059311171	-0.4287109375	0.74658203125	0.5634765625	-25.3125	36.0	51.5625
18	12	13	15	38	00	-0.713377426003	-0.456480986403	0.118896237667	-0.423828125	0.677734375	0.59814453125	-34.1875	36.4375	40.1875
18	12	13	15	38	00	-0.72014337414	-0.455010497009	0.111570649032	-0.583984375	0.67431640625	0.56591796875	-37.0	36.375	45.6875
18	12	13	15	38	00	-0.725947488831	-0.454647960678	0.106444629269	-0.34130859375	0.64404296875	0.5048828125	-25.5625	39.0	36.4375
18	12	13	15	38	00	-0.731864827902	-0.45513435257	0.100157633441	-0.45654296875	0.7158203125	0.5087890625	-28.0	44.25	42.0
18	12	13	15	38	00	-0.737852118291	-0.454283507026	0.092590095413	-0.59814453125	0.705078125	0.5791015625	-33.9375	38.9375	42.3125
18	12	13	15	38	00	-0.743087652824	-0.453664930057	0.08636295924	-0.44189453125	0.67578125	0.5869140625	-26.375	38.375	33.875
18	12	13	15	38	00	-0.74870543455	-0.452384827659	0.0800157189774	-0.36865234375	0.6171875	0.5791015625	-28.8125	40.6875	33.0
18	12	13	15	38	00	-0.754483697757	-0.450175679878	0.0723235060542	-0.56884765625	0.66259765625	0.6728515625	-34.75	36.5	36.8125
18	12	13	15	38	00	-0.759308661741	-0.449140136786	0.0676853392711	-0.27392578125	0.64013671875	0.57666015625	-22.9375	36.5	28.125
18	12	13	15	38	00	-0.765466393207	-0.445596407017	0.060666049661	-0.44287109375	0.626953125	0.6767578125	-38.875	34.8125	33.75
18	12	13	15	38	00	-0.769525857743	-0.446835247822	0.0568843670222	-0.3701171875	0.72607421875	0.4990234375	-16.8125	36.5	36.75
18	12	13	15	38	00	-0.773544255792	-0.446829532638	0.0529774667846	-0.22216796875	0.64794921875	0.52099609375	-18.4375	37.0625	25.5625
18	12	13	15	38	00	-0.777186482988	-0.448099823943	0.0485207518435	-0.50146484375	0.810546875	0.57373046875	-17.0625	34.25	37.1875
18	12	13	15	38	00	-0.78103790534	-0.44743212347	0.0459577668767	-0.3115234375	0.7412109375	0.6123046875	-16.9375	26.5	29.375
18	12	13	15	38	00	-0.784339038358	-0.448289645688	0.0435167484514	-0.31298828125	0.74560546875	0.578125	-10.125	30.8125	31.3125
18	12	13	15	38	00	-0.787014254817	-0.451091303401	0.042173466466	-0.263671875	0.80419921875	0.48779296875	-3.25	33.25	33.6875
18	12	13	15	38	00	-0.791524631315	-0.448951745544	0.0382060620868	-0.32666015625	0.6884765625	0.623046875	-25.5625	29.0	29.4375
18	12	13	15	38	00	-0.795075652399	-0.449873542169	0.0358263151883	-0.3837890625	0.80859375	0.552734375	-13.875	29.5	39.4375
18	12	13	15	38	00	-0.799820054725	-0.448521753695	0.0333232926272	-0.234375	0.69140625	0.55419921875	-22.4375	30.9375	37.4375
18	12	13	15	38	00	-0.804437046722	-0.447506253912	0.0298459571963	-0.40966796875	0.69482421875	0.61328125	-20.1875	30.75	44.875
18	12	13	15	38	00	-0.807313814704	-0.450074247345	0.0284424463334	-0.25390625	0.73046875	0.48828125	-1.8125	34.9375	41.5
18	12	13	15	38	00	-0.810992631193	-0.451026154765	0.0250231019558	-0.3515625	0.759765625	0.529296875	-15.0	37.75	42.5
18	12	13	15	38	00	-0.814198808298	-0.452814164825	0.0226437599609	-0.31982421875	0.78955078125	0.4169921875	-14.1875	34.125	43.9375
18	12	13	15	38	00	-0.818696426536	-0.451827169051	0.0191033235057	-0.31396484375	0.71875	0.50439453125	-25.8125	34.8125	43.25
18	12	13	15	38	00	-0.82331652756	-0.450779530953	0.014464493479	-0.3984375	0.68603515625	0.541015625	-25.0625	38.6875	48.3125
18	12	13	15	38	00	-0.828724026109	-0.447259512692	0.00884997671128	-0.5546875	0.67333984375	0.75537109375	-29.625	33.1875	50.9375
18	12	13	15	38	00	-0.832036696078	-0.447846055587	0.0041501133524	-0.45361328125	0.64111328125	0.70556640625	-4.0625	41.875	48.0625
18	12	13	15	38	00	-0.835621502178	-0.447992244978	-0.000488274926406	-0.4560546875	0.7041015625	0.7841796875	-5.1875	43.3125	49.6875
