18	12	04	16	18	29	0.316778224554	-0.557993550842	-0.138430253042	-0.9140625	-0.6279296875	0.4873046875	37.8125	-24.5	-11.0
18	12	04	16	18	29	0.319462153515	-0.556159561107	-0.137330883724	-0.89599609375	-0.66455078125	0.1337890625	27.8125	-20.0625	-9.1875
18	12	04	16	18	29	0.319214297666	-0.556275164231	-0.143066599183	-0.55322265625	-0.857421875	0.15869140625	-12.6875	-11.75	3.875
18	12	04	16	18	29	0.318005410154	-0.552999811132	-0.151311979227	-0.9755859375	-0.90478515625	0.3662109375	-25.4375	-38.75	-14.0625
18	12	04	16	18	29	0.313480911445	-0.553596547275	-0.15466523162	-0.83056640625	-0.48486328125	0.17626953125	-25.0	-20.5625	2.0625
18	12	04	16	18	29	0.312139669453	-0.552988933367	-0.15021034934	-0.83251953125	-0.412109375	0.18896484375	20.1875	-11.9375	11.0
18	12	04	16	18	29	0.313656757926	-0.548456825594	-0.1505112989	-0.64404296875	-0.50634765625	0.2666015625	15.6875	-29.4375	-6.4375
18	12	04	16	18	29	0.317448375224	-0.544868610965	-0.151796598574	-0.60546875	-0.62548828125	0.29052734375	17.3125	-17.25	-14.9375
18	12	04	16	18	29	0.320988711114	-0.545479389851	-0.154055049791	-0.748046875	-0.6826171875	0.10546875	10.875	-4.625	-21.8125
18	12	04	16	18	29	0.323008884595	-0.547076461192	-0.156682503166	-0.96875	-0.75537109375	0.00634765625	8.125	-11.875	-22.0
18	12	04	16	18	29	0.32372874058	-0.54571241884	-0.154479155809	-0.96044921875	-0.533203125	0.1875	20.875	-19.5	-7.75
18	12	04	16	18	29	0.325808277235	-0.54254585544	-0.148194547982	-0.94921875	-0.45458984375	0.1162109375	49.0625	-27.0625	-3.125
18	12	04	16	18	29	0.329293614518	-0.536025305411	-0.137027648673	-1.22412109375	-0.42578125	0.22900390625	78.875	-41.9375	-3.25
18	12	04	16	18	29	0.327451853648	-0.527951264502	-0.132445577337	-0.51220703125	-0.22412109375	0.40087890625	26.125	-44.5	20.9375
18	12	04	16	18	29	0.331256608713	-0.523223079029	-0.136421323102	-0.52783203125	-0.75927734375	0.357421875	11.4375	-25.625	-13.125
18	12	04	16	18	29	0.334964350982	-0.519780687494	-0.136231857032	-1.17041015625	-0.740234375	0.3427734375	27.8125	-32.0	-26.0
18	12	04	16	18	30	0.337771364475	-0.516178610294	-0.133607068456	-0.376953125	-0.64013671875	0.240234375	37.8125	-13.1875	12.875
18	12	04	16	18	30	0.342174239093	-0.514054841534	-0.131168826224	-0.8662109375	-0.734375	0.14501953125	44.875	-20.6875	-11.6875
18	12	04	16	18	30	0.34431602304	-0.509912436886	-0.131903372769	-0.35693359375	-0.572265625	0.18896484375	22.875	-24.9375	2.875
18	12	04	16	18	30	0.346686152196	-0.505868807994	-0.134890210626	-0.66748046875	-0.732421875	0.48974609375	6.3125	-22.5625	-10.8125
18	12	04	16	18	30	0.351442929665	-0.503787763365	-0.134644512477	-0.8388671875	-0.56201171875	0.39111328125	20.75	-11.25	-29.6875
18	12	04	16	18	30	0.355668381516	-0.501671259255	-0.131231683587	-0.841796875	-0.4921875	0.43115234375	30.5	-5.8125	-20.0625
18	12	04	16	18	30	0.359061987915	-0.500355290996	-0.124631069067	-0.9580078125	-0.3154296875	0.3515625	38.8125	-5.3125	-18.625
18	12	04	16	18	30	0.358408417407	-0.497755559257	-0.118594610869	-0.97998046875	-0.30322265625	0.6005859375	19.875	-11.6875	1.625
18	12	04	16	18	30	0.359555452031	-0.493648700735	-0.116759392248	-0.7373046875	-0.7109375	0.60107421875	23.0	-16.3125	8.625
18	12	04	16	18	30	0.362308913454	-0.490423200741	-0.115174683236	-0.79833984375	-0.77880859375	0.4716796875	31.4375	-17.4375	-0.25
18	12	04	16	18	30	0.364149114056	-0.483843450742	-0.11499445707	-0.44970703125	-0.69287109375	0.77587890625	16.9375	-16.0625	10.8125
18	12	04	16	18	30	0.368896249379	-0.477843933883	-0.115112231358	-0.35986328125	-0.716796875	0.8154296875	21.5	-2.75	-2.5
18	12	04	16	18	30	0.375133378198	-0.474074348921	-0.111575628921	-0.65576171875	-0.7470703125	0.767578125	40.0625	6.5	-10.8125
18	12	04	16	18	30	0.379757813753	-0.4702112178	-0.109007948467	-0.5078125	-0.71728515625	0.79541015625	29.8125	7.5625	-1.0
18	12	04	16	18	30	0.383992800403	-0.467005073261	-0.106695185997	-0.5146484375	-0.57861328125	0.7509765625	23.25	7.9375	-6.75
18	12	04	16	18	30	0.386552271353	-0.462971574011	-0.104679795574	-0.58642578125	-0.4970703125	0.81396484375	14.6875	-1.375	-4.625
18	12	04	16	18	30	0.390565411086	-0.458192614631	-0.102722548345	-0.42626953125	-0.48681640625	0.755859375	22.25	-0.375	-6.9375
18	12	04	16	18	30	0.396252243075	-0.453565991727	-0.100344837895	-0.44970703125	-0.53759765625	0.7119140625	31.625	1.375	-14.0625
18	12	04	16	18	30	0.403252272498	-0.452384719805	-0.098264894615	-0.61767578125	-0.66015625	0.41650390625	40.25	3.8125	-26.125
18	12	04	16	18	30	0.40888681573	-0.450819229883	-0.0970488187806	-0.8515625	-0.69873046875	0.55908203125	30.25	-6.0	-27.8125
18	12	04	16	18	30	0.412671994845	-0.446547598622	-0.0997346604906	-0.3671875	-0.6650390625	0.671875	10.1875	-9.625	-10.5625
18	12	04	16	18	30	0.418224834492	-0.445203144014	-0.0990018507802	-0.50439453125	-0.4189453125	0.47216796875	19.0625	3.9375	-29.375
18	12	04	16	18	30	0.419998874254	-0.446367064006	-0.0997352362348	-0.8583984375	-0.4853515625	0.57763671875	-4.625	-1.3125	-24.5
18	12	04	16	18	30	0.422245422631	-0.446049371001	-0.106019123896	-0.4541015625	-0.71044921875	0.6083984375	-16.8125	-3.0	-17.9375
18	12	04	16	18	30	0.426095922889	-0.444834133507	-0.10821774406	-0.62744140625	-0.58349609375	0.64990234375	0.75	-2.25	-27.0625
18	12	04	16	18	30	0.429388582688	-0.442816512779	-0.111390783711	-0.5068359375	-0.60986328125	0.666015625	-2.8125	-4.6875	-21.0625
18	12	04	16	18	30	0.433663400013	-0.440255327839	-0.113466609518	-0.52734375	-0.5478515625	0.70703125	2.125	-3.4375	-27.3125
18	12	04	16	18	30	0.436916709631	-0.437282943251	-0.116401252482	-0.4990234375	-0.58154296875	0.7724609375	-4.3125	-6.125	-21.3125
18	12	04	16	18	30	0.44062966928	-0.434953182337	-0.118168588409	-0.5458984375	-0.595703125	0.73095703125	2.25	-3.0	-22.8125
18	12	04	16	18	30	0.443723680033	-0.432432224627	-0.119262183052	-0.56103515625	-0.53369140625	0.73095703125	2.125	-5.25	-21.0625
18	12	04	16	18	30	0.447222085189	-0.430131572857	-0.120243961761	-0.51318359375	-0.60009765625	0.6435546875	8.875	-4.625	-18.8125
18	12	04	16	18	30	0.450137092015	-0.429446044666	-0.119446547671	-0.65966796875	-0.5654296875	0.57177734375	12.6875	-1.3125	-18.6875
18	12	04	16	18	30	0.451489199513	-0.429149731212	-0.121219082092	-0.5078125	-0.58837890625	0.59130859375	-3.1875	-1.5	-10.6875
18	12	04	16	18	30	0.452397326515	-0.430058224855	-0.123231273912	-0.56396484375	-0.62646484375	0.5556640625	-6.4375	0.75	-10.5
18	12	04	16	18	30	0.452709583837	-0.431407757659	-0.12604089128	-0.546875	-0.62548828125	0.56982421875	-13.4375	1.25	-9.375
18	12	04	16	18	30	0.453741669175	-0.432684247079	-0.128053540749	-0.49365234375	-0.61279296875	0.53125	-7.375	5.3125	-9.625
18	12	04	16	18	30	0.454159567516	-0.43572707331	-0.128783320449	-0.6162109375	-0.59716796875	0.484375	-7.125	10.3125	-9.5
18	12	04	16	18	30	0.454033397277	-0.438530711041	-0.130979388433	-0.5791015625	-0.63525390625	0.53955078125	-15.4375	8.375	-7.625
18	12	04	16	18	30	0.45448402819	-0.440506477498	-0.132512063551	-0.63134765625	-0.68896484375	0.56982421875	-8.3125	5.875	-8.8125
18	12	04	16	18	30	0.455704780069	-0.441177893161	-0.132756214392	-0.5546875	-0.58056640625	0.615234375	-3.0625	7.375	-9.5
18	12	04	16	18	30	0.45703437085	-0.441836513166	-0.133118584779	-0.50341796875	-0.54638671875	0.6416015625	-6.375	10.5625	-9.75
18	12	04	16	18	30	0.45875313913	-0.443371847078	-0.135562895424	-0.4853515625	-0.68798828125	0.67333984375	-13.375	14.0625	-13.125
18	12	04	16	18	30	0.460753980869	-0.445190029998	-0.138244504791	-0.439453125	-0.71630859375	0.669921875	-14.4375	17.75	-12.9375
18	12	04	16	18	30	0.463198496096	-0.447451334152	-0.139710285619	-0.55419921875	-0.7578125	0.609375	-5.5	17.125	-16.3125
18	12	04	16	18	30	0.464676337669	-0.449355996048	-0.141362195986	-0.48974609375	-0.67041015625	0.61669921875	-11.1875	15.6875	-11.4375
18	12	04	16	18	30	0.465471576444	-0.451432963465	-0.14404837666	-0.53857421875	-0.67041015625	0.69921875	-22.125	13.875	-13.25
18	12	04	16	18	30	0.466196038999	-0.452706994142	-0.146609437769	-0.4814453125	-0.642578125	0.70068359375	-21.0	11.6875	-10.5625
18	12	04	16	18	30	0.466920241177	-0.453614540187	-0.147766523384	-0.49267578125	-0.56103515625	0.6787109375	-15.8125	11.1875	-10.0
18	12	04	16	18	30	0.466492961748	-0.455811780496	-0.148498937058	-0.626953125	-0.5556640625	0.59765625	-17.25	9.125	-8.75
18	12	04	16	18	30	0.466187987466	-0.457154755973	-0.149597637769	-0.5849609375	-0.66650390625	0.56591796875	-10.625	4.25	-4.1875
18	12	04	16	18	31	0.466499298878	-0.458503563152	-0.149294424317	-0.5478515625	-0.58935546875	0.50927734375	-3.3125	7.9375	-4.75
18	12	04	16	18	31	0.465830612809	-0.460886655834	-0.149173220349	-0.61181640625	-0.60498046875	0.45458984375	-6.8125	7.1875	-2.125
18	12	04	16	18	31	0.465463435705	-0.462960944115	-0.149050840544	-0.59716796875	-0.65869140625	0.3818359375	0.125	3.8125	-1.4375
18	12	04	16	18	31	0.464001712118	-0.465039337625	-0.146793490877	-0.66650390625	-0.52197265625	0.38232421875	1.875	3.8125	3.9375
18	12	04	16	18	31	0.461747790673	-0.468095678344	-0.146916977151	-0.6083984375	-0.56005859375	0.3935546875	-12.5625	5.375	4.625
18	12	04	16	18	31	0.460033191904	-0.471996374286	-0.146915204049	-0.6357421875	-0.6533203125	0.35302734375	-8.9375	9.6875	3.375
18	12	04	16	18	31	0.459232494048	-0.475712129002	-0.145753215814	-0.72314453125	-0.69580078125	0.35205078125	-0.0625	11.0	-0.125
18	12	04	16	18	31	0.458743588208	-0.478458087807	-0.145081627085	-0.6865234375	-0.7080078125	0.4228515625	-1.25	9.4375	-0.5
18	12	04	16	18	31	0.457835872691	-0.482006384035	-0.144473738256	-0.69775390625	-0.642578125	0.42919921875	-8.0	13.25	-2.0625
18	12	04	16	18	31	0.457216042553	-0.484376787305	-0.145081101742	-0.6259765625	-0.65869140625	0.57275390625	-15.4375	13.0625	-2.5625
18	12	04	16	18	31	0.457535110198	-0.487565429598	-0.145878990578	-0.51416015625	-0.69384765625	0.517578125	-13.4375	22.1875	-3.1875
18	12	04	16	18	31	0.457842053257	-0.491046436268	-0.147527562021	-0.5166015625	-0.724609375	0.583984375	-20.6875	25.0	-5.1875
18	12	04	16	18	31	0.459042989561	-0.494809402522	-0.150817075815	-0.458984375	-0.8056640625	0.51171875	-21.3125	24.9375	-10.5625
18	12	04	16	18	31	0.459670339658	-0.498673041429	-0.15179924774	-0.57763671875	-0.59228515625	0.45849609375	-18.125	23.3125	-14.125
18	12	04	16	18	31	0.460206500224	-0.500001545071	-0.153686998351	-0.51123046875	-0.55322265625	0.60693359375	-22.6875	14.0	-13.125
18	12	04	16	18	31	0.46235005238	-0.500863964334	-0.156313991306	-0.50537109375	-0.71240234375	0.517578125	-11.9375	10.8125	-18.0
18	12	04	16	18	31	0.465775183715	-0.500017075743	-0.157720229946	-0.4609375	-0.6123046875	0.43212890625	3.0625	4.0	-21.6875
18	12	04	16	18	31	0.470168219389	-0.497940066698	-0.159794936825	-0.49755859375	-0.7177734375	0.37841796875	12.25	-5.625	-27.25
18	12	04	16	18	31	0.474723740976	-0.49419363984	-0.160275719183	-0.53271484375	-0.60791015625	0.3935546875	21.0625	-13.0	-27.3125
18	12	04	16	18	31	0.477788225139	-0.489873313102	-0.162172114741	-0.517578125	-0.62451171875	0.447265625	11.625	-21.125	-22.25
18	12	04	16	18	31	0.480060727433	-0.486774863481	-0.164679445978	-0.62353515625	-0.69873046875	0.3583984375	10.125	-24.9375	-23.5625
18	12	04	16	18	31	0.481641685771	-0.482129980472	-0.168705819221	-0.49755859375	-0.70166015625	0.421875	4.5625	-33.0625	-17.9375
18	12	04	16	18	31	0.483770789427	-0.476385441772	-0.172487541121	-0.55517578125	-0.76416015625	0.53857421875	6.9375	-35.4375	-20.375
18	12	04	16	18	31	0.484991922705	-0.471136754513	-0.175356379805	-0.4501953125	-0.5927734375	0.6142578125	-1.8125	-27.4375	-14.0
18	12	04	16	18	31	0.484630187018	-0.469187940505	-0.180240924718	-0.517578125	-0.7080078125	0.54345703125	-17.875	-21.9375	-14.3125
18	12	04	16	18	31	0.484155676025	-0.46737014767	-0.186532998731	-0.45703125	-0.69091796875	0.5380859375	-25.3125	-22.375	-16.3125
18	12	04	16	18	31	0.483224140246	-0.466927456472	-0.191714920363	-0.53955078125	-0.67626953125	0.4970703125	-25.4375	-17.875	-16.375
18	12	04	16	18	31	0.482800328968	-0.466442492285	-0.195500563045	-0.6328125	-0.81689453125	0.54345703125	-15.5625	-15.1875	-15.375
18	12	04	16	18	31	0.483207279407	-0.465263242506	-0.198727156972	-0.43701171875	-0.75341796875	0.62744140625	-15.75	-6.5	-10.0625
18	12	04	16	18	31	0.48473265347	-0.464164168929	-0.200863153182	-0.51708984375	-0.88818359375	0.74267578125	-10.9375	0.4375	-13.375
18	12	04	16	18	31	0.485424382795	-0.46375637627	-0.205815543667	-0.4296875	-0.84423828125	0.77734375	-30.9375	0.625	-16.1875
18	12	04	16	18	31	0.484195013254	-0.466189526186	-0.213441316192	-0.3896484375	-0.79150390625	0.71337890625	-56.125	4.875	-16.3125
18	12	04	16	18	31	0.480236169261	-0.470958602189	-0.222600573118	-0.431640625	-0.6728515625	0.65966796875	-79.125	4.9375	-13.3125
18	12	04	16	18	31	0.476089455746	-0.476577752624	-0.231879979792	-0.55224609375	-0.75830078125	0.5751953125	-77.25	3.75	-18.5
18	12	04	16	18	31	0.470765420219	-0.481934883709	-0.240784335896	-0.49609375	-0.5771484375	0.525390625	-81.3125	0.3125	-13.8125
18	12	04	16	18	31	0.46686125029	-0.486941960362	-0.247743471686	-0.6162109375	-0.71484375	0.37255859375	-57.5	-0.9375	-17.75
18	12	04	16	18	31	0.463379142742	-0.490844977073	-0.254699837021	-0.55615234375	-0.6845703125	0.39208984375	-55.6875	-2.9375	-18.0
18	12	04	16	18	31	0.459849874678	-0.494030380362	-0.260138062899	-0.53857421875	-0.701171875	0.34423828125	-43.9375	-5.3125	-10.875
18	12	04	16	18	31	0.458023779214	-0.496233119005	-0.265084924457	-0.55126953125	-0.75830078125	0.28759765625	-31.0	-5.875	-17.4375
18	12	04	16	18	31	0.455019159539	-0.499147778231	-0.268616944485	-0.56787109375	-0.70703125	0.2685546875	-30.3125	-4.1875	-8.8125
18	12	04	16	18	31	0.451777788504	-0.503107850668	-0.271847915428	-0.6298828125	-0.7783203125	0.17578125	-26.5	-2.0625	-7.75
18	12	04	16	18	31	0.449183338568	-0.506803813036	-0.275284258315	-0.59130859375	-0.90771484375	0.06689453125	-17.0	-3.3125	-6.625
18	12	04	16	18	31	0.447384103727	-0.510005671316	-0.278134974172	-0.521484375	-0.97119140625	0.037109375	-8.125	-1.6875	-2.25
18	12	04	16	18	31	0.444828367356	-0.51349355853	-0.280398122892	-0.4677734375	-0.89892578125	0.00537109375	-8.625	-1.1875	4.625
18	12	04	16	18	31	0.442384385529	-0.517030647049	-0.282044459924	-0.58154296875	-0.978515625	-0.029296875	-2.5	-2.5	2.4375
18	12	04	16	18	31	0.438481226081	-0.519353668252	-0.283999602583	-0.44140625	-0.7880859375	0.10888671875	-15.25	-7.9375	12.0625
18	12	04	16	18	31	0.434877342426	-0.522402129659	-0.283814686636	-0.5712890625	-0.84765625	0.10302734375	-6.0625	-2.0	13.1875
18	12	04	16	18	31	0.430729495064	-0.524846666864	-0.28314498053	-0.6083984375	-0.7998046875	0.22021484375	-10.9375	-4.0625	15.25
18	12	04	16	18	31	0.427487663266	-0.526852300016	-0.28143141281	-0.5712890625	-0.8564453125	0.21484375	-1.4375	-1.25	18.875
18	12	04	16	18	31	0.426536467084	-0.527371934117	-0.277053380666	-0.60888671875	-0.935546875	0.27294921875	19.25	2.0	19.0
18	12	04	16	18	32	0.427250606848	-0.527044141447	-0.271487242751	-0.43994140625	-0.8515625	0.26904296875	30.125	7.3125	22.5625
18	12	04	16	18	32	0.428523983984	-0.527949360698	-0.26427985339	-0.49951171875	-0.830078125	0.205078125	37.8125	15.6875	21.5625
18	12	04	16	18	32	0.42865594733	-0.528938123246	-0.258182351873	-0.55029296875	-0.83642578125	0.234375	28.875	10.8125	21.4375
18	12	04	16	18	32	0.430109960097	-0.527704088973	-0.252926873087	-0.46435546875	-0.888671875	0.30029296875	33.6875	4.625	18.75
18	12	04	16	18	32	0.431828933802	-0.526312494159	-0.247988827991	-0.34521484375	-0.7861328125	0.3447265625	29.125	8.25	19.6875
18	12	04	16	18	32	0.433048700614	-0.526433409837	-0.243532673072	-0.4599609375	-0.78076171875	0.33935546875	20.875	12.875	13.125
18	12	04	16	18	32	0.435181924531	-0.526246641417	-0.238892293494	-0.47900390625	-0.84130859375	0.3408203125	26.875	13.5	10.75
18	12	04	16	18	32	0.437809564737	-0.525701070833	-0.232546276544	-0.54931640625	-0.849609375	0.318359375	38.3125	13.4375	11.1875
18	12	04	16	18	32	0.440498443556	-0.524789471761	-0.225406782881	-0.55029296875	-0.77685546875	0.3134765625	42.3125	11.8125	11.8125
18	12	04	16	18	32	0.444024411598	-0.523552082844	-0.218319631654	-0.55224609375	-0.83740234375	0.33349609375	46.0625	13.25	9.4375
18	12	04	16	18	32	0.447085055295	-0.521914581274	-0.211976299937	-0.54345703125	-0.81005859375	0.375	40.8125	10.0	9.6875
18	12	04	16	18	32	0.450399220655	-0.52022666454	-0.205514863253	-0.56201171875	-0.8720703125	0.3837890625	43.9375	10.25	9.8125
18	12	04	16	18	32	0.453797619115	-0.517701601256	-0.199463432316	-0.546875	-0.85693359375	0.49560546875	39.4375	9.25	8.9375
18	12	04	16	18	32	0.457421562494	-0.514370363909	-0.19471240784	-0.431640625	-0.85986328125	0.5673828125	34.0625	8.5625	9.875
18	12	04	16	18	32	0.460318093427	-0.511830751986	-0.191890756528	-0.34814453125	-0.833984375	0.583984375	20.4375	10.4375	9.375
18	12	04	16	18	32	0.463158074617	-0.511683465935	-0.190378233359	-0.36181640625	-0.87451171875	0.4541015625	14.75	17.5	3.6875
18	12	04	16	18	32	0.465898077459	-0.512835798089	-0.188666442739	-0.505859375	-0.91552734375	0.3671875	16.25	18.125	-2.125
18	12	04	16	18	32	0.468383379892	-0.51312211034	-0.186767414969	-0.51123046875	-0.8603515625	0.35888671875	18.25	11.875	-2.0
18	12	04	16	18	32	0.470330966531	-0.511346072878	-0.185178322405	-0.48388671875	-0.75732421875	0.45556640625	15.4375	1.4375	-0.3125
18	12	04	16	18	32	0.471690764046	-0.509350339798	-0.185062939517	-0.4619140625	-0.7138671875	0.4951171875	5.1875	-3.0	-2.8125
18	12	04	16	18	32	0.473629392209	-0.508175041177	-0.184568979644	-0.56982421875	-0.7861328125	0.47998046875	8.5625	1.25	-8.625
18	12	04	16	18	32	0.475285893767	-0.506292087941	-0.183595732432	-0.552734375	-0.697265625	0.57177734375	5.375	0.375	-7.0
18	12	04	16	18	32	0.477438765391	-0.504600648618	-0.18140475719	-0.51904296875	-0.67822265625	0.5390625	12.0625	5.0625	-4.6875
18	12	04	16	18	32	0.481332732285	-0.504221367158	-0.178531352008	-0.64208984375	-0.8759765625	0.4111328125	27.1875	11.25	-12.6875
18	12	04	16	18	32	0.484577553193	-0.503438173414	-0.176642831457	-0.52294921875	-0.7841796875	0.44482421875	18.75	9.375	-9.625
18	12	04	16	18	32	0.486328641339	-0.505005418981	-0.175110049197	-0.52783203125	-0.76025390625	0.3271484375	10.5625	13.9375	-5.5
18	12	04	16	18	32	0.487140342259	-0.508076207112	-0.174689344637	-0.61083984375	-0.8125	0.29345703125	1.8125	15.0	-7.875
18	12	04	16	18	32	0.486563432954	-0.510549813931	-0.175961161215	-0.54296875	-0.7216796875	0.3662109375	-13.3125	8.375	-5.1875
18	12	04	16	18	32	0.486078000684	-0.512566932414	-0.177365980661	-0.51220703125	-0.75390625	0.35986328125	-11.0	6.5625	-2.9375
18	12	04	16	18	32	0.486286679532	-0.513936719174	-0.178107760873	-0.53466796875	-0.73388671875	0.3955078125	-7.25	6.8125	-6.0625
18	12	04	16	18	32	0.487977618492	-0.514161783386	-0.177612866768	-0.56884765625	-0.78125	0.4189453125	5.5625	6.8125	-9.0625
18	12	04	16	18	32	0.490351551603	-0.514155024981	-0.174619839325	-0.60400390625	-0.73583984375	0.35107421875	20.625	9.3125	-7.25
18	12	04	16	18	32	0.492498037716	-0.51373850334	-0.169679581714	-0.630859375	-0.67431640625	0.322265625	29.6875	7.9375	-1.8125
18	12	04	16	18	32	0.495060485414	-0.513188085484	-0.164552221511	-0.6689453125	-0.7509765625	0.25634765625	37.8125	5.4375	-2.25
18	12	04	16	18	32	0.496719539894	-0.51283332197	-0.159245672104	-0.7451171875	-0.76025390625	0.25	36.6875	1.5625	0.3125
18	12	04	16	18	32	0.496969371228	-0.512411922311	-0.154486548585	-0.75830078125	-0.724609375	0.2890625	28.8125	-3.3125	5.625
18	12	04	16	18	32	0.498044472314	-0.511533176773	-0.149962655451	-0.73779296875	-0.796875	0.34423828125	30.9375	-1.1875	4.5625
18	12	04	16	18	32	0.499392188794	-0.509585111738	-0.144165772419	-0.607421875	-0.6337890625	0.42919921875	32.0625	3.25	9.3125
18	12	04	16	18	32	0.502324728133	-0.506719306557	-0.137818862227	-0.4951171875	-0.63720703125	0.47265625	39.625	8.3125	9.0625
18	12	04	16	18	32	0.507153225683	-0.504528651281	-0.130679390563	-0.5244140625	-0.73681640625	0.40625	51.875	16.5625	1.8125
18	12	04	16	18	32	0.513859564223	-0.50140828128	-0.123047972618	-0.48486328125	-0.7958984375	0.44970703125	61.875	20.25	-2.375
18	12	04	16	18	32	0.520997407718	-0.497681919229	-0.115417771555	-0.431640625	-0.72607421875	0.4697265625	62.625	20.5	-4.625
18	12	04	16	18	32	0.527587543729	-0.495238932186	-0.109191822736	-0.4404296875	-0.70947265625	0.44873046875	52.0	22.4375	-9.0625
18	12	04	16	18	32	0.533829848549	-0.493972669141	-0.103701910895	-0.501953125	-0.75146484375	0.37060546875	49.625	21.375	-13.125
18	12	04	16	18	32	0.539682972392	-0.492685020714	-0.0990008800294	-0.658203125	-0.81103515625	0.35693359375	48.25	12.5	-18.3125
18	12	04	16	18	32	0.542974229621	-0.490666572833	-0.0977182713156	-0.58935546875	-0.68017578125	0.5224609375	19.4375	0.5	-14.625
18	12	04	16	18	32	0.544388463456	-0.48951625484	-0.0993071005766	-0.46826171875	-0.6103515625	0.6005859375	-5.8125	-0.25	-10.3125
18	12	04	16	18	32	0.545600755676	-0.491095612503	-0.101441823015	-0.6806640625	-0.7197265625	0.4677734375	-8.0	1.25	-22.0625
18	12	04	16	18	32	0.545726621342	-0.491587317782	-0.103578802865	-0.796875	-0.734375	0.59716796875	-12.8125	-7.5	-18.25
18	12	04	16	18	32	0.544992372241	-0.490120814099	-0.107606848724	-0.56787109375	-0.7158203125	0.58984375	-15.5	-18.8125	-6.1875
18	12	04	16	18	33	0.544751397352	-0.487071837633	-0.112612473738	-0.49462890625	-0.68798828125	0.638671875	-15.9375	-25.3125	-8.125
18	12	04	16	18	33	0.542916887063	-0.484993545206	-0.118959529273	-0.3134765625	-0.42138671875	0.87890625	-49.5625	-12.8125	-5.5625
18	12	04	16	18	33	0.54315063941	-0.484862195694	-0.124267299903	-0.44091796875	-0.54345703125	0.87890625	-44.0625	2.625	-20.9375
18	12	04	16	18	33	0.543394997101	-0.484923424909	-0.131042239557	-0.4443359375	-0.69921875	0.822265625	-43.1875	-2.1875	-21.6875
18	12	04	16	18	33	0.545182015773	-0.483656772613	-0.13562409752	-0.4775390625	-0.8662109375	0.6875	-14.125	-6.125	-18.5
18	12	04	16	18	33	0.549128719536	-0.48028163766	-0.136046228281	-0.58544921875	-0.8525390625	0.52734375	22.9375	-11.375	-21.125
18	12	04	16	18	33	0.550584884404	-0.477893763982	-0.138302333229	-0.443359375	-0.57958984375	0.5576171875	-4.3125	-11.75	-15.75
18	12	04	16	18	33	0.549993289129	-0.478581442688	-0.142823692882	-0.5	-0.5888671875	0.5224609375	-27.625	-9.4375	-17.9375
18	12	04	16	18	33	0.547324043826	-0.480732036263	-0.149603126064	-0.57568359375	-0.61279296875	0.55419921875	-48.0	-14.375	-17.75
18	12	04	16	18	33	0.545283139652	-0.481501979932	-0.156736859484	-0.515625	-0.73681640625	0.58203125	-40.4375	-18.0	-15.0625
18	12	04	16	18	33	0.543752979317	-0.482840927082	-0.162777999308	-0.52099609375	-0.8056640625	0.57568359375	-35.5	-10.625	-14.125
18	12	04	16	18	33	0.541323735933	-0.483767271508	-0.168946228556	-0.4765625	-0.73583984375	0.65673828125	-43.4375	-12.0625	-8.6875
18	12	04	16	18	33	0.537721313074	-0.484986782484	-0.174927273924	-0.46484375	-0.6904296875	0.6474609375	-47.8125	-12.875	-3.0
18	12	04	16	18	33	0.535167610962	-0.485544975502	-0.179019913658	-0.486328125	-0.7353515625	0.5244140625	-27.875	-13.875	-1.6875
18	12	04	16	18	33	0.532732147601	-0.485855624989	-0.182195859371	-0.470703125	-0.65283203125	0.46240234375	-22.75	-13.6875	-0.75
18	12	04	16	18	33	0.530144672174	-0.486077845866	-0.185422463051	-0.4716796875	-0.58544921875	0.4248046875	-23.1875	-16.375	-2.4375
18	12	04	16	18	33	0.525883735379	-0.48810262672	-0.188844507574	-0.5634765625	-0.60400390625	0.27880859375	-25.9375	-18.8125	0.875
18	12	04	16	18	33	0.521599388959	-0.488213610143	-0.194760548815	-0.53515625	-0.7373046875	0.44384765625	-34.25	-29.0625	-0.6875
18	12	04	16	18	33	0.516131566831	-0.487688176322	-0.200934853123	-0.51708984375	-0.6357421875	0.38330078125	-35.625	-38.4375	3.375
18	12	04	16	18	33	0.510689784864	-0.487434997242	-0.208377545778	-0.52978515625	-0.75634765625	0.49853515625	-44.9375	-35.6875	0.8125
18	12	04	16	18	33	0.506403686545	-0.486323318595	-0.214841626689	-0.5029296875	-0.75341796875	0.46533203125	-33.8125	-35.0	-1.125
18	12	04	16	18	33	0.50226711089	-0.484322460191	-0.221378394847	-0.4296875	-0.7822265625	0.57275390625	-36.5625	-33.8125	2.3125
18	12	04	16	18	33	0.498905430033	-0.483402374096	-0.227174701564	-0.439453125	-0.78271484375	0.48876953125	-31.3125	-26.375	-1.5
18	12	04	16	18	33	0.495489953073	-0.482611364738	-0.231326302309	-0.50830078125	-0.80810546875	0.50439453125	-25.3125	-23.9375	1.75
18	12	04	16	18	33	0.492304835003	-0.481562750827	-0.23437274565	-0.49755859375	-0.8955078125	0.45458984375	-13.625	-23.75	7.5
18	12	04	16	18	33	0.489617084209	-0.479058151827	-0.235470295547	-0.50634765625	-0.912109375	0.43896484375	2.9375	-27.8125	13.0
18	12	04	16	18	33	0.486085007482	-0.477173855914	-0.235291022582	-0.53515625	-0.80322265625	0.458984375	0.375	-24.5	17.125
18	12	04	16	18	33	0.481827907111	-0.475968332867	-0.235603714397	-0.544921875	-0.84033203125	0.44970703125	-3.875	-24.5	20.4375
18	12	04	16	18	33	0.475779795463	-0.475901868534	-0.237004867965	-0.5126953125	-0.73388671875	0.41943359375	-17.5625	-25.125	24.875
18	12	04	16	18	33	0.469359576103	-0.475402046589	-0.239806732706	-0.458984375	-0.77197265625	0.42333984375	-21.9375	-29.25	26.3125
18	12	04	16	18	33	0.464239792177	-0.474799019635	-0.241763583594	-0.38525390625	-0.64208984375	0.4228515625	-19.9375	-21.875	21.875
18	12	04	16	18	33	0.458079397229	-0.476024146435	-0.2444514305	-0.435546875	-0.5703125	0.40185546875	-32.6875	-17.1875	19.6875
18	12	04	16	18	33	0.45209277911	-0.477422670204	-0.248599148011	-0.47119140625	-0.67822265625	0.41650390625	-38.0	-18.3125	14.3125
18	12	04	16	18	33	0.446912363673	-0.478285343041	-0.252570794985	-0.51611328125	-0.81396484375	0.3564453125	-26.625	-21.0625	12.3125
18	12	04	16	18	33	0.442642089282	-0.477799541492	-0.254952565765	-0.470703125	-0.76611328125	0.38720703125	-16.125	-21.4375	14.1875
18	12	04	16	18	33	0.438787836244	-0.47656912302	-0.256412254842	-0.5244140625	-0.75927734375	0.3828125	-8.625	-24.625	12.25
18	12	04	16	18	33	0.435060142356	-0.475282453497	-0.257813417692	-0.52783203125	-0.783203125	0.416015625	-9.0	-23.625	12.5
18	12	04	16	18	33	0.432069260166	-0.473634335202	-0.258362647024	-0.56982421875	-0.806640625	0.45947265625	-3.875	-21.5	9.5625
18	12	04	16	18	33	0.428765948566	-0.472344437858	-0.258907495205	-0.48974609375	-0.7412109375	0.4619140625	-7.8125	-18.25	14.1875
18	12	04	16	18	33	0.425609608783	-0.471753429842	-0.260993358261	-0.39208984375	-0.8134765625	0.4453125	-14.1875	-13.25	15.125
18	12	04	16	18	33	0.423591253496	-0.472359180232	-0.262516712001	-0.53857421875	-0.94189453125	0.30517578125	-2.125	-10.875	6.875
18	12	04	16	18	33	0.422978657808	-0.471685291131	-0.26031803399	-0.65966796875	-0.953125	0.21728515625	27.9375	-14.875	6.6875
18	12	04	16	18	33	0.422622969294	-0.469011394578	-0.256051900085	-0.5205078125	-0.8115234375	0.22607421875	40.625	-18.875	15.625
18	12	04	16	18	33	0.422121733728	-0.466128351718	-0.25433505848	-0.359375	-0.74365234375	0.30615234375	23.0	-17.0	14.5
18	12	04	16	18	33	0.419814242355	-0.464859736809	-0.256173360739	-0.37890625	-0.724609375	0.353515625	-5.5	-17.0	10.125
18	12	04	16	18	33	0.417118039988	-0.463016893671	-0.259035551903	-0.38330078125	-0.7529296875	0.36962890625	-9.3125	-22.625	8.875
18	12	04	16	18	33	0.415092500557	-0.461356302266	-0.261469823906	-0.4462890625	-0.724609375	0.408203125	-9.4375	-19.9375	2.1875
18	12	04	16	18	33	0.412356290684	-0.46173406439	-0.265565752037	-0.5126953125	-0.70654296875	0.43310546875	-28.0	-13.125	-3.75
18	12	04	16	18	33	0.408826853279	-0.462783696859	-0.270455626587	-0.57958984375	-0.74853515625	0.453125	-35.625	-14.0625	-5.0
18	12	04	16	18	33	0.406617672692	-0.462220899925	-0.273621589114	-0.60693359375	-0.8271484375	0.47021484375	-18.375	-17.3125	-5.4375
18	12	04	16	18	34	0.405095271337	-0.459356186844	-0.274905695661	-0.521484375	-0.74462890625	0.5361328125	-6.625	-21.3125	-1.0
18	12	04	16	18	34	0.402171065424	-0.458019680519	-0.276618495751	-0.42578125	-0.66650390625	0.54541015625	-19.125	-14.375	8.0
18	12	04	16	18	34	0.402404978537	-0.45678732889	-0.278198375879	-0.53564453125	-0.7802734375	0.51220703125	-7.6875	-8.3125	-11.8125
18	12	04	16	18	34	0.40497292194	-0.453984716411	-0.277896264294	-0.5283203125	-0.82958984375	0.4169921875	17.375	-11.25	-16.4375
18	12	04	16	18	34	0.405827086816	-0.452092229214	-0.277285675351	-0.416015625	-0.76220703125	0.4677734375	8.4375	-5.9375	-1.6875
18	12	04	16	18	34	0.405277400681	-0.452763216604	-0.277651640919	-0.4990234375	-0.7509765625	0.5361328125	-11.5	3.5625	-1.75
18	12	04	16	18	34	0.407109817771	-0.451849172558	-0.276614946648	-0.54150390625	-0.8828125	0.5439453125	8.6875	1.9375	-8.6875
18	12	04	16	18	34	0.409601902779	-0.449701507923	-0.273678279252	-0.3974609375	-0.78466796875	0.5087890625	22.1875	2.375	-1.3125
18	12	04	16	18	34	0.412231514418	-0.447326735145	-0.270080611682	-0.38037109375	-0.73974609375	0.50390625	26.0	2.9375	0.0625
18	12	04	16	18	34	0.413515780058	-0.446780149081	-0.270021226712	-0.53076171875	-0.7314453125	0.50830078125	0.0	-0.5	-13.125
18	12	04	16	18	34	0.414868260204	-0.445752965171	-0.270943093577	-0.541015625	-0.81787109375	0.5400390625	-1.8125	-3.8125	-15.0625
18	12	04	16	18	34	0.417351692828	-0.442558807355	-0.270442432132	-0.49609375	-0.87744140625	0.55517578125	15.375	-9.8125	-12.6875
18	12	04	16	18	34	0.418653300772	-0.439161758136	-0.272347430828	-0.1982421875	-0.76904296875	0.58154296875	-2.5625	-7.5	-2.0625
18	12	04	16	18	34	0.419079275361	-0.438061747636	-0.274299776212	-0.34033203125	-0.8154296875	0.5732421875	-9.8125	-1.875	-3.5625
18	12	04	16	18	34	0.420223939449	-0.438351246641	-0.273984787826	-0.6923828125	-0.9072265625	0.48828125	5.625	-2.75	-16.0
18	12	04	16	18	34	0.418899032325	-0.436660888424	-0.274301653981	-0.39306640625	-0.75341796875	0.56103515625	-4.125	-10.1875	6.75
18	12	04	16	18	34	0.418591267195	-0.433789462811	-0.274177890382	-0.3046875	-0.77001953125	0.60107421875	2.4375	-9.6875	8.0
18	12	04	16	18	34	0.418707623288	-0.432623853333	-0.273197568781	-0.47509765625	-0.76953125	0.5390625	5.0625	-4.75	-0.6875
18	12	04	16	18	34	0.418524559435	-0.432501827061	-0.272159984034	-0.6044921875	-0.80615234375	0.486328125	5.9375	-5.75	-4.375
18	12	04	16	18	34	0.416020158953	-0.432255687456	-0.273867730813	-0.37646484375	-0.7421875	0.48779296875	-13.125	-9.375	10.0
18	12	04	16	18	34	0.413880003552	-0.430603660973	-0.276367594172	-0.37109375	-0.822265625	0.5859375	-14.375	-14.75	7.375
18	12	04	16	18	34	0.41316602486	-0.428913821346	-0.279126640816	-0.40771484375	-0.919921875	0.49462890625	-5.5625	-14.9375	-1.0625
18	12	04	16	18	34	0.410843749502	-0.42726285047	-0.28162725601	-0.341796875	-0.78125	0.55029296875	-14.4375	-15.3125	8.25
18	12	04	16	18	34	0.408208950071	-0.425360073721	-0.283634418508	-0.34765625	-0.73583984375	0.59912109375	-15.875	-15.8125	9.75
18	12	04	16	18	34	0.405400521067	-0.424687868953	-0.286380494557	-0.4619140625	-0.77392578125	0.529296875	-18.875	-16.0625	3.6875
18	12	04	16	18	34	0.401670155441	-0.425412700717	-0.28961022452	-0.44921875	-0.75830078125	0.48046875	-25.6875	-12.5	7.5
18	12	04	16	18	34	0.396602747246	-0.425716245313	-0.292782914518	-0.408203125	-0.6796875	0.58056640625	-34.3125	-14.0625	14.875
18	12	04	16	18	34	0.392772309175	-0.426281555132	-0.296395078998	-0.46923828125	-0.78369140625	0.5107421875	-28.6875	-13.0625	6.5
18	12	04	16	18	34	0.389763896987	-0.428276427366	-0.299128227237	-0.58056640625	-0.8583984375	0.35009765625	-16.6875	-9.3125	1.0625
18	12	04	16	18	34	0.384766214114	-0.429993334142	-0.30200241552	-0.517578125	-0.7490234375	0.3798828125	-25.3125	-13.8125	12.0
18	12	04	16	18	34	0.380436497563	-0.429692434276	-0.30511824985	-0.42578125	-0.791015625	0.4794921875	-23.8125	-17.4375	12.875
18	12	04	16	18	34	0.377010689716	-0.430171821454	-0.308712978563	-0.4052734375	-0.84765625	0.39599609375	-21.125	-12.5	9.3125
18	12	04	16	18	34	0.372439421821	-0.431582948492	-0.312685538838	-0.41259765625	-0.771484375	0.41259765625	-31.4375	-10.375	11.875
18	12	04	16	18	34	0.368288006256	-0.432497317257	-0.317201320602	-0.44580078125	-0.82666015625	0.48388671875	-35.125	-11.25	7.4375
18	12	04	16	18	34	0.363586576804	-0.433716000465	-0.322387829223	-0.37646484375	-0.78466796875	0.46630859375	-41.4375	-9.625	10.4375
18	12	04	16	18	34	0.358707221947	-0.435734364042	-0.327090692941	-0.50732421875	-0.87744140625	0.42822265625	-37.75	-9.6875	8.9375
18	12	04	16	18	34	0.354125632246	-0.435912662099	-0.331969892069	-0.5400390625	-0.89892578125	0.50341796875	-36.625	-17.875	4.0625
18	12	04	16	18	34	0.348148214616	-0.435795626291	-0.337405913464	-0.26171875	-0.7822265625	0.54443359375	-47.25	-14.75	21.0625
18	12	04	16	18	34	0.342229921327	-0.436897053122	-0.34253510228	-0.400390625	-0.79345703125	0.49609375	-47.0	-12.1875	15.4375
18	12	04	16	18	34	0.337961600777	-0.438001164381	-0.346934032656	-0.62548828125	-0.89599609375	0.3837890625	-31.75	-15.5625	-0.8125
18	12	04	16	18	34	0.331919456986	-0.438490139571	-0.351451311755	-0.47021484375	-0.76806640625	0.39453125	-38.25	-19.625	12.375
18	12	04	16	18	34	0.325124165343	-0.437730526345	-0.355274594793	-0.37158203125	-0.6845703125	0.515625	-41.25	-22.1875	20.6875
18	12	04	16	18	34	0.320494052165	-0.436887531022	-0.35876290966	-0.49853515625	-0.7705078125	0.4365234375	-29.5	-21.0	5.9375
18	12	04	16	18	34	0.31648175165	-0.436360278215	-0.36055114889	-0.58349609375	-0.78515625	0.32763671875	-13.625	-21.375	4.125
18	12	04	16	18	34	0.311949032834	-0.43493422187	-0.36230277028	-0.40966796875	-0.6943359375	0.4111328125	-19.125	-21.0625	13.4375
18	12	04	16	18	34	0.30915096874	-0.433604833549	-0.36341260965	-0.4833984375	-0.8173828125	0.37255859375	-7.0625	-17.875	6.1875
18	12	04	16	18	34	0.308657389551	-0.43182737415	-0.363406386669	-0.5703125	-0.96435546875	0.28076171875	12.75	-17.5	-2.8125
18	12	04	16	18	34	0.305362660044	-0.430425240581	-0.363468846804	-0.47900390625	-0.7978515625	0.3623046875	-2.125	-19.625	11.875
18	12	04	16	18	34	0.302061604206	-0.428770007991	-0.36395096906	-0.44287109375	-0.8232421875	0.35986328125	-2.8125	-20.125	13.4375
18	12	04	16	18	34	0.299440768932	-0.428897326393	-0.36413852985	-0.58447265625	-0.88818359375	0.189453125	6.4375	-16.8125	6.75
18	12	04	16	18	35	0.296328813198	-0.428593393671	-0.364322695361	-0.63720703125	-0.888671875	0.201171875	6.3125	-21.4375	6.1875
18	12	04	16	18	35	0.290712418639	-0.427432094842	-0.366457560678	-0.39306640625	-0.69677734375	0.3603515625	-20.6875	-23.5	19.6875
18	12	04	16	18	35	0.285285641842	-0.426036324359	-0.369211135537	-0.35205078125	-0.6962890625	0.40185546875	-25.3125	-22.0625	18.375
18	12	04	16	18	35	0.283079831934	-0.426084585324	-0.371153181973	-0.58544921875	-0.8994140625	0.17626953125	-1.5	-16.625	-0.125
18	12	04	16	18	35	0.281075146741	-0.426831379188	-0.37061634984	-0.7001953125	-0.8857421875	0.06689453125	16.125	-17.375	0.9375
18	12	04	16	18	35	0.278689841027	-0.425053888067	-0.369755378218	-0.60400390625	-0.93505859375	0.17529296875	19.6875	-27.1875	8.0
18	12	04	16	18	35	0.273864849137	-0.420959631044	-0.37072767855	-0.35205078125	-0.78564453125	0.44384765625	-7.1875	-33.4375	20.9375
18	12	04	16	18	35	0.26873974819	-0.416629007755	-0.37329373153	-0.25927734375	-0.69970703125	0.5537109375	-24.0	-30.375	19.3125
18	12	04	16	18	35	0.266548328726	-0.414746025577	-0.37397334786	-0.60107421875	-0.92919921875	0.28076171875	6.25	-24.5	2.0
18	12	04	16	18	35	0.264658883647	-0.412858092479	-0.372634336869	-0.77294921875	-1.015625	0.24267578125	22.9375	-29.125	-0.625
18	12	04	16	18	35	0.259332788204	-0.409537069628	-0.371085750125	-0.3994140625	-0.65478515625	0.41552734375	3.0	-31.5625	25.5
18	12	04	16	18	35	0.256404779487	-0.404962083289	-0.368585685152	-0.47021484375	-0.82470703125	0.48876953125	16.5625	-31.0625	16.3125
18	12	04	16	18	35	0.253966386837	-0.401182662985	-0.367247236145	-0.46044921875	-0.80615234375	0.4677734375	9.875	-26.625	11.0625
18	12	04	16	18	35	0.251891707458	-0.398497930215	-0.365600030937	-0.4111328125	-0.75341796875	0.455078125	9.25	-18.0625	12.9375
18	12	04	16	18	35	0.250250246502	-0.397348562129	-0.363229077301	-0.498046875	-0.796875	0.36279296875	16.9375	-13.375	12.0625
18	12	04	16	18	35	0.249152021286	-0.396189556631	-0.360360983261	-0.546875	-0.85595703125	0.326171875	24.6875	-14.0625	9.875
18	12	04	16	18	35	0.24737150039	-0.395135231562	-0.358575762346	-0.4833984375	-0.79833984375	0.3798828125	13.0625	-12.5625	12.625
18	12	04	16	18	35	0.24499927089	-0.393683432298	-0.358709694824	-0.47412109375	-0.837890625	0.45703125	-0.375	-14.5	10.875
18	12	04	16	18	35	0.242492949498	-0.392517532903	-0.360474039702	-0.44677734375	-0.8115234375	0.43017578125	-10.125	-13.875	8.25
18	12	04	16	18	35	0.240297356727	-0.391848877366	-0.361147945074	-0.525390625	-0.82080078125	0.40771484375	-3.125	-13.0625	6.0
18	12	04	16	18	35	0.237981234434	-0.391182798535	-0.361458032911	-0.53662109375	-0.76220703125	0.3828125	-1.3125	-13.9375	5.6875
18	12	04	16	18	35	0.235480264344	-0.388926968481	-0.361948669663	-0.44384765625	-0.7041015625	0.47998046875	-6.3125	-18.0625	6.8125
18	12	04	16	18	35	0.233949869558	-0.387942961364	-0.361697606835	-0.53466796875	-0.7685546875	0.3857421875	4.0625	-13.4375	3.125
18	12	04	16	18	35	0.232550031698	-0.386179540827	-0.361703802583	-0.52978515625	-0.75830078125	0.46728515625	-0.25	-15.1875	0.5
18	12	04	16	18	35	0.230955963093	-0.383848322382	-0.361265419014	-0.4765625	-0.720703125	0.4541015625	3.1875	-17.75	3.3125
18	12	04	16	18	35	0.230525854573	-0.381707358883	-0.360650589005	-0.45068359375	-0.8779296875	0.36572265625	15.625	-15.3125	5.0625
18	12	04	16	18	35	0.230219264236	-0.380728465085	-0.359671825064	-0.4169921875	-0.81787109375	0.39794921875	11.875	-6.6875	6.625
18	12	04	16	18	35	0.231018665823	-0.379212409712	-0.357361767079	-0.47412109375	-0.86865234375	0.4287109375	22.4375	-7.0	2.625
18	12	04	16	18	35	0.230784377433	-0.378129917534	-0.357315986641	-0.486328125	-0.91162109375	0.38720703125	11.0	-10.0	2.9375
18	12	04	16	18	35	0.228089468648	-0.37799252859	-0.359681894232	-0.4814453125	-0.79248046875	0.48779296875	-18.0625	-8.5625	6.8125
18	12	04	16	18	35	0.22381778941	-0.376101777568	-0.36334532325	-0.4501953125	-0.72509765625	0.603515625	-32.75	-18.8125	7.6875
18	12	04	16	18	35	0.220703468262	-0.374146089726	-0.366028401319	-0.4697265625	-0.833984375	0.44677734375	-13.3125	-20.5625	6.6875
18	12	04	16	18	35	0.219054694725	-0.371092935059	-0.36724772866	-0.37841796875	-0.78076171875	0.46826171875	-3.0	-19.6875	4.875
18	12	04	16	18	35	0.216980008356	-0.367431687848	-0.367492723012	-0.41357421875	-0.72705078125	0.5400390625	-2.5	-22.75	4.4375
18	12	04	16	18	35	0.214662634546	-0.364139117913	-0.370181654399	-0.46240234375	-0.8486328125	0.5361328125	-13.0	-23.9375	1.1875
18	12	04	16	18	35	0.212403089912	-0.35913212099	-0.374451999027	-0.5126953125	-1.0361328125	0.67138671875	-19.9375	-31.4375	-4.0625
18	12	04	16	18	35	0.207640584384	-0.353696997797	-0.382627520137	-0.0947265625	-0.6513671875	0.8525390625	-68.625	-22.875	7.75
18	12	04	16	18	35	0.202336840865	-0.350473043814	-0.388987235846	-0.22314453125	-0.69384765625	0.7451171875	-56.9375	-18.9375	13.125
18	12	04	16	18	35	0.198056275764	-0.349787524315	-0.392511528332	-0.572265625	-0.74267578125	0.455078125	-27.1875	-20.625	1.5
18	12	04	16	18	35	0.194213517013	-0.346556992332	-0.396483660125	-0.58935546875	-0.8466796875	0.50830078125	-23.625	-32.625	-4.5
18	12	04	16	18	35	0.188474955696	-0.343502930913	-0.402889631655	-0.32177734375	-0.6220703125	0.4521484375	-45.5	-30.5625	7.125
18	12	04	16	18	35	0.183475904456	-0.340034685204	-0.406564537452	-0.4697265625	-0.79443359375	0.474609375	-23.875	-34.1875	6.0
18	12	04	16	18	35	0.177429485422	-0.33703667647	-0.41113347568	-0.435546875	-0.6435546875	0.44677734375	-35.25	-33.875	7.125
18	12	04	16	18	35	0.173221101598	-0.333929755759	-0.414070455689	-0.47607421875	-0.78564453125	0.43994140625	-18.375	-30.875	3.5625
18	12	04	16	18	35	0.16888778461	-0.33179399969	-0.418648830735	-0.43896484375	-0.77197265625	0.4169921875	-29.3125	-25.3125	3.3125
18	12	04	16	18	35	0.163877210517	-0.329585451319	-0.422662824146	-0.44970703125	-0.72802734375	0.43994140625	-30.0	-26.8125	6.0625
18	12	04	16	18	35	0.161075428406	-0.327338962691	-0.425180535914	-0.595703125	-1.0029296875	0.35009765625	-4.875	-28.1875	-1.875
18	12	04	16	18	35	0.15680001327	-0.325929182896	-0.428590771965	-0.5478515625	-0.8857421875	0.33740234375	-17.0	-25.9375	3.9375
18	12	04	16	18	35	0.151423952775	-0.324514775053	-0.431872587601	-0.4453125	-0.82470703125	0.41845703125	-24.3125	-23.875	13.8125
18	12	04	16	18	35	0.147275019992	-0.323297049689	-0.435477524926	-0.43896484375	-0.94873046875	0.39599609375	-20.8125	-19.25	11.375
18	12	04	16	18	36	0.142391150493	-0.323416505128	-0.440356687017	-0.37255859375	-0.8232421875	0.3818359375	-35.3125	-12.1875	15.125
18	12	04	16	18	36	0.136961709976	-0.324460093687	-0.444576245751	-0.47998046875	-0.7509765625	0.400390625	-37.8125	-10.4375	13.0625
18	12	04	16	18	36	0.132572537344	-0.325999043257	-0.448988759072	-0.58544921875	-0.88623046875	0.30859375	-29.8125	-10.125	6.6875
18	12	04	16	18	36	0.127566843566	-0.327706403399	-0.453197996878	-0.59375	-0.85546875	0.2314453125	-27.0625	-12.8125	9.1875
18	12	04	16	18	36	0.119693014974	-0.329842454319	-0.457958537149	-0.4755859375	-0.68896484375	0.35400390625	-47.625	-10.9375	24.875
18	12	04	16	18	36	0.114074121014	-0.331175056513	-0.462583072855	-0.46923828125	-0.8251953125	0.3408203125	-38.8125	-8.4375	17.25
18	12	04	16	18	36	0.108828494391	-0.332283972779	-0.468334849952	-0.47265625	-0.80859375	0.294921875	-43.5625	-9.1875	11.6875
18	12	04	16	18	36	0.104551656353	-0.333979371607	-0.473930888255	-0.515625	-0.8427734375	0.3017578125	-42.6875	-3.1875	7.4375
18	12	04	16	18	36	0.100098270597	-0.336488881585	-0.477541993383	-0.5048828125	-0.83251953125	0.185546875	-26.125	-3.1875	15.5
18	12	04	16	18	36	0.0963774608693	-0.337717853698	-0.480788637915	-0.49365234375	-0.888671875	0.28564453125	-25.8125	-4.1875	12.0
18	12	04	16	18	36	0.0941795269717	-0.336494965778	-0.482799778578	-0.38525390625	-0.955078125	0.3388671875	-13.5	-9.625	10.4375
18	12	04	16	18	36	0.0896021060209	-0.335458565866	-0.486402713134	-0.41796875	-0.87939453125	0.3662109375	-31.3125	-14.4375	13.625
18	12	04	16	18	36	0.0861785907964	-0.332629829915	-0.489240498459	-0.46923828125	-0.96630859375	0.49365234375	-27.4375	-17.875	4.9375
18	12	04	16	18	36	0.0817265232911	-0.328798193405	-0.491335707613	-0.513671875	-0.927734375	0.56689453125	-28.3125	-25.75	4.625
18	12	04	16	18	36	0.0781883021756	-0.325754073935	-0.491713475665	-0.42138671875	-0.83544921875	0.48974609375	-14.3125	-20.125	9.125
18	12	04	16	18	36	0.0746451999692	-0.323421843529	-0.489252594401	-0.5107421875	-0.771484375	0.55322265625	-2.1875	-18.8125	9.5625
18	12	04	16	18	36	0.0717181271151	-0.31934403495	-0.487378080863	-0.4326171875	-0.72509765625	0.57568359375	-4.0625	-23.25	4.1875
18	12	04	16	18	36	0.0714110800062	-0.313537365805	-0.485229133375	-0.45263671875	-0.8564453125	0.5546875	9.5	-26.75	-9.625
18	12	04	16	18	36	0.0711663360303	-0.310849184736	-0.485163983795	-0.47265625	-0.814453125	0.26318359375	7.5	-18.3125	-8.5625
18	12	04	16	18	36	0.0701305334886	-0.308476689514	-0.485359444997	-0.57763671875	-0.861328125	0.326171875	2.0	-19.375	-9.375
18	12	04	16	18	36	0.0677467349283	-0.306264068351	-0.487776491484	-0.4609375	-0.77734375	0.29833984375	-14.8125	-19.25	-2.8125
18	12	04	16	18	36	0.0643931248276	-0.304387216602	-0.491462977357	-0.47265625	-0.81494140625	0.2353515625	-20.8125	-21.25	0.5
18	12	04	16	18	36	0.061400279682	-0.302790047219	-0.498770462784	-0.494140625	-0.81884765625	0.11669921875	-37.5	-20.0	-9.25
18	12	04	16	18	36	0.056883647185	-0.301629811576	-0.508412855205	-0.53564453125	-0.82373046875	0.10791015625	-56.25	-20.6875	-8.5
18	12	04	16	18	36	0.0501092961759	-0.301571294038	-0.51763330191	-0.5400390625	-0.78662109375	0.06005859375	-58.0	-22.625	5.0625
18	12	04	16	18	36	0.0445566062937	-0.301825230304	-0.524486188879	-0.4140625	-0.7255859375	0.1513671875	-49.0625	-13.125	9.9375
18	12	04	16	18	36	0.0424197937366	-0.302248659833	-0.530216903871	-0.3974609375	-0.91015625	0.0654296875	-29.0625	-4.375	3.6875
18	12	04	16	18	36	0.0364989920286	-0.300231675232	-0.535155789476	-0.666015625	-0.974609375	0.32763671875	-42.3125	-26.125	0.875
18	12	04	16	18	36	0.0311887123123	-0.295102591057	-0.54296435368	-0.482421875	-1.09130859375	0.29638671875	-53.25	-34.8125	-2.625
18	12	04	16	18	36	0.0264275938114	-0.290642498222	-0.545458212223	-0.49853515625	-1.0322265625	0.32470703125	-20.8125	-33.9375	3.8125
18	12	04	16	18	36	0.0185540236227	-0.289235256408	-0.548381257401	-0.55908203125	-0.6259765625	0.34521484375	-41.0625	-27.875	10.75
18	12	04	16	18	36	0.0133668099887	-0.285097577431	-0.549687172414	-0.470703125	-0.84521484375	0.375	-21.0	-32.5625	5.1875
18	12	04	16	18	36	0.0110469931962	-0.281301611278	-0.551128997579	-0.59130859375	-0.98779296875	0.3330078125	-12.875	-24.9375	-10.5
18	12	04	16	18	36	0.00659166549014	-0.276544780887	-0.551502679342	-0.51806640625	-0.83447265625	0.52099609375	-21.875	-30.9375	-2.1875
18	12	04	16	18	36	0.00610332903935	-0.273307074382	-0.553999176902	-0.484375	-1.060546875	0.162109375	-6.25	-18.5625	-10.125
18	12	04	16	18	36	0.00268554660488	-0.274536105199	-0.556579533861	-0.63671875	-0.8505859375	0.013671875	-11.375	-11.6875	1.6875
18	12	04	16	18	36	-0.00158695356015	-0.274176745853	-0.558790763198	-0.5693359375	-0.84716796875	0.125	-15.3125	-18.3125	5.0625
18	12	04	16	18	36	-0.00653056513728	-0.271964469642	-0.562361001634	-0.4296875	-0.841796875	0.0703125	-20.875	-27.25	8.6875
18	12	04	16	18	36	-0.00964337203182	-0.270502688893	-0.568470677876	-0.54931640625	-1.01123046875	-0.13232421875	-22.0	-22.3125	-3.3125
18	12	04	16	18	36	-0.0162358412118	-0.269539378915	-0.572954291185	-0.4345703125	-0.66943359375	0.03369140625	-33.25	-25.9375	13.3125
18	12	04	16	18	36	-0.0209352475641	-0.270754397068	-0.573979790357	-0.3818359375	-0.83642578125	-0.01513671875	-3.3125	-13.6875	25.8125
18	12	04	16	18	36	-0.0239865957401	-0.269711874238	-0.575190021004	-0.48388671875	-0.98095703125	0.10693359375	-5.8125	-16.625	9.125
18	12	04	16	18	36	-0.0268546322177	-0.268302189157	-0.576153927579	-0.3994140625	-0.87646484375	0.146484375	-7.0	-15.9375	9.25
18	12	04	16	18	36	-0.0311271337067	-0.265801308417	-0.578232283798	-0.37744140625	-0.9287109375	0.2255859375	-20.4375	-21.375	13.5
18	12	04	16	18	36	-0.0338131444606	-0.262204455962	-0.579462082147	-0.4013671875	-1.0087890625	0.20703125	-8.8125	-23.9375	4.6875
18	12	04	16	18	36	-0.036499472145	-0.260501249356	-0.579963184484	-0.52294921875	-0.88330078125	0.068359375	1.3125	-21.5625	0.875
18	12	04	16	18	36	-0.0423585014006	-0.257874161985	-0.580018499727	-0.42138671875	-0.67822265625	0.19873046875	-10.625	-31.3125	12.25
18	12	04	16	18	36	-0.0448594595827	-0.251823306447	-0.578290312307	-0.4365234375	-1.060546875	0.265625	11.6875	-38.0625	-0.75
18	12	04	16	18	36	-0.0473014851294	-0.243770492396	-0.576528811009	-0.30078125	-0.9638671875	0.44677734375	1.4375	-40.8125	-3.5625
18	12	04	16	18	36	-0.0506589288803	-0.239195593111	-0.577816963506	-0.4541015625	-0.888671875	0.31591796875	-16.6875	-28.8125	-3.3125
18	12	04	16	18	37	-0.0545631392604	-0.235829944186	-0.577978667558	-0.55859375	-0.98486328125	0.3525390625	-11.25	-26.9375	1.375
18	12	04	16	18	37	-0.0565799197101	-0.233521869267	-0.576114198645	-0.50927734375	-0.97607421875	0.23486328125	12.625	-21.125	1.5
18	12	04	16	18	37	-0.059752463154	-0.232662297797	-0.571585104634	-0.5390625	-0.7919921875	0.193359375	27.9375	-23.3125	7.6875
18	12	04	16	18	37	-0.0639041040286	-0.232728126706	-0.569826853114	-0.54736328125	-0.8388671875	0.16845703125	9.4375	-19.1875	13.1875
18	12	04	16	18	37	-0.0671369350463	-0.234246869734	-0.568527772687	-0.55224609375	-0.8076171875	0.05615234375	13.4375	-12.3125	13.125
18	12	04	16	18	37	-0.0693968705395	-0.235717426582	-0.565672995744	-0.52685546875	-0.97216796875	0.00244140625	32.0	-12.75	17.0
18	12	04	16	18	37	-0.070982058614	-0.23851924769	-0.563645151591	-0.40234375	-0.865234375	-0.08740234375	30.0	-3.875	22.0625
18	12	04	16	18	37	-0.0711668752709	-0.241149506171	-0.562132865562	-0.39453125	-0.93701171875	-0.04541015625	27.75	1.8125	17.9375
18	12	04	16	18	37	-0.0729367594359	-0.243773570868	-0.561887704909	-0.46826171875	-0.84326171875	0.03125	10.25	0.125	16.875
18	12	04	16	18	37	-0.0754406202857	-0.245548232532	-0.562386630512	-0.43212890625	-0.8671875	0.10400390625	0.1875	-2.5	19.875
18	12	04	16	18	37	-0.0780640049757	-0.247375615455	-0.561584761361	-0.41015625	-0.814453125	0.1328125	5.875	-2.6875	21.625
18	12	04	16	18	37	-0.0797114095492	-0.249693243848	-0.558101936384	-0.482421875	-0.8427734375	0.14404296875	26.0	-2.6875	19.25
18	12	04	16	18	37	-0.0807503586778	-0.252321982444	-0.553716745219	-0.50537109375	-0.8291015625	0.12060546875	34.3125	-1.3125	17.0625
18	12	04	16	18	37	-0.0812996419267	-0.253847755836	-0.549260869143	-0.4423828125	-0.85888671875	0.095703125	38.75	-5.75	16.5
18	12	04	16	18	37	-0.078794798425	-0.256708692622	-0.542286432228	-0.6591796875	-1.18701171875	-0.0185546875	74.375	-2.125	8.6875
18	12	04	16	18	37	-0.0796502181131	-0.258847950205	-0.535884226079	-0.65966796875	-0.970703125	0.19482421875	48.8125	-7.75	14.375
18	12	04	16	18	37	-0.084897034175	-0.254385937053	-0.531476185187	-0.2548828125	-0.73095703125	0.6015625	3.3125	-28.6875	26.1875
18	12	04	16	18	37	-0.0861818645594	-0.2500006496	-0.527650296824	-0.3271484375	-0.86962890625	0.556640625	12.5625	-19.25	8.0625
18	12	04	16	18	37	-0.0861196582508	-0.250363457225	-0.52147863933	-0.55908203125	-0.79736328125	0.4091796875	36.0	-5.6875	3.75
18	12	04	16	18	37	-0.085141888087	-0.249810572	-0.51396404271	-0.42529296875	-0.74755859375	0.43359375	45.25	-5.75	4.4375
18	12	04	16	18	37	-0.0841049841784	-0.250789100137	-0.506399893852	-0.5478515625	-0.8408203125	0.3330078125	53.5	-4.8125	5.75
18	12	04	16	18	37	-0.0831904899859	-0.250670097118	-0.502316751712	-0.53955078125	-0.90966796875	0.34228515625	32.625	-5.875	1.875
18	12	04	16	18	37	-0.082644025636	-0.249824222251	-0.499770518396	-0.56494140625	-0.98779296875	0.3564453125	24.3125	-8.8125	0.8125
18	12	04	16	18	37	-0.0845324349332	-0.247493879895	-0.499565328468	-0.49267578125	-0.86083984375	0.46240234375	-3.5625	-14.5625	5.125
18	12	04	16	18	37	-0.08654738229	-0.24481068432	-0.497494861104	-0.490234375	-0.8525390625	0.5185546875	5.4375	-17.5	6.3125
18	12	04	16	18	37	-0.0882558400727	-0.242306836161	-0.495782979883	-0.4892578125	-0.77197265625	0.51171875	2.0	-15.625	2.3125
18	12	04	16	18	37	-0.0899067696314	-0.239141020649	-0.49390738619	-0.376953125	-0.68408203125	0.58837890625	-2.875	-13.875	3.125
18	12	04	16	18	37	-0.0908190332936	-0.237240310761	-0.491204018782	-0.4384765625	-0.7470703125	0.49072265625	11.0625	-11.6875	3.375
18	12	04	16	18	37	-0.0910641612091	-0.23657150727	-0.487303125398	-0.51416015625	-0.83203125	0.390625	27.5625	-10.625	3.5625
18	12	04	16	18	37	-0.09192010975	-0.236025939179	-0.484442172036	-0.54638671875	-0.82568359375	0.34814453125	22.625	-13.125	4.3125
18	12	04	16	18	37	-0.093688487739	-0.233641388316	-0.483701150053	-0.51806640625	-0.87060546875	0.416015625	5.875	-19.1875	3.875
18	12	04	16	18	37	-0.0968626430392	-0.228454236229	-0.485228741123	-0.42138671875	-0.76025390625	0.52392578125	-19.625	-28.125	1.125
18	12	04	16	18	37	-0.098756039113	-0.225039256001	-0.486211747574	-0.5400390625	-0.8701171875	0.40576171875	-4.4375	-24.1875	-1.8125
18	12	04	16	18	37	-0.101014213552	-0.221376768914	-0.488164157093	-0.4296875	-0.69775390625	0.44677734375	-19.0625	-20.4375	-2.1875
18	12	04	16	18	37	-0.103027119991	-0.218383314768	-0.488585364651	-0.44384765625	-0.72119140625	0.4619140625	-9.0625	-18.1875	0.125
18	12	04	16	18	37	-0.104676940724	-0.216556143258	-0.48975380313	-0.52490234375	-0.7431640625	0.34033203125	-6.1875	-16.875	-2.625
18	12	04	16	18	37	-0.106812119304	-0.213074919137	-0.49145781979	-0.412109375	-0.70947265625	0.4462890625	-17.375	-19.0625	-0.9375
18	12	04	16	18	37	-0.109070634017	-0.210206638811	-0.491153548929	-0.470703125	-0.701171875	0.3896484375	-1.375	-22.625	-0.625
18	12	04	16	18	37	-0.11169398538	-0.208068194623	-0.491697675531	-0.560546875	-0.7705078125	0.2041015625	4.4375	-27.625	0.4375
18	12	04	16	18	37	-0.114992673174	-0.205204547353	-0.492625193838	-0.66455078125	-0.931640625	0.16162109375	8.5	-37.125	0.4375
18	12	04	16	18	37	-0.12036538954	-0.198737174616	-0.495317006146	-0.52978515625	-0.86865234375	0.24462890625	-12.8125	-51.5625	3.5
18	12	04	16	18	37	-0.127015641187	-0.190248800375	-0.499578579106	-0.40673828125	-0.8369140625	0.35546875	-32.875	-56.1875	7.625
18	12	04	16	18	37	-0.134892506214	-0.181280879391	-0.505267043636	-0.39306640625	-0.78662109375	0.416015625	-49.75	-57.375	10.3125
18	12	04	16	18	37	-0.14312959848	-0.172854167546	-0.510871957049	-0.48046875	-0.78173828125	0.4658203125	-53.75	-56.375	8.125
18	12	04	16	18	37	-0.151368655318	-0.164796519903	-0.514226177846	-0.54296875	-0.86083984375	0.48486328125	-38.1875	-59.3125	9.25
18	12	04	16	18	37	-0.159726269782	-0.157651109991	-0.515249969239	-0.443359375	-0.86767578125	0.490234375	-23.625	-55.125	19.0625
18	12	04	16	18	37	-0.167968755944	-0.153076177292	-0.513000506436	-0.4521484375	-0.70556640625	0.5302734375	-7.75	-46.5625	22.625
18	12	04	16	18	37	-0.174311716298	-0.149165908485	-0.508104004965	-0.59228515625	-0.7431640625	0.55615234375	13.125	-45.75	9.5625
18	12	04	16	18	37	-0.179684456704	-0.145505348092	-0.502554964845	-0.55029296875	-0.7568359375	0.52001953125	21.875	-43.25	8.9375
18	12	04	16	18	37	-0.185669073618	-0.142212012337	-0.495056494448	-0.38720703125	-0.7509765625	0.537109375	33.75	-40.625	22.375
18	12	04	16	18	38	-0.188661420104	-0.137513484145	-0.489628570712	-0.1357421875	-0.8095703125	0.5791015625	23.5625	-27.1875	18.5
18	12	04	16	18	38	-0.186341057445	-0.133545441759	-0.488161080067	-0.18603515625	-0.8955078125	0.5703125	10.25	-5.75	-7.6875
18	12	04	16	18	38	-0.185728272196	-0.130980240596	-0.488581931951	-0.3681640625	-0.859375	0.58447265625	-6.25	-6.6875	-6.5
18	12	04	16	18	38	-0.188780634514	-0.128234113519	-0.49242876148	-0.361328125	-0.763671875	0.56640625	-35.625	-12.1875	8.375
18	12	04	16	18	38	-0.192021518487	-0.126040825072	-0.495740233042	-0.42138671875	-0.80224609375	0.54248046875	-30.5	-13.1875	8.875
18	12	04	16	18	38	-0.195191064848	-0.124756265338	-0.498353672447	-0.54296875	-0.73291015625	0.44970703125	-22.8125	-16.125	2.9375
18	12	04	16	18	38	-0.199277250736	-0.122251863162	-0.499932606671	-0.60595703125	-0.73046875	0.45654296875	-18.5625	-27.8125	0.4375
18	12	04	16	18	38	-0.204585621152	-0.118466793155	-0.501454493851	-0.4775390625	-0.72607421875	0.4990234375	-23.8125	-32.3125	9.25
18	12	04	16	18	38	-0.209715327348	-0.114684254973	-0.502926163372	-0.3955078125	-0.732421875	0.548828125	-25.75	-27.375	13.0625
18	12	04	16	18	38	-0.213623458707	-0.111572480719	-0.503479974535	-0.46826171875	-0.77978515625	0.5048828125	-13.875	-26.0625	6.375
18	12	04	16	18	38	-0.216795011819	-0.10949612928	-0.501887776516	-0.5166015625	-0.8046875	0.45849609375	5.25	-25.4375	3.5
18	12	04	16	18	38	-0.220089923078	-0.107908758736	-0.499383180982	-0.41162109375	-0.78466796875	0.462890625	11.4375	-21.75	11.125
18	12	04	16	18	38	-0.223567177546	-0.106076919076	-0.49895213662	-0.42724609375	-0.81201171875	0.47021484375	-2.1875	-20.125	11.375
18	12	04	16	18	38	-0.225892885943	-0.102478831532	-0.501957064035	-0.35595703125	-0.87939453125	0.46728515625	-22.5	-17.375	6.5
18	12	04	16	18	38	-0.228204567257	-0.100156109887	-0.5063346055	-0.3994140625	-0.84423828125	0.43359375	-30.3125	-11.125	6.8125
18	12	04	16	18	38	-0.230228901193	-0.0980242882599	-0.508554402105	-0.41748046875	-0.8935546875	0.529296875	-19.5625	-11.125	5.9375
18	12	04	16	18	38	-0.232542706089	-0.0966181374644	-0.511349814072	-0.306640625	-0.796875	0.52880859375	-27.0625	-3.625	13.3125
18	12	04	16	18	38	-0.234131410175	-0.0958254207441	-0.511842024433	-0.44970703125	-0.90283203125	0.57666015625	-9.375	-5.875	5.625
18	12	04	16	18	38	-0.236028309773	-0.0951559697276	-0.512829029924	-0.37841796875	-0.82275390625	0.541015625	-13.625	-3.625	9.625
18	12	04	16	18	38	-0.238952301126	-0.0951536749567	-0.51452564457	-0.3974609375	-0.76708984375	0.52880859375	-20.4375	-3.1875	14.9375
18	12	04	16	18	38	-0.240655341564	-0.096066829222	-0.517076351441	-0.615234375	-0.880859375	0.48486328125	-17.8125	-1.5	2.9375
18	12	04	16	18	38	-0.243833503085	-0.0959464998374	-0.520381588813	-0.51904296875	-0.83740234375	0.4990234375	-28.6875	-5.6875	11.625
18	12	04	16	18	38	-0.247980524821	-0.093809024526	-0.523670416678	-0.30029296875	-0.83447265625	0.59765625	-38.125	-7.75	22.6875
18	12	04	16	18	38	-0.250977786372	-0.0926518189964	-0.52655286066	-0.24609375	-0.77734375	0.556640625	-32.625	-0.125	21.375
18	12	04	16	18	38	-0.253296326362	-0.0938111936428	-0.528321205057	-0.46826171875	-0.71630859375	0.39697265625	-14.8125	-0.1875	10.6875
18	12	04	16	18	38	-0.255433395916	-0.0950932451225	-0.530398138713	-0.57568359375	-0.74267578125	0.3544921875	-13.9375	-2.8125	5.75
18	12	04	16	18	38	-0.258487725033	-0.0941786445635	-0.534126583652	-0.357421875	-0.66162109375	0.39208984375	-33.5	-5.0	13.5625
18	12	04	16	18	38	-0.26067257881	-0.0915497233003	-0.537579975219	-0.314453125	-0.775390625	0.5146484375	-36.375	-5.375	9.375
18	12	04	16	18	38	-0.26219530998	-0.0902669607682	-0.541479699754	-0.291015625	-0.75244140625	0.44775390625	-34.25	2.1875	11.3125
18	12	04	16	18	38	-0.261961764946	-0.0923457945859	-0.544492289161	-0.6240234375	-0.814453125	0.19677734375	-6.25	4.375	-3.8125
18	12	04	16	18	38	-0.26153324195	-0.0936881041758	-0.548884117819	-0.892578125	-0.888671875	0.05908203125	-7.1875	-6.5625	-19.625
18	12	04	16	18	38	-0.265322233955	-0.0903938873906	-0.554387359331	-0.5498046875	-0.8232421875	0.31396484375	-43.375	-20.875	4.3125
18	12	04	16	18	38	-0.270272161199	-0.0853298286712	-0.557756777108	-0.2548828125	-0.8994140625	0.6005859375	-48.625	-19.375	22.4375
18	12	04	16	18	38	-0.270567369009	-0.0826411499298	-0.55950621965	-0.5	-0.9541015625	0.47607421875	-19.25	-8.0625	-6.75
18	12	04	16	18	38	-0.270760638853	-0.0833156609634	-0.561053154268	-0.66943359375	-0.85986328125	0.30712890625	-6.125	-1.875	-8.625
18	12	04	16	18	38	-0.272585198674	-0.0834967648424	-0.564213519154	-0.638671875	-0.8251953125	0.3603515625	-25.0	-3.375	-0.25
18	12	04	16	18	38	-0.276784548072	-0.0800142320888	-0.566813252028	-0.35400390625	-0.7880859375	0.67333984375	-49.0625	-11.625	14.25
18	12	04	16	18	38	-0.279298892998	-0.0760503541685	-0.568485552749	-0.2060546875	-0.8447265625	0.66943359375	-39.5625	-6.5625	14.0
18	12	04	16	18	38	-0.279719516894	-0.0753161431043	-0.57079138599	-0.36279296875	-0.67529296875	0.40380859375	-25.0625	3.4375	0.8125
18	12	04	16	18	38	-0.279911595206	-0.0761730638502	-0.572762845489	-0.599609375	-0.61865234375	0.2548828125	-13.25	0.8125	-10.8125
18	12	04	16	18	38	-0.278617870999	-0.0761697925535	-0.577010591988	-0.748046875	-0.94482421875	0.00830078125	-6.0625	-4.75	-18.625
18	12	04	16	18	38	-0.281864395244	-0.07318220223	-0.57996437497	-0.52490234375	-0.8515625	0.2802734375	-27.1875	-20.6875	3.375
18	12	04	16	18	38	-0.289488584628	-0.0617062953951	-0.58495859057	-0.498046875	-0.77587890625	0.21533203125	-33.4375	-36.5	-2.0625
18	12	04	16	18	38	-0.295411804245	-0.0548709115737	-0.590335324517	-0.44482421875	-0.6376953125	0.1865234375	-54.625	-41.9375	3.375
18	12	04	16	18	38	-0.300606707565	-0.0477918887357	-0.595536983901	-0.513671875	-0.7880859375	0.18505859375	-50.5625	-42.375	-0.6875
18	12	04	16	18	38	-0.304744414185	-0.0418085166667	-0.599906438419	-0.59130859375	-0.880859375	0.13818359375	-37.875	-38.0625	-4.8125
18	12	04	16	18	38	-0.309140991734	-0.0354001530515	-0.602107775608	-0.595703125	-1.048828125	0.25634765625	-27.9375	-41.5	-3.1875
18	12	04	16	18	38	-0.313721888779	-0.0282593841448	-0.603823082818	-0.40625	-0.96630859375	0.3955078125	-37.4375	-38.375	3.4375
18	12	04	16	18	38	-0.31872341193	-0.0228880274749	-0.607112558114	-0.5478515625	-0.97998046875	0.32421875	-42.3125	-33.625	5.6875
18	12	04	16	18	39	-0.324152325542	-0.0177609351784	-0.6100972785	-0.54052734375	-0.96728515625	0.33056640625	-41.9375	-34.125	8.625
18	12	04	16	18	39	-0.32879222043	-0.0132444610791	-0.612480031931	-0.45068359375	-0.8720703125	0.27197265625	-34.125	-29.8125	8.875
18	12	04	16	18	39	-0.333670304917	-0.00994846528286	-0.613203869306	-0.55859375	-0.8583984375	0.22802734375	-18.5625	-32.375	5.1875
18	12	04	16	18	39	-0.339061811407	-0.00402845716523	-0.613180010332	-0.28515625	-0.7197265625	0.33740234375	-28.4375	-38.125	9.625
18	12	04	16	18	39	-0.342881841884	0.00195304715918	-0.612829578917	-0.236328125	-0.7119140625	0.30908203125	-22.1875	-33.5	3.8125
18	12	04	16	18	39	-0.346067859803	0.00646969896633	-0.613950017947	-0.4990234375	-0.77490234375	0.19384765625	-20.875	-30.4375	-5.75
18	12	04	16	18	39	-0.349839023112	0.0105586446264	-0.614110301911	-0.5908203125	-0.88427734375	0.142578125	-9.25	-35.625	-5.8125
18	12	04	16	18	39	-0.35394948112	0.0142824932888	-0.611766795872	-0.6396484375	-1.0419921875	0.12060546875	13.0	-42.0625	-5.5
18	12	04	16	18	39	-0.359665372666	0.0194083808769	-0.607763071611	-0.56396484375	-1.068359375	0.28759765625	9.875	-51.125	-0.0625
18	12	04	16	18	39	-0.365892615278	0.02569487757	-0.605080798643	-0.57275390625	-1.0517578125	0.416015625	-11.1875	-51.5625	0.125
18	12	04	16	18	39	-0.372130851363	0.0335082560929	-0.604918626842	-0.26220703125	-0.8857421875	0.47314453125	-39.6875	-45.75	14.25
18	12	04	16	18	39	-0.377747175878	0.0391235966614	-0.604920384573	-0.2607421875	-0.841796875	0.47119140625	-35.8125	-34.3125	17.875
18	12	04	16	18	39	-0.381780123429	0.0410161859224	-0.604439418436	-0.46142578125	-0.7900390625	0.26025390625	-9.0	-24.3125	7.5625
18	12	04	16	18	39	-0.384646468541	0.0406497220007	-0.604130553097	-0.591796875	-0.8544921875	0.0986328125	8.5	-17.4375	3.4375
18	12	04	16	18	39	-0.38829118417	0.0405868653683	-0.603737251464	-0.54833984375	-0.8212890625	0.07958984375	7.25	-21.75	8.625
18	12	04	16	18	39	-0.392200300999	0.0428454110335	-0.602521221828	-0.54833984375	-0.92626953125	0.099609375	8.0	-33.0	3.8125
18	12	04	16	18	39	-0.396978545855	0.0466925872661	-0.60187660527	-0.57373046875	-0.96044921875	0.15478515625	-4.375	-40.5625	3.875
18	12	04	16	18	39	-0.403614419071	0.0535263640594	-0.603071839534	-0.31005859375	-0.7470703125	0.37646484375	-46.25	-43.4375	17.9375
18	12	04	16	18	39	-0.408020048411	0.0596923870376	-0.602417034827	-0.2958984375	-0.91015625	0.39306640625	-26.25	-36.1875	9.5
18	12	04	16	18	39	-0.409977065851	0.0615240259606	-0.601934468277	-0.470703125	-0.92431640625	0.14892578125	3.375	-19.75	1.0
18	12	04	16	18	39	-0.413687727532	0.0613390625803	-0.599780067639	-0.5771484375	-0.86376953125	0.20751953125	13.0625	-22.375	4.8125
18	12	04	16	18	39	-0.418099871295	0.0630506813209	-0.596082239864	-0.34423828125	-0.81103515625	0.26806640625	12.875	-29.625	11.9375
18	12	04	16	18	39	-0.421196265351	0.0642688983357	-0.592885164704	-0.568359375	-1.017578125	0.19921875	21.6875	-28.5625	-0.25
18	12	04	16	18	39	-0.425900634201	0.0685420481811	-0.591915212164	-0.38916015625	-0.77734375	0.3154296875	-16.5625	-34.625	8.1875
18	12	04	16	18	39	-0.429622069184	0.0739738525147	-0.590325991355	-0.29150390625	-0.9697265625	0.3974609375	-15.1875	-32.9375	9.25
18	12	04	16	18	39	-0.432130694755	0.0762332256708	-0.590090332894	-0.57568359375	-1.06103515625	0.2470703125	-2.125	-23.4375	1.375
18	12	04	16	18	39	-0.436090662237	0.0784902157644	-0.588432480703	-0.4697265625	-0.95556640625	0.3212890625	-1.9375	-27.5	9.0625
18	12	04	16	18	39	-0.440662637505	0.0820902004771	-0.584885049199	-0.31591796875	-0.95703125	0.4638671875	-2.1875	-31.875	12.75
18	12	04	16	18	39	-0.444517613052	0.0862423983582	-0.582334552537	-0.337890625	-0.9697265625	0.46923828125	-9.125	-30.0	8.8125
18	12	04	16	18	39	-0.448424289828	0.0897214789775	-0.580931317624	-0.41015625	-0.83056640625	0.4140625	-14.75	-28.25	6.0
18	12	04	16	18	39	-0.454100884146	0.0927732989115	-0.580626574043	-0.552734375	-0.794921875	0.43701171875	-26.375	-33.125	10.4375
18	12	04	16	18	39	-0.459415911738	0.0975350906015	-0.579656292517	-0.36669921875	-0.771484375	0.44775390625	-27.75	-35.625	12.5625
18	12	04	16	18	39	-0.464403121402	0.0997285714773	-0.577925240709	-0.59033203125	-0.83251953125	0.31396484375	-4.625	-34.9375	4.9375
18	12	04	16	18	39	-0.469919874007	0.102602326043	-0.576977863228	-0.53564453125	-0.7275390625	0.29638671875	-14.375	-36.875	8.625
18	12	04	16	18	39	-0.4748366733	0.105526042177	-0.575113878214	-0.51611328125	-0.82666015625	0.29248046875	-4.9375	-36.9375	6.6875
18	12	04	16	18	39	-0.479622353566	0.107362652064	-0.573129791293	-0.56396484375	-0.84521484375	0.2236328125	4.375	-35.6875	6.8125
18	12	04	16	18	39	-0.484363300451	0.108029617162	-0.570786994181	-0.546875	-0.845703125	0.15185546875	15.0	-33.5	10.125
18	12	04	16	18	39	-0.488949048422	0.107482121367	-0.569270724583	-0.66552734375	-0.90283203125	0.1083984375	17.875	-30.5	10.375
18	12	04	16	18	39	-0.493764068384	0.10864030182	-0.569018839252	-0.5703125	-0.86767578125	0.14892578125	0.25	-31.8125	15.8125
18	12	04	16	18	39	-0.497386521551	0.110598156467	-0.569409603577	-0.5048828125	-0.92822265625	0.189453125	-5.8125	-26.1875	14.9375
18	12	04	16	18	39	-0.500289370727	0.112423206158	-0.569928283988	-0.4365234375	-0.92822265625	0.15869140625	-3.375	-21.875	15.625
18	12	04	16	18	39	-0.503540513649	0.113037215912	-0.570007861451	-0.41796875	-0.876953125	0.18212890625	0.3125	-18.375	19.5
18	12	04	16	18	39	-0.506665038475	0.11175806354	-0.569593800632	-0.53759765625	-0.9150390625	0.18603515625	11.1875	-14.4375	17.125
18	12	04	16	18	39	-0.510050529163	0.110835438669	-0.568092655912	-0.5087890625	-0.912109375	0.2138671875	14.9375	-18.125	16.125
18	12	04	16	18	39	-0.513913643593	0.110656227534	-0.565366042827	-0.373046875	-0.88916015625	0.30029296875	14.3125	-20.0	20.3125
18	12	04	16	18	39	-0.517729651973	0.111504429347	-0.562160535698	-0.31982421875	-0.8505859375	0.37158203125	9.0	-21.125	18.1875
18	12	04	16	18	39	-0.520870336703	0.11230389261	-0.560298768565	-0.39111328125	-0.83251953125	0.28955078125	6.0625	-20.0	13.8125
18	12	04	16	18	39	-0.524722902464	0.112366507321	-0.55902489981	-0.5673828125	-0.8427734375	0.2490234375	6.875	-23.9375	12.5625
18	12	04	16	18	39	-0.530145803791	0.114317647997	-0.556756852657	-0.470703125	-0.7490234375	0.33251953125	-4.125	-34.25	17.0
18	12	04	16	18	40	-0.535631320985	0.11791701369	-0.553025911514	-0.4462890625	-0.85009765625	0.41796875	-2.9375	-41.1875	12.6875
18	12	04	16	18	40	-0.540098135938	0.121703659516	-0.550535109748	-0.47802734375	-0.81591796875	0.3955078125	-8.9375	-37.0625	7.375
18	12	04	16	18	40	-0.544369827985	0.125365582092	-0.548337093241	-0.46435546875	-0.8193359375	0.3623046875	-8.0625	-35.8125	8.5625
18	12	04	16	18	40	-0.548882065959	0.127866999687	-0.545403107018	-0.49072265625	-0.8427734375	0.33154296875	2.8125	-36.375	9.8125
18	12	04	16	18	40	-0.553282257887	0.128295566032	-0.542784238212	-0.56201171875	-0.8359375	0.28173828125	12.25	-31.0625	11.75
18	12	04	16	18	40	-0.55761401655	0.127318611922	-0.540524269983	-0.66357421875	-0.841796875	0.27294921875	15.875	-27.625	10.5
18	12	04	16	18	40	-0.561638233053	0.12609699951	-0.5378958648	-0.603515625	-0.88232421875	0.275390625	21.5	-25.3125	13.3125
18	12	04	16	18	40	-0.565307607711	0.124450681507	-0.535888662891	-0.47119140625	-0.8759765625	0.25244140625	21.0625	-17.8125	21.9375
18	12	04	16	18	40	-0.567994025252	0.122436709075	-0.533997391675	-0.455078125	-0.9384765625	0.27587890625	24.75	-11.8125	20.5625
18	12	04	16	18	40	-0.569446415796	0.119016131919	-0.532887101427	-0.45166015625	-0.87158203125	0.21484375	29.6875	-1.75	17.0
18	12	04	16	18	40	-0.570126384992	0.116027219556	-0.533932728392	-0.44970703125	-0.7734375	0.173828125	15.875	4.4375	15.5625
18	12	04	16	18	40	-0.57006216473	0.115904502229	-0.53661526256	-0.44580078125	-0.7890625	0.24658203125	-7.75	3.625	10.9375
18	12	04	16	18	40	-0.569449746214	0.117185799864	-0.540031227707	-0.44189453125	-0.86767578125	0.27099609375	-16.125	3.5	9.3125
18	12	04	16	18	40	-0.569494209926	0.117609617675	-0.543128172129	-0.484375	-0.861328125	0.2998046875	-14.5625	3.75	12.0
18	12	04	16	18	40	-0.570920199395	0.116881781253	-0.543393471799	-0.5517578125	-0.8828125	0.39697265625	-0.4375	-3.3125	11.125
18	12	04	16	18	40	-0.57340243512	0.116206305106	-0.542031615359	-0.4912109375	-0.83837890625	0.458984375	2.625	-8.6875	14.1875
18	12	04	16	18	40	-0.575607939969	0.115963851759	-0.540208448379	-0.40283203125	-0.8212890625	0.51708984375	1.0625	-5.6875	14.125
18	12	04	16	18	40	-0.577194795454	0.116024881692	-0.538499490355	-0.45263671875	-0.8046875	0.498046875	1.5625	-6.5	6.4375
18	12	04	16	18	40	-0.578316228675	0.117738470197	-0.536689667413	-0.41748046875	-0.88720703125	0.533203125	-2.75	-9.0	3.4375
18	12	04	16	18	40	-0.57902614222	0.119625934305	-0.535875358774	-0.384765625	-0.85107421875	0.53271484375	-9.6875	-4.5	4.625
18	12	04	16	18	40	-0.579824876739	0.120786676954	-0.534537502156	-0.43896484375	-0.8662109375	0.5439453125	-4.0	-4.6875	2.0625
18	12	04	16	18	40	-0.581106562417	0.121763217311	-0.532645412269	-0.40673828125	-0.796875	0.49072265625	0.375	-8.9375	3.4375
18	12	04	16	18	40	-0.582268092674	0.122312920096	-0.531731616706	-0.447265625	-0.7734375	0.43115234375	-0.8125	-7.125	4.0625
18	12	04	16	18	40	-0.583192935197	0.123718689654	-0.531557014404	-0.509765625	-0.751953125	0.41015625	-7.9375	-9.9375	-1.0625
18	12	04	16	18	40	-0.583987835182	0.127381125839	-0.531680396349	-0.50634765625	-0.830078125	0.43603515625	-17.6875	-15.625	-3.4375
18	12	04	16	18	40	-0.584717185691	0.132629482725	-0.531799670034	-0.36181640625	-0.83154296875	0.4775390625	-26.875	-15.8125	0.0625
18	12	04	16	18	40	-0.585746930783	0.136961145429	-0.531975643295	-0.3740234375	-0.7861328125	0.4892578125	-26.25	-13.625	2.0
18	12	04	16	18	40	-0.586717044178	0.138973755289	-0.532030840955	-0.48193359375	-0.779296875	0.43798828125	-13.875	-10.0625	0.375
18	12	04	16	18	40	-0.58759488153	0.140932438086	-0.531746817065	-0.4580078125	-0.82080078125	0.4599609375	-11.0625	-9.1875	1.25
18	12	04	16	18	40	-0.587956193015	0.141724725442	-0.533451378278	-0.56298828125	-0.71484375	0.26806640625	-10.0625	-6.5625	-1.4375
18	12	04	16	18	40	-0.587520333276	0.142882308352	-0.532955282585	-0.72998046875	-1.14599609375	0.40673828125	8.125	-10.875	-11.6875
18	12	04	16	18	40	-0.591665652124	0.146482109047	-0.53380521905	-0.24951171875	-0.50634765625	0.490234375	-43.0625	-17.625	25.375
18	12	04	16	18	40	-0.596346119716	0.146721530222	-0.53195709543	-0.361328125	-0.6904296875	0.47314453125	-7.75	-18.6875	26.375
18	12	04	16	18	40	-0.594755279051	0.144096173816	-0.529756369642	-0.68505859375	-1.203125	0.2529296875	47.5625	-1.5	-13.0
18	12	04	16	18	40	-0.593928274374	0.144102831754	-0.533809134485	-0.5078125	-0.56298828125	0.05419921875	-10.6875	1.9375	0.25
18	12	04	16	18	40	-0.594897020455	0.14776297184	-0.53685382086	-0.4853515625	-0.908203125	0.416015625	-35.375	-8.1875	13.4375
18	12	04	16	18	40	-0.594244281602	0.153993254158	-0.540715909071	-0.40966796875	-0.91845703125	0.22265625	-37.5	-12.625	4.25
18	12	04	16	18	40	-0.593551206625	0.158137910166	-0.542954399397	-0.5146484375	-1.1220703125	0.263671875	-16.4375	-10.5	2.8125
18	12	04	16	18	40	-0.593923536321	0.162045729003	-0.546377915645	-0.4765625	-0.75634765625	0.2978515625	-37.5	-8.75	5.6875
18	12	04	16	18	40	-0.597282806575	0.166501890081	-0.546929412397	-0.48681640625	-0.759765625	0.42919921875	-36.75	-26.0625	12.75
18	12	04	16	18	40	-0.599285157317	0.172052638606	-0.547284856468	-0.4326171875	-0.86669921875	0.3466796875	-30.4375	-25.8125	7.0625
18	12	04	16	18	40	-0.601576152606	0.176639750978	-0.547497776875	-0.48779296875	-0.74609375	0.34912109375	-29.4375	-25.4375	3.4375
18	12	04	16	18	40	-0.603866973147	0.181330986175	-0.547899112385	-0.55859375	-0.7646484375	0.4462890625	-37.0	-23.75	0.6875
18	12	04	16	18	40	-0.605907418666	0.186832135442	-0.548044999718	-0.4990234375	-0.8056640625	0.43603515625	-37.3125	-25.25	1.125
18	12	04	16	18	40	-0.607924613107	0.190922509016	-0.545911419641	-0.42333984375	-0.88720703125	0.48486328125	-17.75	-22.5	0.25
18	12	04	16	18	40	-0.609912340282	0.192195933108	-0.54454497148	-0.48486328125	-0.76611328125	0.40771484375	-7.75	-14.625	1.375
18	12	04	16	18	40	-0.611265226007	0.193358785421	-0.543943653937	-0.494140625	-0.763671875	0.337890625	-6.625	-12.375	0.5625
18	12	04	16	18	40	-0.611373597895	0.194575125296	-0.545640407825	-0.5791015625	-0.77099609375	0.1845703125	-9.4375	-8.0	-2.3125
18	12	04	16	18	40	-0.611506221083	0.196653662474	-0.548396386509	-0.640625	-0.80517578125	0.2021484375	-21.0	-9.375	-1.4375
18	12	04	16	18	40	-0.611696204512	0.200195924047	-0.551515356613	-0.53759765625	-0.77587890625	0.2333984375	-33.0625	-10.0	3.4375
18	12	04	16	18	40	-0.61156607676	0.201413977376	-0.554376714093	-0.669921875	-0.88330078125	0.15966796875	-14.0	-6.3125	0.5
18	12	04	16	18	41	-0.611241406379	0.201102389817	-0.557288595272	-0.69482421875	-0.93896484375	0.09912109375	-2.4375	-2.1875	2.6875
18	12	04	16	18	41	-0.611589444612	0.201665820858	-0.558731514569	-0.42236328125	-0.8486328125	0.1953125	-6.75	-2.5	11.9375
18	12	04	16	18	41	-0.611120292735	0.20134683369	-0.559791803153	-0.40673828125	-0.8828125	0.13916015625	5.6875	1.875	8.125
18	12	04	16	18	41	-0.6106996906	0.200433518282	-0.561140611171	-0.53271484375	-0.8408203125	0.10693359375	7.5625	0.8125	2.375
18	12	04	16	18	41	-0.610935434402	0.20165141611	-0.561926328126	-0.4013671875	-0.7041015625	0.1904296875	-8.1875	-5.25	3.375
18	12	04	16	18	41	-0.61084391476	0.203736709379	-0.561588215398	-0.412109375	-0.82177734375	0.19580078125	-2.4375	-9.3125	-2.9375
18	12	04	16	18	41	-0.610643020118	0.205927990992	-0.561754958238	-0.4736328125	-0.8642578125	0.185546875	-4.75	-9.75	-3.5625
18	12	04	16	18	41	-0.611450238591	0.208190932705	-0.560424844355	-0.484375	-0.9189453125	0.291015625	-2.9375	-14.4375	-3.375
18	12	04	16	18	41	-0.61265138847	0.209954251478	-0.558636995285	-0.51416015625	-0.98779296875	0.30224609375	2.0625	-16.125	-1.1875
18	12	04	16	18	41	-0.614421493539	0.211419097409	-0.556134762008	-0.5537109375	-1.0107421875	0.32421875	5.875	-19.4375	-1.9375
18	12	04	16	18	41	-0.616759672611	0.211852827673	-0.553588345432	-0.5478515625	-0.92138671875	0.36328125	6.25	-17.4375	0.9375
18	12	04	16	18	41	-0.619555945639	0.212215153481	-0.551014784478	-0.47412109375	-0.8046875	0.4033203125	0.6875	-17.0	5.125
18	12	04	16	18	41	-0.621828736238	0.211670794785	-0.549623848628	-0.56201171875	-0.8095703125	0.3046875	5.0625	-14.125	4.0625
18	12	04	16	18	41	-0.623964049217	0.211975657139	-0.548402326344	-0.56689453125	-0.83544921875	0.31982421875	0.375	-15.375	3.0
18	12	04	16	18	41	-0.625709923939	0.212760904687	-0.546122941807	-0.3857421875	-0.85205078125	0.3173828125	6.3125	-14.125	5.3125
18	12	04	16	18	41	-0.627500052363	0.212218430315	-0.543393927263	-0.45751953125	-0.8779296875	0.271484375	18.75	-14.125	2.375
18	12	04	16	18	41	-0.629849498415	0.213184524996	-0.540254627904	-0.41943359375	-0.82373046875	0.32275390625	8.8125	-20.625	2.375
18	12	04	16	18	41	-0.632076394258	0.217161820275	-0.537960731845	-0.33056640625	-0.75	0.41943359375	-18.1875	-23.5	3.375
18	12	04	16	18	41	-0.633974847369	0.2216806244	-0.536318184638	-0.44873046875	-0.83349609375	0.4482421875	-24.0	-24.25	-0.75
18	12	04	16	18	41	-0.635984437485	0.225463196936	-0.533811889659	-0.505859375	-0.88134765625	0.43505859375	-13.875	-26.5625	-5.125
18	12	04	16	18	41	-0.638485954529	0.227721163975	-0.530087994941	-0.49609375	-0.90380859375	0.41259765625	2.125	-26.625	-4.3125
18	12	04	16	18	41	-0.642007511176	0.229484574772	-0.52494596479	-0.44287109375	-0.8466796875	0.51513671875	3.9375	-29.3125	-1.75
18	12	04	16	18	41	-0.645494960943	0.232417247662	-0.519581940479	-0.3740234375	-0.837890625	0.6044921875	-5.875	-30.0	-1.1875
18	12	04	16	18	41	-0.647812937928	0.235712602815	-0.5158578247	-0.35302734375	-0.8369140625	0.490234375	-8.0	-25.1875	-0.9375
18	12	04	16	18	41	-0.649912777624	0.237796786403	-0.513558049486	-0.5400390625	-0.8916015625	0.3505859375	0.0625	-25.6875	-3.1875
18	12	04	16	18	41	-0.652230322356	0.241214133815	-0.512030710672	-0.5341796875	-0.9189453125	0.35498046875	-11.625	-29.6875	2.125
18	12	04	16	18	41	-0.65479291203	0.246096664924	-0.510565129487	-0.3515625	-0.8193359375	0.36376953125	-23.6875	-30.875	10.625
18	12	04	16	18	41	-0.657577175375	0.250909575642	-0.510424904182	-0.54736328125	-0.826171875	0.35498046875	-31.3125	-33.8125	8.1875
18	12	04	16	18	41	-0.660102229385	0.256411416149	-0.510869686542	-0.56884765625	-0.83935546875	0.3115234375	-36.0	-35.75	8.625
18	12	04	16	18	41	-0.662900363774	0.259703622858	-0.511777879592	-0.62744140625	-0.8427734375	0.255859375	-24.6875	-31.0	12.6875
18	12	04	16	18	41	-0.666934100237	0.260194021169	-0.511415834711	-0.6240234375	-0.82861328125	0.2861328125	-8.0	-28.875	18.75
18	12	04	16	18	41	-0.670964919174	0.260133947559	-0.50922044216	-0.5234375	-0.8515625	0.27099609375	7.75	-29.3125	16.25
18	12	04	16	18	41	-0.67375783951	0.259823092925	-0.50756139083	-0.4228515625	-0.8330078125	0.197265625	12.8125	-20.9375	14.875
18	12	04	16	18	41	-0.675960269786	0.260252333216	-0.506832874068	-0.4248046875	-0.775390625	0.21875	2.25	-17.9375	13.125
18	12	04	16	18	41	-0.677745054976	0.261722874256	-0.506599779926	-0.4580078125	-0.88916015625	0.22998046875	-3.0625	-18.875	13.5625
18	12	04	16	18	41	-0.679409443591	0.262071878439	-0.507115798311	-0.5283203125	-0.9326171875	0.19775390625	1.875	-15.25	15.5
18	12	04	16	18	41	-0.681933045559	0.261103514625	-0.506704389531	-0.57568359375	-0.9091796875	0.205078125	11.375	-18.1875	15.25
18	12	04	16	18	41	-0.685044513292	0.259455116358	-0.505665876035	-0.58349609375	-0.81640625	0.07373046875	22.5	-24.875	14.0625
18	12	04	16	18	41	-0.689255477647	0.257196722112	-0.502735975328	-0.87646484375	-1.07275390625	0.25927734375	29.9375	-34.375	4.5625
18	12	04	16	18	41	-0.69377508909	0.262507843598	-0.498465835541	-0.06640625	-0.61376953125	0.71337890625	-43.375	-30.5	26.625
18	12	04	16	18	41	-0.696564163996	0.266406954862	-0.49259347828	0.0966796875	-0.72509765625	0.71337890625	-18.5	-16.625	15.6875
18	12	04	16	18	41	-0.696876064141	0.263113742557	-0.492415141486	-0.5068359375	-0.7666015625	0.23779296875	25.5625	3.5625	-1.5625
18	12	04	16	18	41	-0.697878057704	0.257141880104	-0.492738285801	-0.7841796875	-0.84912109375	0.1923828125	40.8125	1.25	-3.375
18	12	04	16	18	41	-0.700322385404	0.252870458666	-0.489505449794	-0.419921875	-0.857421875	0.29443359375	42.375	-7.6875	8.8125
18	12	04	16	18	41	-0.702552012635	0.250601908077	-0.485091077788	-0.318359375	-0.94873046875	0.32666015625	39.5	-13.0	8.0625
18	12	04	16	18	41	-0.703116145472	0.254147190082	-0.483392350012	-0.37255859375	-0.8671875	0.35546875	-7.4375	-18.8125	-0.1875
18	12	04	16	18	41	-0.702996044727	0.26128894491	-0.483820945177	-0.35107421875	-0.833984375	0.369140625	-39.75	-20.9375	4.3125
18	12	04	16	18	41	-0.704155717077	0.266598957458	-0.483088541273	-0.40673828125	-0.83203125	0.4619140625	-32.875	-22.75	6.3125
18	12	04	16	18	41	-0.70734020445	0.268006802808	-0.48028821027	-0.55126953125	-0.79443359375	0.48828125	-7.0625	-28.5	5.0625
18	12	04	16	18	41	-0.711436153299	0.269229999331	-0.475837015367	-0.4755859375	-0.75341796875	0.5771484375	-5.5625	-31.8125	6.5
18	12	04	16	18	42	-0.715187999591	0.271720171887	-0.470993837928	-0.40869140625	-0.77880859375	0.6416015625	-12.4375	-32.25	5.8125
18	12	04	16	18	42	-0.718667844358	0.273307397625	-0.467088323811	-0.52734375	-0.88818359375	0.560546875	-3.9375	-31.5625	5.875
18	12	04	16	18	42	-0.722644359269	0.27361610326	-0.462394735289	-0.5185546875	-0.90283203125	0.50634765625	10.375	-33.5625	7.25
18	12	04	16	18	42	-0.727574450702	0.27159687154	-0.457381338274	-0.49755859375	-0.7890625	0.40576171875	25.8125	-34.3125	12.875
18	12	04	16	18	42	-0.7331432125	0.26891683269	-0.452690909683	-0.54052734375	-0.70556640625	0.34130859375	27.25	-38.25	16.5
18	12	04	16	18	42	-0.738275347901	0.268308401899	-0.448848950766	-0.53515625	-0.65869140625	0.31298828125	12.6875	-42.3125	17.625
18	12	04	16	18	42	-0.742430654629	0.269530892045	-0.445800189198	-0.54296875	-0.72900390625	0.28515625	4.0	-42.625	15.6875
18	12	04	16	18	42	-0.745896048272	0.271967334187	-0.443350699177	-0.53076171875	-0.77783203125	0.228515625	0.4375	-43.3125	14.8125
18	12	04	16	18	42	-0.749571744464	0.274596798172	-0.440123919008	-0.49560546875	-0.8232421875	0.2763671875	1.375	-44.8125	16.625
18	12	04	16	18	42	-0.753755644348	0.276722922387	-0.435835551117	-0.3994140625	-0.79052734375	0.35498046875	2.6875	-43.1875	19.4375
18	12	04	16	18	42	-0.757496963698	0.276424441914	-0.43297747647	-0.5146484375	-0.81298828125	0.31494140625	14.8125	-34.4375	17.8125
18	12	04	16	18	42	-0.761649272312	0.274716193179	-0.430048944043	-0.56787109375	-0.82080078125	0.33447265625	21.5	-33.5625	19.375
18	12	04	16	18	42	-0.766153661239	0.271965324184	-0.426441140052	-0.490234375	-0.84814453125	0.37890625	29.25	-30.375	23.9375
18	12	04	16	18	42	-0.770812871985	0.267456014335	-0.421997006644	-0.4765625	-0.90380859375	0.41943359375	44.0625	-26.375	23.0625
18	12	04	16	18	42	-0.774459646727	0.264948327405	-0.420035565354	-0.42919921875	-0.8076171875	0.33251953125	24.5	-22.0	29.0625
18	12	04	16	18	42	-0.777823519542	0.265194851884	-0.418635555598	-0.45263671875	-0.75830078125	0.3408203125	3.75	-28.1875	29.1875
18	12	04	16	18	42	-0.780774422214	0.266178647223	-0.417487261409	-0.4765625	-0.7470703125	0.2783203125	1.9375	-30.875	25.25
18	12	04	16	18	42	-0.784362492005	0.265746968344	-0.415466149177	-0.5224609375	-0.712890625	0.2880859375	11.125	-33.875	23.6875
18	12	04	16	18	42	-0.789435960235	0.263613260573	-0.411807980803	-0.5576171875	-0.5712890625	0.31591796875	18.0	-41.9375	23.25
18	12	04	16	18	42	-0.795416703375	0.261842975558	-0.405093666383	-0.62646484375	-0.7919921875	0.46044921875	28.125	-56.0	19.4375
18	12	04	16	18	42	-0.802879370577	0.256762714711	-0.395794201307	-0.5234375	-0.81396484375	0.53173828125	53.75	-56.5	24.75
18	12	04	16	18	42	-0.813353498355	0.244506537176	-0.382201681427	-0.388671875	-0.71484375	0.6181640625	99.5625	-58.0	35.0
18	12	04	16	18	42	-0.821903631744	0.230714074557	-0.371278760723	-0.36181640625	-0.7158203125	0.57421875	102.8125	-38.75	28.75
18	12	04	16	18	42	-0.826102292213	0.221616359293	-0.365291630506	-0.41015625	-0.69775390625	0.5439453125	72.25	-16.875	13.375
18	12	04	16	18	42	-0.828971140306	0.21520779272	-0.362056899153	-0.48046875	-0.72705078125	0.5546875	50.5	-11.4375	14.1875
18	12	04	16	18	42	-0.830425517927	0.209284808244	-0.360831667058	-0.55810546875	-0.81396484375	0.49365234375	51.5625	-4.9375	8.75
18	12	04	16	18	42	-0.831934483414	0.202872146054	-0.360275053598	-0.5693359375	-0.69384765625	0.47802734375	46.75	-2.5	9.6875
18	12	04	16	18	42	-0.833768279498	0.196769558093	-0.359543879257	-0.60693359375	-0.68994140625	0.54931640625	41.875	-5.3125	12.8125
18	12	04	16	18	42	-0.835180303298	0.191705739013	-0.358998139725	-0.533203125	-0.71240234375	0.53369140625	38.125	-2.625	13.6875
18	12	04	16	18	42	-0.837100669988	0.184937297124	-0.357240264049	-0.4765625	-0.75146484375	0.603515625	51.4375	-0.375	17.4375
18	12	04	16	18	42	-0.839014701257	0.178581291618	-0.354660247982	-0.26904296875	-0.59765625	0.64794921875	43.4375	6.625	16.9375
18	12	04	16	18	42	-0.838937059444	0.172731311621	-0.355472494303	-0.41650390625	-0.6630859375	0.59228515625	39.625	18.0	7.625
18	12	04	16	18	42	-0.838501343593	0.168701245719	-0.356506503707	-0.5732421875	-0.66064453125	0.62255859375	28.25	9.1875	-0.875
18	12	04	16	18	42	-0.838970382122	0.167049464271	-0.356254191797	-0.38037109375	-0.59375	0.6259765625	13.375	3.6875	9.5625
18	12	04	16	18	42	-0.839158611639	0.164120845639	-0.356073266441	-0.423828125	-0.65478515625	0.6416015625	24.25	6.4375	6.8125
18	12	04	16	18	42	-0.839634522428	0.161310899381	-0.354359092623	-0.44189453125	-0.62939453125	0.73583984375	24.0	1.625	0.875
18	12	04	16	18	42	-0.840248711141	0.158809264647	-0.351003874321	-0.39501953125	-0.6640625	0.80126953125	28.4375	-2.6875	-3.1875
18	12	04	16	18	42	-0.841006973926	0.155762377347	-0.346986330414	-0.2978515625	-0.63720703125	0.8798828125	29.625	2.5625	-1.8125
18	12	04	16	18	42	-0.840731495673	0.151240119512	-0.344348972674	-0.42333984375	-0.638671875	0.89306640625	36.3125	9.6875	-11.75
18	12	04	16	18	42	-0.839515800509	0.146297300896	-0.343679641779	-0.568359375	-0.65283203125	0.88134765625	35.0625	14.4375	-17.4375
18	12	04	16	18	42	-0.837501886856	0.146236300897	-0.342336983193	-0.22607421875	-0.6904296875	0.8896484375	15.0625	19.0625	-17.625
18	12	04	16	18	42	-0.83440500178	0.146666316969	-0.342953822325	-0.26220703125	-0.76611328125	0.77099609375	15.9375	24.25	-20.125
18	12	04	16	18	42	-0.830907085419	0.142817877177	-0.346302835513	-0.56103515625	-0.78955078125	0.703125	32.875	30.75	-20.0
18	12	04	16	18	42	-0.828437615029	0.139344513012	-0.350100800104	-0.54931640625	-0.69287109375	0.69873046875	20.5625	28.6875	-7.5625
18	12	04	16	18	42	-0.826839217405	0.136840150987	-0.352476303278	-0.44140625	-0.685546875	0.765625	15.5	25.125	-0.0625
18	12	04	16	18	42	-0.824967912004	0.134453230017	-0.355693792347	-0.40185546875	-0.5673828125	0.68701171875	8.875	28.875	-1.0
18	12	04	16	18	42	-0.821688192011	0.131037996602	-0.362048158286	-0.56591796875	-0.54345703125	0.55126953125	9.375	37.1875	-8.125
18	12	04	16	18	42	-0.817832382242	0.128045696862	-0.36936728189	-0.6748046875	-0.55859375	0.533203125	5.5	36.9375	-12.6875
18	12	04	16	18	42	-0.813690724771	0.126582250463	-0.377183369268	-0.57666015625	-0.5830078125	0.45947265625	-1.0	38.8125	-9.0625
18	12	04	16	18	42	-0.808994315905	0.123470049119	-0.383166074331	-0.7119140625	-0.70751953125	0.68212890625	14.625	39.5625	-22.4375
18	12	04	16	18	43	-0.806215238004	0.124389935275	-0.385621006413	0.01904296875	-0.44677734375	0.8984375	-18.625	50.5625	-3.125
18	12	04	16	18	43	-0.79805038744	0.120781715872	-0.397621464834	-0.1328125	-0.58740234375	0.27978515625	9.3125	90.25	-11.625
18	12	04	16	18	43	-0.783237567894	0.108944055068	-0.420945180844	-1.73974609375	-0.84228515625	-0.109375	43.875	94.375	-65.5
18	12	04	16	18	43	-0.776156356818	0.107723202782	-0.429305953751	-0.90185546875	-0.79345703125	0.47021484375	6.5625	40.3125	-34.625
18	12	04	16	18	43	-0.774715622081	0.105712397183	-0.433835865576	0.068359375	-0.578125	0.6015625	-5.75	55.375	36.375
18	12	04	16	18	43	-0.765846908929	0.0921604106219	-0.441210336679	-0.7568359375	-0.69091796875	0.33154296875	78.9375	78.4375	-34.0625
18	12	04	16	18	43	-0.756489264305	0.0809892096598	-0.449926491041	-0.8798828125	-0.568359375	0.28076171875	56.25	71.5625	-41.5
18	12	04	16	18	43	-0.750412091826	0.0694566051645	-0.454702731525	-0.8076171875	-0.4931640625	0.52587890625	52.375	60.5	-23.75
18	12	04	16	18	43	-0.743971667751	0.0600548089473	-0.458345137392	-0.67626953125	-0.5009765625	0.55126953125	47.875	58.25	-28.6875
18	12	04	16	18	43	-0.737797512051	0.0526736642042	-0.460574125243	-0.72021484375	-0.60205078125	0.6640625	44.0	49.3125	-32.0625
18	12	04	16	18	43	-0.731618602176	0.0491326415911	-0.461846830956	-0.44580078125	-0.73095703125	0.72802734375	33.5	48.4375	-27.1875
18	12	04	16	18	43	-0.722035450017	0.0454705334119	-0.467156325819	-0.53515625	-0.7744140625	0.42333984375	36.8125	58.25	-41.5
18	12	04	16	18	43	-0.711510529678	0.0421730808035	-0.472204234699	-1.00048828125	-0.89404296875	0.44775390625	40.75	41.9375	-62.875
18	12	04	16	18	43	-0.708189410233	0.0460814448613	-0.468687967007	-0.521484375	-0.74560546875	0.88330078125	8.375	2.6875	-39.4375
18	12	04	16	18	43	-0.706294059181	0.0479733088936	-0.460507144532	0.07763671875	-0.46533203125	0.98876953125	22.125	13.375	-28.625
18	12	04	16	18	43	-0.699989905326	0.0445542445626	-0.457138755854	-0.5283203125	-0.43994140625	0.82763671875	37.375	29.8125	-59.75
18	12	04	16	18	43	-0.693270556423	0.0436383878724	-0.455609182472	-0.701171875	-0.52197265625	0.736328125	24.4375	18.4375	-64.8125
18	12	04	16	18	43	-0.688885739517	0.0427234887625	-0.451648309775	-0.58837890625	-0.591796875	0.576171875	39.0	-0.375	-46.8125
18	12	04	16	18	43	-0.684828988666	0.0412606413849	-0.445627134247	-0.52587890625	-0.5947265625	0.6240234375	49.5	-3.5	-46.9375
18	12	04	16	18	43	-0.68059364386	0.0416254026646	-0.442987056509	-0.63818359375	-0.55419921875	0.6728515625	20.625	0.0625	-47.0625
18	12	04	16	18	43	-0.677105693294	0.0442492903946	-0.442614970954	-0.6162109375	-0.52587890625	0.5810546875	-0.6875	-4.1875	-39.1875
18	12	04	16	18	43	-0.674499417492	0.0479125909629	-0.442626891291	-0.57666015625	-0.560546875	0.7705078125	-16.0	-0.125	-31.1875
18	12	04	16	18	43	-0.673679112876	0.0563331963385	-0.440961368955	-0.24755859375	-0.47021484375	0.94580078125	-43.125	-7.6875	-23.25
18	12	04	16	18	43	-0.669655855295	0.0632303560049	-0.439499800764	-0.2197265625	-0.6708984375	0.70556640625	-12.1875	-1.1875	-35.875
18	12	04	16	18	43	-0.66406569868	0.0663455344177	-0.439516277224	-0.544921875	-0.56982421875	0.61474609375	-1.8125	4.375	-53.0625
18	12	04	16	18	43	-0.659713677106	0.06933432669	-0.438588443305	-0.58642578125	-0.59814453125	0.49365234375	6.9375	-8.5625	-47.1875
18	12	04	16	18	43	-0.656802492334	0.0758670660693	-0.437196938258	-0.2900390625	-0.55615234375	0.52587890625	-12.4375	-14.0	-34.1875
18	12	04	16	18	43	-0.654648256038	0.0811749189381	-0.436940785472	-0.44677734375	-0.58251953125	0.66455078125	-20.5625	-10.3125	-28.375
18	12	04	16	18	43	-0.652142370693	0.0878271288186	-0.438037042065	-0.578125	-0.623046875	0.783203125	-37.25	-11.125	-34.75
18	12	04	16	18	43	-0.649159064981	0.0966170364672	-0.439750946144	-0.3896484375	-0.6552734375	0.77734375	-47.75	-8.3125	-31.3125
18	12	04	16	18	43	-0.64649893151	0.106936001511	-0.442514846436	-0.34912109375	-0.59814453125	0.8623046875	-68.25	-7.25	-28.9375
18	12	04	16	18	43	-0.643002599655	0.116515611081	-0.446042999362	-0.41796875	-0.693359375	0.73681640625	-60.0	-6.5625	-31.4375
18	12	04	16	18	43	-0.639384963329	0.124446920602	-0.449693433544	-0.50341796875	-0.79443359375	0.615234375	-44.5625	-7.0625	-30.5
18	12	04	16	18	43	-0.638180040727	0.134459700624	-0.453366616538	-0.40673828125	-0.59033203125	0.73193359375	-74.0	-15.6875	-17.8125
18	12	04	16	18	43	-0.638176509159	0.14465171449	-0.456904107456	-0.36669921875	-0.5732421875	0.83056640625	-83.5625	-16.4375	-8.0625
18	12	04	16	18	43	-0.638217764386	0.156060325479	-0.460551903037	-0.328125	-0.5478515625	0.859375	-94.25	-18.625	-8.0
18	12	04	16	18	43	-0.637934233186	0.166014266577	-0.464351669162	-0.4208984375	-0.52001953125	0.82177734375	-89.1875	-16.5625	-12.5625
18	12	04	16	18	43	-0.637990654759	0.172360624609	-0.465996235443	-0.56787109375	-0.609375	0.73974609375	-55.4375	-18.6875	-17.5625
18	12	04	16	18	43	-0.638357760124	0.176328097237	-0.466546201203	-0.57080078125	-0.6318359375	0.59814453125	-31.75	-18.125	-15.125
18	12	04	16	18	43	-0.638603133178	0.180295675753	-0.467828826896	-0.49951171875	-0.64990234375	0.50439453125	-29.75	-15.5625	-9.0625
18	12	04	16	18	43	-0.6385452232	0.184568988239	-0.471310094968	-0.4716796875	-0.634765625	0.4130859375	-39.375	-10.9375	-1.75
18	12	04	16	18	43	-0.638590307592	0.188470502709	-0.47538754715	-0.53662109375	-0.640625	0.373046875	-39.5625	-10.8125	-1.1875
18	12	04	16	18	43	-0.639037999046	0.193359348708	-0.479614192598	-0.58642578125	-0.64013671875	0.38037109375	-47.0625	-16.875	-1.5625
18	12	04	16	18	43	-0.638963465224	0.20080139465	-0.48442573536	-0.55908203125	-0.7177734375	0.388671875	-60.5	-20.6875	-2.75
18	12	04	16	18	43	-0.639343615407	0.209350701752	-0.48858669607	-0.46142578125	-0.72265625	0.470703125	-68.8125	-22.6875	2.125
18	12	04	16	18	43	-0.640562856416	0.218017200869	-0.49194250812	-0.408203125	-0.7197265625	0.55615234375	-73.375	-25.0	8.25
18	12	04	16	18	43	-0.642651732708	0.224247551141	-0.491952983723	-0.45458984375	-0.7822265625	0.53662109375	-42.6875	-30.3125	2.3125
18	12	04	16	18	43	-0.645188731331	0.227473124744	-0.491871723186	-0.634765625	-0.80078125	0.38671875	-19.375	-31.0	-0.1875
18	12	04	16	18	43	-0.64940332127	0.23168562101	-0.49047040317	-0.4384765625	-0.64501953125	0.4931640625	-31.6875	-36.6875	12.3125
18	12	04	16	18	44	-0.65330516014	0.235956441433	-0.488269925366	-0.41357421875	-0.73779296875	0.56005859375	-28.0	-34.9375	10.25
18	12	04	16	18	44	-0.655884583155	0.241943652301	-0.487976665022	-0.3994140625	-0.7421875	0.5048828125	-41.875	-31.9375	8.6875
18	12	04	16	18	44	-0.658986541501	0.245784829362	-0.487480365561	-0.49658203125	-0.73291015625	0.5341796875	-33.8125	-29.0	8.6875
18	12	04	16	18	44	-0.661605204204	0.249322625385	-0.48717091697	-0.6142578125	-0.82763671875	0.47509765625	-26.5	-30.125	2.0625
18	12	04	16	18	44	-0.664462243441	0.254872263122	-0.486613159452	-0.40185546875	-0.78955078125	0.5400390625	-41.4375	-31.1875	12.375
18	12	04	16	18	44	-0.667347016103	0.258540512183	-0.485587420899	-0.451171875	-0.82470703125	0.60498046875	-32.625	-25.5	10.4375
18	12	04	16	18	44	-0.670528071299	0.260923676024	-0.4839447549	-0.5078125	-0.8125	0.55908203125	-20.8125	-26.5625	7.375
18	12	04	16	18	44	-0.673085087973	0.263362545756	-0.483207711415	-0.4736328125	-0.79638671875	0.4892578125	-21.1875	-23.0	9.1875
18	12	04	16	18	44	-0.675636796882	0.26384623965	-0.484481020203	-0.6328125	-0.77978515625	0.37890625	-16.0	-17.8125	12.0625
18	12	04	16	18	44	-0.678836579841	0.264222581742	-0.486147577633	-0.73046875	-0.8369140625	0.310546875	-14.125	-24.125	16.0625
18	12	04	16	18	44	-0.68211223706	0.266595047555	-0.488269317867	-0.47021484375	-0.70263671875	0.2861328125	-30.8125	-24.125	30.3125
18	12	04	16	18	44	-0.684754857959	0.268616287537	-0.489869194222	-0.59228515625	-0.8291015625	0.30322265625	-22.4375	-23.6875	20.0625
18	12	04	16	18	44	-0.685238344964	0.273008917522	-0.493466822752	-0.65576171875	-0.92529296875	0.1708984375	-31.9375	-21.6875	11.75
18	12	04	16	18	44	-0.686651511409	0.278505853027	-0.494816338044	-0.54638671875	-0.92138671875	0.3154296875	-37.75	-28.125	12.9375
18	12	04	16	18	44	-0.689455025634	0.285523248045	-0.49292128072	-0.21826171875	-0.76171875	0.595703125	-53.5625	-31.75	20.0625
18	12	04	16	18	44	-0.692610912352	0.290276480362	-0.490406122731	-0.169921875	-0.64697265625	0.64111328125	-43.625	-24.625	20.1875
18	12	04	16	18	44	-0.694993806901	0.29003342148	-0.488271753333	-0.548828125	-0.76904296875	0.455078125	-0.625	-16.875	-1.4375
18	12	04	16	18	44	-0.696506486126	0.291553757819	-0.486370503675	-0.5419921875	-0.7578125	0.3876953125	-6.0625	-20.0	-7.9375
18	12	04	16	18	44	-0.697978558852	0.295462941886	-0.485521111898	-0.46826171875	-0.796875	0.44189453125	-28.3125	-22.5625	3.25
18	12	04	16	18	44	-0.700072734937	0.300719996951	-0.482421525452	-0.47998046875	-0.9580078125	0.5625	-29.1875	-32.9375	-0.8125
18	12	04	16	18	44	-0.70210227574	0.305426392054	-0.479929600464	-0.423828125	-0.87744140625	0.5595703125	-31.0	-28.125	3.4375
18	12	04	16	18	44	-0.704282649067	0.308287690479	-0.479246673063	-0.5537109375	-0.783203125	0.5	-29.9375	-23.5625	5.9375
18	12	04	16	18	44	-0.705852945645	0.31121004495	-0.48008986342	-0.66748046875	-0.8271484375	0.388671875	-29.625	-23.0	5.1875
18	12	04	16	18	44	-0.708598337294	0.314139159522	-0.479722905351	-0.58056640625	-0.7900390625	0.4091796875	-28.9375	-29.5	13.0
18	12	04	16	18	44	-0.711276248543	0.317004362016	-0.479534707809	-0.52783203125	-0.7666015625	0.31591796875	-25.0625	-30.25	17.0
18	12	04	16	18	44	-0.714045724386	0.320310450601	-0.477963250506	-0.5966796875	-0.8681640625	0.30517578125	-17.5625	-36.75	8.5
18	12	04	16	18	44	-0.716590194172	0.325306680431	-0.476241656173	-0.4140625	-0.7734375	0.3310546875	-31.5625	-37.4375	14.75
18	12	04	16	18	44	-0.719219299995	0.328848743073	-0.474779950328	-0.4619140625	-0.783203125	0.31103515625	-22.8125	-33.9375	14.5
18	12	04	16	18	44	-0.721907345505	0.33110816278	-0.473072694877	-0.57958984375	-0.83203125	0.25244140625	-9.125	-34.625	7.8125
18	12	04	16	18	44	-0.725194048705	0.334033582609	-0.470381293837	-0.50390625	-0.7607421875	0.31591796875	-15.625	-39.125	10.0625
18	12	04	16	18	44	-0.728726844971	0.336837810502	-0.466592690938	-0.46533203125	-0.7861328125	0.35595703125	-11.5	-40.5	8.625
18	12	04	16	18	44	-0.731186066752	0.339897763418	-0.463552435475	-0.47509765625	-0.8486328125	0.3251953125	-10.5625	-34.6875	4.625
18	12	04	16	18	44	-0.733878404976	0.342220244237	-0.460993312773	-0.58642578125	-0.84619140625	0.2998046875	-8.1875	-36.375	3.4375
18	12	04	16	18	44	-0.736812479766	0.346006456908	-0.456906744825	-0.4052734375	-0.84228515625	0.35400390625	-13.8125	-40.375	7.9375
18	12	04	16	18	44	-0.740216696737	0.348685520157	-0.452686942587	-0.46435546875	-0.83251953125	0.3876953125	-9.6875	-40.8125	7.0625
18	12	04	16	18	44	-0.742462255791	0.353012880189	-0.449444476091	-0.55029296875	-0.90185546875	0.39111328125	-20.9375	-40.0625	1.875
18	12	04	16	18	44	-0.745049330134	0.357967913594	-0.445125318643	-0.34765625	-0.86962890625	0.47265625	-27.0	-39.75	10.1875
18	12	04	16	18	44	-0.747803943407	0.360230074599	-0.441529034167	-0.43603515625	-0.95703125	0.4833984375	-11.5	-31.25	10.25
18	12	04	16	18	44	-0.750288163956	0.362906810614	-0.438954891009	-0.42626953125	-0.81640625	0.51171875	-24.0625	-28.5625	12.75
18	12	04	16	18	44	-0.752420166942	0.366261633827	-0.436450082236	-0.41796875	-0.814453125	0.46875	-25.6875	-29.875	11.5625
18	12	04	16	18	44	-0.754323771892	0.368281385193	-0.434808847881	-0.60595703125	-0.90576171875	0.30224609375	-8.5	-31.0	5.125
18	12	04	16	18	44	-0.756577646872	0.371330945754	-0.433280470728	-0.51220703125	-0.73486328125	0.3056640625	-22.3125	-35.875	13.6875
18	12	04	16	18	44	-0.759389935732	0.374995319493	-0.430353515258	-0.48974609375	-0.7958984375	0.37158203125	-24.25	-42.6875	15.25
18	12	04	16	18	44	-0.761772648062	0.380001322557	-0.426814848802	-0.51513671875	-0.9140625	0.38427734375	-28.375	-46.6875	11.375
18	12	04	16	18	44	-0.763245453467	0.386047780342	-0.424133758988	-0.58251953125	-0.92822265625	0.32958984375	-34.25	-46.625	8.25
18	12	04	16	18	44	-0.765177351669	0.391774221932	-0.420887215212	-0.654296875	-0.96484375	0.3525390625	-32.375	-51.8125	6.3125
18	12	04	16	18	44	-0.767934904002	0.397578124676	-0.416926031572	-0.50634765625	-0.791015625	0.44873046875	-43.875	-54.125	16.875
18	12	04	16	18	44	-0.771601028453	0.401364369808	-0.412472690262	-0.50048828125	-0.7158203125	0.44189453125	-32.125	-53.875	17.8125
18	12	04	16	18	44	-0.775306209888	0.403125050485	-0.407946682429	-0.56298828125	-0.78076171875	0.400390625	-12.3125	-48.125	9.125
18	12	04	16	18	44	-0.778237045461	0.404651526265	-0.404285325789	-0.48388671875	-0.732421875	0.31103515625	-7.4375	-40.375	9.25
18	12	04	16	18	44	-0.781848092478	0.404351570076	-0.400079176128	-0.4755859375	-0.8388671875	0.33154296875	8.125	-38.0	10.4375
18	12	04	16	18	45	-0.784531915339	0.405083112035	-0.396233172116	-0.34228515625	-0.810546875	0.32470703125	2.1875	-31.3125	12.4375
18	12	04	16	18	45	-0.786551088048	0.405329849905	-0.393550199095	-0.470703125	-0.9189453125	0.26025390625	9.875	-27.25	6.5
18	12	04	16	18	45	-0.786475847194	0.408984529881	-0.392566556662	-0.52001953125	-0.89013671875	0.23828125	-16.375	-25.375	4.0625
18	12	04	16	18	45	-0.786903965943	0.413928697512	-0.391102196057	-0.46435546875	-0.80322265625	0.306640625	-34.125	-34.1875	15.8125
18	12	04	16	18	45	-0.787761680914	0.417531390651	-0.389455898808	-0.62060546875	-0.9384765625	0.27197265625	-19.875	-36.9375	10.0
18	12	04	16	18	45	-0.788923400017	0.422110028974	-0.386222131774	-0.50634765625	-0.8232421875	0.38623046875	-31.8125	-41.0625	9.25
18	12	04	16	18	45	-0.790153688605	0.428096552748	-0.381405098107	-0.18115234375	-0.64453125	0.56591796875	-52.75	-38.0625	18.625
18	12	04	16	18	45	-0.790466395463	0.431884813087	-0.378295940011	-0.35888671875	-0.85595703125	0.4306640625	-24.625	-23.625	3.0625
18	12	04	16	18	45	-0.791344728998	0.433024128663	-0.376630288651	-0.6123046875	-0.8974609375	0.2958984375	-2.75	-23.4375	-4.0625
18	12	04	16	18	45	-0.793429918556	0.433823066238	-0.373339293216	-0.4970703125	-0.86865234375	0.37060546875	-3.3125	-30.75	5.0
18	12	04	16	18	45	-0.795704739422	0.435113836568	-0.369685020072	-0.45556640625	-0.82275390625	0.408203125	-10.625	-34.625	9.9375
18	12	04	16	18	45	-0.796922218636	0.438529994708	-0.365411145208	-0.5107421875	-0.97314453125	0.43115234375	-18.5	-37.25	1.75
18	12	04	16	18	45	-0.79705749083	0.442931787346	-0.362304408114	-0.5390625	-1.021484375	0.4091796875	-25.75	-32.9375	1.5
18	12	04	16	18	45	-0.79734816378	0.447928519135	-0.359307152493	-0.40234375	-0.8369140625	0.4970703125	-43.5	-33.5	15.25
18	12	04	16	18	45	-0.799050693802	0.449816957938	-0.355886388295	-0.4873046875	-0.95166015625	0.48828125	-18.1875	-32.6875	11.6875
18	12	04	16	18	45	-0.799179042341	0.452750124949	-0.355156777714	-0.61962890625	-0.80029296875	0.302734375	-24.5	-29.9375	8.8125
18	12	04	16	18	45	-0.799683783488	0.456360528861	-0.353271999605	-0.5927734375	-0.7939453125	0.35986328125	-32.625	-37.75	13.0625
18	12	04	16	18	45	-0.800297527233	0.460634947989	-0.349977579405	-0.44189453125	-0.77685546875	0.40234375	-37.0	-39.875	16.0625
18	12	04	16	18	45	-0.801257530481	0.463860240072	-0.346491392485	-0.44091796875	-0.7578125	0.36181640625	-26.9375	-38.5	12.1875
18	12	04	16	18	45	-0.802626976461	0.465671342894	-0.343486018061	-0.55322265625	-0.7783203125	0.2900390625	-13.1875	-38.625	7.4375
18	12	04	16	18	45	-0.804245260328	0.467154376759	-0.339837414397	-0.49072265625	-0.7958984375	0.26416015625	-6.875	-38.9375	7.0625
18	12	04	16	18	45	-0.805651065544	0.469474848194	-0.335565875633	-0.4404296875	-0.73681640625	0.33837890625	-17.4375	-40.0625	6.25
18	12	04	16	18	45	-0.806516089494	0.473265154982	-0.330077116088	-0.498046875	-0.888671875	0.34716796875	-20.5625	-45.0	-2.0
18	12	04	16	18	45	-0.807142453681	0.477425005497	-0.324468336643	-0.5380859375	-0.92626953125	0.35302734375	-22.5625	-46.6875	-4.8125
18	12	04	16	18	45	-0.809029056724	0.480656644414	-0.317141831666	-0.40380859375	-0.85595703125	0.46337890625	-23.3125	-52.5625	2.5625
18	12	04	16	18	45	-0.811273794923	0.482296533816	-0.31115511635	-0.4716796875	-0.8271484375	0.4716796875	-17.5	-48.625	6.25
18	12	04	16	18	45	-0.812803966124	0.48528980511	-0.304626011483	-0.4619140625	-0.80224609375	0.5244140625	-28.5625	-49.125	0.875
18	12	04	16	18	45	-0.814489181417	0.487778009583	-0.298086561412	-0.39892578125	-0.77880859375	0.50048828125	-24.6875	-47.5625	3.8125
18	12	04	16	18	45	-0.81610246664	0.48846518888	-0.294006849286	-0.65283203125	-0.97509765625	0.29345703125	2.4375	-42.9375	-3.0625
18	12	04	16	18	45	-0.81810198932	0.489127823218	-0.289301956832	-0.62109375	-0.923828125	0.31298828125	-1.75	-50.75	4.9375
18	12	04	16	18	45	-0.819502536187	0.491567247073	-0.283624658201	-0.400390625	-0.79052734375	0.39501953125	-22.6875	-53.5	17.9375
18	12	04	16	18	45	-0.819520267203	0.495362068118	-0.279236256979	-0.6171875	-0.90869140625	0.31884765625	-25.9375	-53.5625	10.125
18	12	04	16	18	45	-0.817963648357	0.502057078897	-0.274037963074	-0.62109375	-0.939453125	0.32666015625	-45.875	-57.8125	6.625
18	12	04	16	18	45	-0.816636004159	0.508535963128	-0.268000649795	-0.41162109375	-0.8095703125	0.38330078125	-51.25	-56.25	14.4375
18	12	04	16	18	45	-0.816212742604	0.51323808813	-0.261715414663	-0.400390625	-0.8017578125	0.39501953125	-38.75	-53.1875	10.3125
18	12	04	16	18	45	-0.816008239627	0.517130726579	-0.25572733912	-0.44384765625	-0.79345703125	0.36083984375	-31.5	-50.6875	4.625
18	12	04	16	18	45	-0.815604999599	0.520808011792	-0.25036381863	-0.6123046875	-0.8955078125	0.27783203125	-23.3125	-52.3125	-3.0
18	12	04	16	18	45	-0.816893834365	0.522460491794	-0.243346960372	-0.6376953125	-1.009765625	0.41064453125	-13.75	-60.125	-2.6875
18	12	04	16	18	45	-0.81718176296	0.525989426633	-0.23534639465	-0.314453125	-0.6357421875	0.48583984375	-42.75	-62.1875	13.8125
18	12	04	16	18	45	-0.818466480833	0.527456176537	-0.227779038514	-0.486328125	-0.89599609375	0.5087890625	-23.0625	-61.0	7.6875
18	12	04	16	18	45	-0.816945818581	0.532220212031	-0.222104283438	-0.64892578125	-0.92578125	0.35302734375	-36.625	-54.0	-3.1875
18	12	04	16	18	45	-0.816327693978	0.535083730326	-0.217219458906	-0.58935546875	-0.9658203125	0.27880859375	-18.875	-51.0	3.9375
18	12	04	16	18	45	-0.817559152096	0.534846647989	-0.21258368994	-0.4970703125	-0.79931640625	0.29345703125	-4.125	-52.3125	14.0625
18	12	04	16	18	45	-0.818418079318	0.535276795855	-0.207396870275	-0.43408203125	-0.80029296875	0.283203125	-6.5625	-49.875	11.0
18	12	04	16	18	45	-0.816889643964	0.539425483664	-0.201536880183	-0.40478515625	-0.76123046875	0.263671875	-31.9375	-50.875	7.0
18	12	04	16	18	45	-0.81481689242	0.544309891132	-0.195250879315	-0.44775390625	-0.85107421875	0.31005859375	-38.8125	-52.8125	6.5
18	12	04	16	18	45	-0.812796519053	0.548944348754	-0.188779727674	-0.4921875	-0.9375	0.30712890625	-35.75	-55.0625	5.375
18	12	04	16	18	45	-0.812186432677	0.551752111776	-0.180967368519	-0.43212890625	-0.953125	0.3603515625	-25.4375	-59.375	4.6875
18	12	04	16	18	45	-0.811287067194	0.554204526792	-0.174257040087	-0.6064453125	-0.91015625	0.35107421875	-26.9375	-64.1875	4.875
18	12	04	16	18	45	-0.809915424642	0.557175426643	-0.166621635966	-0.5478515625	-0.83837890625	0.400390625	-37.3125	-69.6875	10.4375
