19	01	14	15	52	16	-0.767045394285	0.21678431258	-0.188831830834	-0.609375	-0.02734375	0.54443359375	49.125	3.9375	-8.5625
19	01	14	15	52	16	-0.769380888272	0.213187961505	-0.194572923355	-0.65380859375	-0.25341796875	0.54931640625	52.375	-1.6875	-8.5
19	01	14	15	52	16	-0.772919685819	0.209220521398	-0.196952923732	-0.40869140625	0.0009765625	0.85693359375	28.0625	7.1875	-25.3125
19	01	14	15	52	16	-0.780046846436	0.20189304186	-0.196217088748	-0.37451171875	-0.208984375	1.10546875	20.5625	-10.5625	-19.6875
19	01	14	15	52	16	-0.783750469092	0.197921100394	-0.195418860149	-0.4521484375	-0.271484375	1.09228515625	32.5625	-2.9375	-16.75
19	01	14	15	52	16	-0.787190495298	0.193959636692	-0.195546468207	-0.60498046875	-0.2890625	0.98974609375	36.6875	-11.8125	-15.3125
19	01	14	15	52	16	-0.789666937219	0.19079446945	-0.192015163433	-0.28076171875	-0.05712890625	1.12060546875	3.875	-3.75	-13.3125
19	01	14	15	52	16	-0.790930175981	0.189020044372	-0.189996576729	-0.28759765625	0.06396484375	1.13671875	-7.5625	8.0625	-10.75
19	01	14	15	52	16	-0.792201922515	0.189444897341	-0.185477784478	-0.35546875	0.2041015625	1.09130859375	-34.1875	-3.1875	-21.0
19	01	14	15	52	16	-0.793670231115	0.189995034563	-0.179436364155	-0.36962890625	0.00830078125	1.091796875	-28.3125	-11.125	-16.4375
19	01	14	15	52	16	-0.795380114739	0.192314513624	-0.172234705632	-0.283203125	0.00439453125	1.037109375	-39.0	-8.0	-22.5625
19	01	14	15	52	16	-0.796855513401	0.19427015159	-0.167598440548	-0.47705078125	-0.09033203125	1.02978515625	-24.3125	-9.25	-19.4375
19	01	14	15	52	16	-0.797996210202	0.197317150867	-0.161735369563	-0.37744140625	-0.1044921875	1.01806640625	-33.75	-6.5625	-17.875
19	01	14	15	52	16	-0.798329915077	0.200925235507	-0.157163572731	-0.310546875	0.02587890625	0.84619140625	-40.4375	-0.3125	-15.9375
19	01	14	15	52	16	-0.799048102741	0.203546090944	-0.156306308518	-0.609375	-0.18896484375	0.77587890625	-9.1875	-6.0	-14.25
19	01	14	15	52	16	-0.800443365112	0.208670672155	-0.152764753555	-0.45654296875	-0.2177734375	0.67529296875	-25.0625	-3.4375	-25.0625
19	01	14	15	52	16	-0.800235402621	0.215682726728	-0.152149699415	-0.67919921875	-0.3125	0.6396484375	-21.5625	2.125	-14.75
19	01	14	15	52	16	-0.800546639427	0.223862550386	-0.148550012988	-0.4970703125	-0.2548828125	0.6064453125	-39.0625	2.375	-23.9375
19	01	14	15	52	16	-0.800212202447	0.232049942316	-0.146480763166	-0.62353515625	-0.37939453125	0.650390625	-29.75	3.875	-16.0
19	01	14	15	52	16	-0.800615686694	0.239549974865	-0.143302762034	-0.51416015625	-0.318359375	0.63671875	-32.5625	3.375	-23.4375
19	01	14	15	52	16	-0.801121237363	0.244559865771	-0.142329325425	-0.67724609375	-0.39794921875	0.6416015625	-10.5	-4.125	-17.6875
19	01	14	15	52	16	-0.802946706237	0.245961935705	-0.140680461985	-0.40625	-0.26953125	0.732421875	-3.1875	0.4375	-20.6875
19	01	14	15	52	16	-0.804098341439	0.246264653336	-0.143547574881	-0.7021484375	-0.39306640625	0.78466796875	20.625	2.25	-11.0
19	01	14	15	52	16	-0.806579640031	0.246075144416	-0.143482803701	-0.5048828125	-0.2509765625	0.88623046875	6.3125	3.0	-24.8125
19	01	14	15	52	16	-0.807672520973	0.245786839111	-0.145384715859	-0.59423828125	-0.30908203125	0.80322265625	14.375	2.75	-9.625
19	01	14	15	52	16	-0.80888528454	0.246211668138	-0.145505358662	-0.53759765625	-0.28125	0.9189453125	2.5	3.6875	-13.4375
19	01	14	15	52	17	-0.809949930427	0.246628563699	-0.146048540691	-0.50048828125	-0.30712890625	0.91552734375	4.625	7.6875	-10.5
19	01	14	15	52	17	-0.81008889303	0.248525726845	-0.145441259104	-0.376953125	-0.18212890625	0.94873046875	-16.0	14.5	-7.6875
19	01	14	15	52	17	-0.809953448206	0.250657735799	-0.144706474696	-0.466796875	-0.21240234375	0.94287109375	-16.3125	9.1875	-6.8125
19	01	14	15	52	17	-0.810414277404	0.253841917437	-0.141843860573	-0.345703125	-0.27783203125	0.8974609375	-22.0625	8.3125	-12.0
19	01	14	15	52	17	-0.810599426302	0.257260491067	-0.140074217556	-0.33251953125	-0.171875	0.88427734375	-26.4375	14.75	-13.625
19	01	14	15	52	17	-0.810748390121	0.261277767096	-0.138237361008	-0.5048828125	-0.25341796875	0.80908203125	-23.9375	4.3125	-16.125
19	01	14	15	52	17	-0.811948900508	0.264830961385	-0.134521188959	-0.32177734375	-0.23095703125	0.8408203125	-27.25	6.1875	-23.5625
19	01	14	15	52	17	-0.8116907499	0.268976700114	-0.134030595291	-0.55712890625	-0.27197265625	0.76904296875	-20.625	6.5625	-13.625
19	01	14	15	52	17	-0.812593931943	0.271536007452	-0.132746868107	-0.54833984375	-0.30712890625	0.736328125	-10.6875	-1.75	-19.6875
19	01	14	15	52	17	-0.812598899195	0.275993106667	-0.132198378823	-0.6728515625	-0.45556640625	0.64453125	-9.0	-2.75	-14.25
19	01	14	15	52	17	-0.81272442945	0.278679764559	-0.129879662501	-0.53515625	-0.40771484375	0.6865234375	-10.625	-8.5625	-9.625
19	01	14	15	52	17	-0.811931947416	0.282464184969	-0.127804667961	-0.61572265625	-0.263671875	0.71435546875	-26.25	-8.1875	-10.6875
19	01	14	15	52	17	-0.811974869447	0.283495435101	-0.126703234288	-0.52294921875	-0.24169921875	0.80908203125	-13.25	-3.75	-8.4375
19	01	14	15	52	17	-0.812022906114	0.286359374332	-0.126640175136	-0.6123046875	-0.26220703125	0.8330078125	-17.3125	4.625	-15.9375
19	01	14	15	52	17	-0.812479283871	0.288261693038	-0.125485081704	-0.533203125	-0.3251953125	0.8603515625	-12.875	1.5	-13.8125
19	01	14	15	52	17	-0.813449883851	0.291128147207	-0.12353110481	-0.37353515625	-0.37841796875	0.935546875	-17.0625	13.8125	-17.5625
19	01	14	15	52	17	-0.813193389232	0.294724622981	-0.122979936903	-0.5419921875	-0.51220703125	0.8701171875	-10.8125	9.875	-6.25
19	01	14	15	52	17	-0.813931293919	0.297595155155	-0.120051203895	-0.37353515625	-0.52734375	0.8671875	-11.875	6.0	-11.3125
19	01	14	15	52	17	-0.813927023549	0.299729725004	-0.118707862988	-0.27880859375	-0.271484375	0.90478515625	-21.5625	16.625	-6.5625
19	01	14	15	52	17	-0.812716193295	0.302174667543	-0.117793800921	-0.52099609375	-0.33984375	0.79345703125	-18.9375	0.3125	1.1875
19	01	14	15	52	17	-0.81081101673	0.30754058813	-0.110834234579	-0.34814453125	-0.251953125	0.7939453125	-56.625	-11.375	-4.75
19	01	14	15	52	17	-0.807287486905	0.314260472524	-0.103756613574	-0.4384765625	-0.43310546875	0.77099609375	-57.375	-16.0	9.625
19	01	14	15	52	17	-0.803209617892	0.322565564632	-0.0922226240604	-0.26953125	-0.38427734375	0.8369140625	-84.3125	-21.5	6.5625
19	01	14	15	52	17	-0.798480537413	0.328717891501	-0.080440063312	-0.326171875	-0.40771484375	0.98193359375	-82.3125	-30.75	16.8125
19	01	14	15	52	17	-0.79464445263	0.333604191864	-0.0698823270554	-0.31005859375	-0.32861328125	0.98876953125	-76.0	-26.5625	9.5
19	01	14	15	52	17	-0.791675707432	0.336237874662	-0.0637197932742	-0.484375	-0.30908203125	0.90478515625	-50.0625	-24.5	5.9375
19	01	14	15	52	17	-0.791501450093	0.333800233695	-0.0595701276442	-0.35693359375	-0.18408203125	0.9091796875	-22.0625	-22.3125	-1.875
19	01	14	15	52	17	-0.79235417302	0.330503608604	-0.0603634476287	-0.54931640625	-0.3349609375	0.677734375	14.6875	-16.875	-4.25
19	01	14	15	52	17	-0.793447173648	0.327205407533	-0.060912329177	-0.52880859375	-0.28955078125	0.73974609375	10.4375	-14.8125	-7.8125
19	01	14	15	52	17	-0.793617458073	0.324758786004	-0.0621320135598	-0.6630859375	-0.42041015625	0.666015625	16.4375	-20.0	-0.5625
19	01	14	15	52	17	-0.794244527818	0.322507345346	-0.0627436697608	-0.5185546875	-0.55029296875	0.59130859375	24.875	-15.5	2.0625
19	01	14	15	52	17	-0.793757260025	0.321409129665	-0.0664668709087	-0.6015625	-0.5146484375	0.6494140625	23.0	-1.1875	10.25
19	01	14	15	52	17	-0.792148139975	0.322559744184	-0.0697607923562	-0.68505859375	-0.48486328125	0.58544921875	9.375	-2.875	10.0
19	01	14	15	52	17	-0.790191602722	0.327013718034	-0.069882550793	-0.57958984375	-0.572265625	0.51953125	-8.5625	-1.5625	4.8125
19	01	14	15	52	17	-0.788079232107	0.33276084057	-0.068725001189	-0.529296875	-0.65771484375	0.484375	-13.375	0.0	4.5
19	01	14	15	52	17	-0.786666002204	0.337151291502	-0.0690293466128	-0.49609375	-0.58251953125	0.55322265625	-7.9375	7.25	2.3125
19	01	14	15	52	17	-0.785733707657	0.339707458196	-0.0707978173747	-0.53515625	-0.50537109375	0.587890625	0.0625	7.25	1.875
19	01	14	15	52	17	-0.784867298136	0.341655298209	-0.0715291192392	-0.552734375	-0.53955078125	0.66259765625	-1.25	1.5	2.0625
19	01	14	15	52	17	-0.785617029987	0.341845943518	-0.0714696661059	-0.39208984375	-0.517578125	0.7236328125	4.625	5.0625	-4.125
19	01	14	15	52	17	-0.786367658042	0.34008387074	-0.0745230448983	-0.51416015625	-0.4755859375	0.74072265625	20.0625	5.875	1.625
19	01	14	15	52	17	-0.78773329264	0.337259950037	-0.0776320406166	-0.5078125	-0.5078125	0.74462890625	28.0625	3.875	0.4375
19	01	14	15	52	17	-0.789437226614	0.333595970674	-0.081293419857	-0.55322265625	-0.55322265625	0.70703125	38.5625	0.1875	1.0
19	01	14	15	52	17	-0.791484962292	0.328361281395	-0.0847758029475	-0.43603515625	-0.4580078125	0.73583984375	40.375	0.8125	3.25
19	01	14	15	52	17	-0.793433407612	0.322072930151	-0.089474875043	-0.41455078125	-0.38134765625	0.81005859375	42.375	5.9375	7.5625
19	01	14	15	52	17	-0.794577944445	0.318099719368	-0.0928299449651	-0.4833984375	-0.45263671875	0.75732421875	32.875	1.5	6.3125
19	01	14	15	52	17	-0.795370164369	0.314742475265	-0.0938063184956	-0.36669921875	-0.44140625	0.84423828125	19.375	0.5	8.5625
19	01	14	15	52	17	-0.795382279072	0.313099377811	-0.0958218368741	-0.51171875	-0.56005859375	0.79931640625	21.5625	1.375	11.25
19	01	14	15	52	17	-0.795560497277	0.31022892272	-0.0968588039262	-0.43798828125	-0.484375	0.892578125	17.75	-0.6875	12.625
19	01	14	15	52	17	-0.796176193199	0.305409403662	-0.0986904487852	-0.27099609375	-0.26953125	0.94189453125	17.1875	7.125	13.0625
19	01	14	15	52	17	-0.796034936179	0.300214356441	-0.103021311989	-0.54052734375	-0.31640625	0.82568359375	30.8125	-2.625	18.5
19	01	14	15	52	18	-0.796504924278	0.294737339413	-0.106444796011	-0.58642578125	-0.26513671875	0.8173828125	29.0625	-9.8125	9.5625
19	01	14	15	52	18	-0.796972337831	0.289907995458	-0.109981938488	-0.4716796875	-0.16845703125	0.77490234375	23.125	-1.125	7.25
19	01	14	15	52	18	-0.796516824848	0.286052743703	-0.11248030865	-0.60986328125	-0.2734375	0.77880859375	19.6875	-12.375	13.0625
19	01	14	15	52	18	-0.797234498924	0.281857978566	-0.11303615771	-0.45751953125	-0.29541015625	0.767578125	20.375	-12.9375	5.5
19	01	14	15	52	18	-0.797767585969	0.27764094167	-0.115780361914	-0.615234375	-0.45068359375	0.6533203125	39.0	-15.25	10.4375
19	01	14	15	52	18	-0.799110649724	0.272697348428	-0.11742831208	-0.48779296875	-0.31640625	0.73779296875	31.4375	-12.1875	2.375
19	01	14	15	52	18	-0.799910285106	0.266962275832	-0.120480917351	-0.55615234375	-0.3251953125	0.80517578125	38.0	-10.9375	10.125
19	01	14	15	52	18	-0.801541651473	0.261463826613	-0.121210821581	-0.384765625	-0.294921875	0.92529296875	28.0	-6.5	2.5
19	01	14	15	52	18	-0.802291176518	0.257807373877	-0.123227530269	-0.5830078125	-0.45263671875	0.8984375	32.3125	-7.1875	7.375
19	01	14	15	52	18	-0.804207325483	0.253767478133	-0.122855683858	-0.35302734375	-0.314453125	0.96630859375	20.5625	-3.25	-4.375
19	01	14	15	52	18	-0.805244036027	0.251020821599	-0.123526900782	-0.39013671875	-0.2255859375	0.90673828125	12.25	0.8125	-2.5
19	01	14	15	52	18	-0.805835733538	0.250301624119	-0.122556854726	-0.35546875	-0.18408203125	0.958984375	-6.1875	3.4375	-5.125
19	01	14	15	52	18	-0.804792046702	0.25445002599	-0.119015963224	-0.3994140625	-0.22509765625	1.0048828125	-38.4375	5.0625	-3.75
19	01	14	15	52	18	-0.80299325149	0.261520565679	-0.113091623851	-0.39013671875	-0.33740234375	1.00390625	-54.875	3.4375	-2.8125
19	01	14	15	52	18	-0.801666044492	0.268605425338	-0.108882544604	-0.375	-0.3017578125	0.87109375	-48.8125	9.6875	-8.8125
19	01	14	15	52	18	-0.800921966144	0.272080326531	-0.106622774888	-0.3544921875	-0.1708984375	0.9609375	-35.5625	10.9375	-6.875
19	01	14	15	52	18	-0.800649411563	0.275936574911	-0.104002637392	-0.3837890625	-0.27197265625	0.8701171875	-30.1875	6.8125	-11.125
19	01	14	15	52	18	-0.799797557641	0.2807592159	-0.100646075439	-0.4541015625	-0.3466796875	0.90234375	-34.6875	3.125	-8.4375
19	01	14	15	52	18	-0.799592572857	0.284779707271	-0.0969813448035	-0.39404296875	-0.384765625	0.89697265625	-29.25	3.0	-10.6875
19	01	14	15	52	18	-0.799544477839	0.287897045952	-0.0936260480156	-0.37255859375	-0.36376953125	0.89453125	-25.9375	2.5625	-9.9375
19	01	14	15	52	18	-0.799075475788	0.290567352037	-0.0901424026379	-0.3486328125	-0.30126953125	0.978515625	-31.6875	2.9375	-6.1875
19	01	14	15	52	18	-0.797945430974	0.294362154932	-0.0869720237982	-0.390625	-0.2890625	0.93994140625	-37.3125	4.0625	-4.5
19	01	14	15	52	18	-0.796590114754	0.298385616843	-0.0838580154514	-0.3984375	-0.26123046875	0.93115234375	-41.0625	4.5	-4.9375
19	01	14	15	52	18	-0.795090415249	0.302972965479	-0.0811142367288	-0.4248046875	-0.2802734375	0.84033203125	-39.125	3.8125	-5.0
19	01	14	15	52	18	-0.793738028791	0.307424717495	-0.0795874194189	-0.533203125	-0.38330078125	0.7099609375	-25.9375	-0.25	-5.375
19	01	14	15	52	18	-0.793068277011	0.310293914139	-0.079892748546	-0.52294921875	-0.33740234375	0.62255859375	-12.25	1.875	-6.5
19	01	14	15	52	18	-0.792262937314	0.312974681654	-0.081417360633	-0.5732421875	-0.4189453125	0.54638671875	-1.375	2.0	-2.375
19	01	14	15	52	18	-0.791279624784	0.316572881894	-0.0825152373859	-0.60205078125	-0.47265625	0.47021484375	-2.1875	-0.625	-3.0625
19	01	14	15	52	18	-0.789368541796	0.321289414986	-0.0835572205768	-0.67578125	-0.51171875	0.43115234375	-6.4375	-3.0625	1.3125
19	01	14	15	52	18	-0.78710340362	0.326108365815	-0.0828851133775	-0.65869140625	-0.63330078125	0.34228515625	-4.125	-13.25	6.6875
19	01	14	15	52	18	-0.784753470672	0.331100293856	-0.0824546538247	-0.65869140625	-0.72216796875	0.4033203125	-1.8125	-9.0	9.5625
19	01	14	15	52	18	-0.784134875724	0.332927751173	-0.0833082273789	-0.5625	-0.63671875	0.5478515625	10.8125	-1.4375	5.0625
19	01	14	15	52	18	-0.783991361484	0.333188699287	-0.0860589972513	-0.556640625	-0.607421875	0.576171875	22.0	3.375	7.25
19	01	14	15	52	18	-0.784278862508	0.332509824353	-0.0897190605359	-0.6162109375	-0.65087890625	0.62109375	31.0	3.5625	6.9375
19	01	14	15	52	18	-0.784584897404	0.332815359435	-0.0945408017175	-0.63671875	-0.5966796875	0.5693359375	28.875	10.9375	3.0
19	01	14	15	52	18	-0.785247538247	0.331957201968	-0.100520961876	-0.59619140625	-0.5302734375	0.58837890625	34.625	15.6875	3.6875
19	01	14	15	52	18	-0.786047657671	0.330617296499	-0.10656411292	-0.62451171875	-0.53662109375	0.6123046875	36.8125	14.25	3.375
19	01	14	15	52	18	-0.787207191822	0.328603157138	-0.112545360654	-0.5087890625	-0.4287109375	0.68212890625	33.625	21.125	2.375
19	01	14	15	52	18	-0.788807708717	0.32549609336	-0.11974935968	-0.56982421875	-0.44775390625	0.69287109375	44.1875	21.1875	1.6875
19	01	14	15	52	18	-0.791666366204	0.322501355256	-0.12438640462	-0.4521484375	-0.419921875	0.7314453125	37.5	19.9375	-10.875
19	01	14	15	52	18	-0.79441015854	0.317678616718	-0.130733448033	-0.474609375	-0.38916015625	0.6884765625	50.0625	18.1875	-4.0
19	01	14	15	52	18	-0.797825115438	0.311452078036	-0.140620338584	-0.65771484375	-0.42822265625	0.564453125	74.875	17.875	-6.9375
19	01	14	15	52	18	-0.801715497649	0.303633876432	-0.151115070964	-0.78564453125	-0.41015625	0.53759765625	85.5625	8.375	-10.1875
19	01	14	15	52	18	-0.806299443175	0.29332186238	-0.160820455133	-0.67529296875	-0.32373046875	0.6103515625	90.625	6.0	-9.875
19	01	14	15	52	18	-0.811751142804	0.280878102194	-0.169002925897	-0.54931640625	-0.20947265625	0.74560546875	89.625	3.8125	-14.1875
19	01	14	15	52	18	-0.817097779269	0.26915156906	-0.175772453264	-0.5751953125	-0.21728515625	0.8701171875	82.125	2.8125	-17.4375
19	01	14	15	52	18	-0.822110398118	0.259205854552	-0.180656776424	-0.43017578125	-0.1611328125	0.93359375	64.875	9.8125	-20.9375
19	01	14	15	52	18	-0.827359504188	0.251149628189	-0.184868098125	-0.52294921875	-0.35302734375	0.896484375	68.75	6.4375	-25.625
19	01	14	15	52	18	-0.832981943912	0.243156511177	-0.188470709467	-0.52587890625	-0.32763671875	0.99609375	65.6875	7.875	-31.6875
19	01	14	15	52	18	-0.837505568208	0.234369726127	-0.193965361884	-0.56982421875	-0.18505859375	0.9833984375	64.6875	11.125	-25.1875
19	01	14	15	52	19	-0.842104372766	0.224593715885	-0.199632077353	-0.59912109375	-0.22119140625	0.97412109375	73.5625	7.0	-22.625
19	01	14	15	52	19	-0.846268696689	0.216846435839	-0.202259805339	-0.455078125	-0.1259765625	1.0546875	49.0	8.3125	-24.875
19	01	14	15	52	19	-0.849611475816	0.209214003239	-0.204270498495	-0.38671875	-0.072265625	1.18017578125	40.0	12.8125	-16.9375
19	01	14	15	52	19	-0.852559515289	0.206960363401	-0.201955718813	-0.28955078125	-0.13232421875	1.1494140625	6.0	9.25	-23.75
19	01	14	15	52	19	-0.85623572952	0.206536581987	-0.19683229223	-0.26904296875	-0.26953125	1.2138671875	-0.4375	3.6875	-31.4375
19	01	14	15	52	19	-0.860247270182	0.20604432665	-0.190664240656	-0.08984375	-0.23388671875	1.193359375	-4.5	6.9375	-34.25
19	01	14	15	52	19	-0.864630412847	0.202684943959	-0.187549181808	-0.3212890625	-0.18994140625	1.08154296875	17.25	-2.8125	-37.625
19	01	14	15	52	19	-0.868718705778	0.199205975528	-0.18388713366	-0.31591796875	-0.1220703125	0.95654296875	13.0	-11.125	-36.25
19	01	14	15	52	19	-0.871804928755	0.19658944802	-0.180659660397	-0.30029296875	-0.01416015625	0.95751953125	0.8125	-7.0	-31.0
19	01	14	15	52	19	-0.87425393366	0.19598082805	-0.177182293313	-0.453125	0.0751953125	0.94580078125	-16.75	-13.5625	-35.0
19	01	14	15	52	19	-0.876426648006	0.196951865816	-0.171745444811	-0.4326171875	0.00244140625	1.00830078125	-27.0625	-17.8125	-32.625
19	01	14	15	52	19	-0.878015128202	0.20073625446	-0.164543916699	-0.3427734375	-0.09423828125	1.0107421875	-41.6875	-15.0625	-29.8125
19	01	14	15	52	19	-0.879468770865	0.205616258782	-0.15837761696	-0.3798828125	-0.18359375	0.951171875	-38.6875	-10.625	-31.6875
19	01	14	15	52	19	-0.879901639291	0.211720800909	-0.154777731653	-0.4560546875	-0.15185546875	0.869140625	-42.125	-2.1875	-27.8125
19	01	14	15	52	19	-0.879407077339	0.216845953625	-0.155020749284	-0.791015625	-0.3369140625	0.759765625	-18.0	-8.8125	-16.1875
19	01	14	15	52	19	-0.879838480072	0.221302325801	-0.151969881755	-0.4453125	-0.26318359375	0.783203125	-25.875	-5.3125	-20.1875
19	01	14	15	52	19	-0.877961707456	0.229789769105	-0.153193179403	-0.58349609375	-0.19384765625	0.53466796875	-40.5625	10.25	-13.0
19	01	14	15	52	19	-0.875076215949	0.237780508951	-0.1550211737	-0.826171875	-0.318359375	0.53173828125	-33.0	-3.1875	0.0
19	01	14	15	52	19	-0.8731313339	0.247608962787	-0.154595391358	-0.62841796875	-0.38818359375	0.501953125	-40.0625	3.4375	-13.75
19	01	14	15	52	19	-0.870909132647	0.255065475179	-0.156799044206	-0.71337890625	-0.53564453125	0.296875	-10.875	-0.1875	-0.5625
19	01	14	15	52	19	-0.871729048623	0.254078837038	-0.160637881116	-0.89599609375	-0.79345703125	0.12646484375	59.6875	-27.3125	-2.875
19	01	14	15	52	19	-0.877583004649	0.239002367773	-0.164420934316	-0.4287109375	-0.47021484375	0.45654296875	101.5625	-14.6875	-18.3125
19	01	14	15	52	19	-0.881491131944	0.225087536842	-0.173332051147	-0.470703125	-0.16162109375	0.79541015625	93.625	15.8125	-9.1875
19	01	14	15	52	19	-0.884181786595	0.215018460287	-0.176872976983	-0.5322265625	-0.236328125	0.96484375	61.25	-3.375	-3.5
19	01	14	15	52	19	-0.886639545284	0.210200770562	-0.174068698503	-0.25048828125	-0.3056640625	1.22265625	20.4375	0.5	-6.9375
19	01	14	15	52	19	-0.888210331774	0.206840157657	-0.174797937896	-0.3271484375	-0.3896484375	1.1552734375	26.625	15.5625	-2.875
19	01	14	15	52	19	-0.890434708003	0.202268875339	-0.173582583423	-0.15185546875	-0.11865234375	1.09716796875	15.1875	11.0	-11.6875
19	01	14	15	52	19	-0.891300980949	0.198595822515	-0.175098775291	-0.478515625	-0.25634765625	0.94580078125	24.0	1.4375	0.0
19	01	14	15	52	19	-0.891778430685	0.197996662045	-0.175352777452	-0.57421875	-0.193359375	0.7470703125	4.9375	-9.75	-7.875
19	01	14	15	52	19	-0.892287106832	0.195973590974	-0.175710983623	-0.4013671875	-0.00048828125	0.80908203125	-0.5	-1.0	-6.625
19	01	14	15	52	19	-0.890904542795	0.198785784468	-0.177118927396	-0.55615234375	0.009765625	0.8740234375	-28.75	8.0	-1.5
19	01	14	15	52	19	-0.891121988039	0.199756336337	-0.174428233807	-0.4326171875	-0.1015625	1.02294921875	-20.75	-5.25	-6.875
19	01	14	15	52	19	-0.892129486171	0.200495680514	-0.172115013409	-0.43505859375	-0.38916015625	0.986328125	1.5	-4.0	-9.1875
19	01	14	15	52	19	-0.893579059549	0.198295086707	-0.174004091167	-0.55322265625	-0.38720703125	0.833984375	30.125	0.3125	-11.875
19	01	14	15	52	19	-0.895178668162	0.19365936552	-0.177180314561	-0.55322265625	-0.25732421875	0.76025390625	38.875	-0.8125	-10.9375
19	01	14	15	52	19	-0.896251158947	0.190052850457	-0.181081184106	-0.52099609375	-0.189453125	0.6376953125	32.5625	3.5625	-9.5625
19	01	14	15	52	19	-0.896911028938	0.18651062224	-0.184008352766	-0.5712890625	-0.11669921875	0.68505859375	23.5625	-3.875	-5.625
19	01	14	15	52	19	-0.898531222564	0.181573861373	-0.1856020546	-0.439453125	-0.2080078125	0.6318359375	36.5	-7.1875	-8.0
19	01	14	15	52	19	-0.900779357277	0.173393465277	-0.190116383083	-0.5986328125	-0.29052734375	0.57177734375	68.1875	-9.5	-10.1875
19	01	14	15	52	19	-0.90543937781	0.156247037896	-0.193599845393	-0.45556640625	-0.1865234375	0.80126953125	107.5	-16.0625	-17.4375
19	01	14	15	52	19	-0.909638165919	0.139216630197	-0.19762536106	-0.52197265625	-0.2021484375	0.89697265625	108.0625	-12.8125	-17.0625
19	01	14	15	52	19	-0.913517842716	0.12377165854	-0.199328519128	-0.39453125	-0.05859375	1.06689453125	89.75	-12.1875	-18.0
19	01	14	15	52	19	-0.916557849633	0.111571402353	-0.199522381997	-0.306640625	-0.1181640625	1.09765625	72.75	-8.0	-11.375
19	01	14	15	52	19	-0.918334858585	0.104851418027	-0.200120954429	-0.35107421875	-0.111328125	1.083984375	43.3125	1.4375	-9.875
19	01	14	15	52	19	-0.919501412312	0.100885160929	-0.198474617871	-0.2470703125	0.1005859375	1.17919921875	8.625	3.4375	-8.125
19	01	14	15	52	19	-0.919114047693	0.102964698749	-0.1967742672	-0.39990234375	0.04052734375	1.04345703125	-23.375	0.6875	2.1875
19	01	14	15	52	19	-0.918700766253	0.105827883391	-0.192919226873	-0.265625	0.18359375	1.09814453125	-42.4375	-0.25	1.625
19	01	14	15	52	19	-0.917974491635	0.109307380794	-0.189929965958	-0.3740234375	0.02099609375	0.92041015625	-33.5	-6.4375	7.0625
19	01	14	15	52	19	-0.917821658673	0.11022648727	-0.187006620706	-0.34375	0.0244140625	0.93798828125	-19.0625	-9.125	3.875
19	01	14	15	52	19	-0.91738716581	0.112239704472	-0.183892457627	-0.33203125	-0.0107421875	0.916015625	-23.75	-8.0	7.1875
19	01	14	15	52	20	-0.916418504528	0.115414411726	-0.180354091301	-0.35693359375	0.00048828125	1.0068359375	-34.3125	-7.75	12.0
19	01	14	15	52	20	-0.915839046519	0.119438692126	-0.175343567949	-0.2265625	0.08056640625	1.03076171875	-46.6875	-5.125	4.25
19	01	14	15	52	20	-0.91464445032	0.123470287134	-0.170954164243	-0.35693359375	-0.04541015625	1.00830078125	-39.3125	-11.1875	14.75
19	01	14	15	52	20	-0.914082669985	0.12804603336	-0.165703041264	-0.20458984375	0.0673828125	0.98388671875	-49.6875	-5.8125	1.625
19	01	14	15	52	20	-0.912030157891	0.133969497194	-0.163021652394	-0.4921875	-0.015625	0.869140625	-49.25	-11.0625	15.375
19	01	14	15	52	20	-0.909829606143	0.142391659699	-0.158992830482	-0.45654296875	0.02294921875	0.908203125	-68.4375	-9.5625	10.0625
19	01	14	15	52	20	-0.906895793631	0.152278417465	-0.155696289761	-0.47119140625	0.05908203125	0.85498046875	-78.8125	-4.9375	12.4375
19	01	14	15	52	20	-0.903411789515	0.163324547273	-0.151301028659	-0.48876953125	-0.0263671875	0.87255859375	-84.3125	-8.6875	18.0
19	01	14	15	52	20	-0.900056019006	0.174249673443	-0.147150950147	-0.443359375	-0.11328125	0.87548828125	-78.25	-4.0	15.6875
19	01	14	15	52	20	-0.896640346394	0.184503693904	-0.144160676481	-0.4833984375	-0.14599609375	0.806640625	-69.75	-2.9375	15.0
19	01	14	15	52	20	-0.89294567272	0.194261914857	-0.140981785523	-0.55419921875	-0.21826171875	0.83642578125	-65.6875	-8.75	19.4375
19	01	14	15	52	20	-0.889890288843	0.203110546689	-0.138539946209	-0.46240234375	-0.1767578125	0.7099609375	-58.5	-3.1875	10.9375
19	01	14	15	52	20	-0.886565069992	0.210624814577	-0.137019040488	-0.50732421875	-0.1962890625	0.7421875	-50.75	-3.25	17.125
19	01	14	15	52	20	-0.883791062347	0.217392705205	-0.135183841109	-0.484375	-0.2373046875	0.7861328125	-45.375	-3.0625	12.3125
19	01	14	15	52	20	-0.880612001268	0.224287830387	-0.132924869275	-0.484375	-0.2744140625	0.85888671875	-47.875	-3.0	17.375
19	01	14	15	52	20	-0.877466625699	0.231557931272	-0.130243707258	-0.46337890625	-0.30908203125	0.80322265625	-48.1875	-4.0625	15.9375
19	01	14	15	52	20	-0.874190282853	0.237849579856	-0.128293512152	-0.45947265625	-0.296875	0.765625	-42.375	-3.5625	19.125
19	01	14	15	52	20	-0.871020569625	0.243343774865	-0.127195492054	-0.55517578125	-0.38671875	0.70556640625	-30.125	-8.0	20.375
19	01	14	15	52	20	-0.868326046817	0.248590144703	-0.125668329964	-0.49560546875	-0.3427734375	0.67724609375	-31.0625	-7.0	14.3125
19	01	14	15	52	20	-0.865475845558	0.253765500729	-0.124441523806	-0.47412109375	-0.318359375	0.65478515625	-31.5625	-4.9375	15.625
19	01	14	15	52	20	-0.86214810118	0.259266964025	-0.123102981741	-0.57421875	-0.4619140625	0.69775390625	-28.125	-9.5625	21.4375
19	01	14	15	52	20	-0.859521363687	0.263782669449	-0.121271671494	-0.5009765625	-0.42333984375	0.69677734375	-25.25	-9.1875	16.3125
19	01	14	15	52	20	-0.857022465857	0.26659123564	-0.120905961036	-0.52734375	-0.41796875	0.73046875	-14.5625	-7.0	20.125
19	01	14	15	52	20	-0.855014350706	0.26763066085	-0.121211970912	-0.52685546875	-0.37939453125	0.7509765625	-6.5	-7.3125	19.0625
19	01	14	15	52	20	-0.853000613567	0.267935939722	-0.122188553832	-0.56103515625	-0.3818359375	0.7236328125	-0.4375	-8.625	21.5625
19	01	14	15	52	20	-0.850852585195	0.268359430249	-0.12456711329	-0.59375	-0.41650390625	0.7275390625	4.5625	-2.8125	23.375
19	01	14	15	52	20	-0.849518948157	0.268911594625	-0.125422906708	-0.48876953125	-0.423828125	0.76318359375	1.8125	-0.75	15.375
19	01	14	15	52	20	-0.848297381944	0.26848407678	-0.125666904772	-0.5068359375	-0.47705078125	0.78515625	7.625	-7.4375	18.9375
19	01	14	15	52	20	-0.847941811257	0.26775503678	-0.126400884698	-0.384765625	-0.31982421875	0.7119140625	5.5625	0.75	7.75
19	01	14	15	52	20	-0.847250323279	0.265795646008	-0.128595046186	-0.470703125	-0.37353515625	0.74658203125	16.375	-0.1875	16.4375
19	01	14	15	52	20	-0.846907091149	0.265802852548	-0.130368517346	-0.419921875	-0.34130859375	0.75146484375	5.875	8.375	5.0625
19	01	14	15	52	20	-0.846209464581	0.26609976672	-0.132256466624	-0.52734375	-0.42138671875	0.77099609375	8.125	4.0625	8.5625
19	01	14	15	52	20	-0.846288170466	0.265678090728	-0.133785061998	-0.55615234375	-0.51220703125	0.681640625	20.25	-3.5	4.5625
19	01	14	15	52	20	-0.846940555801	0.262986730197	-0.136589534041	-0.55810546875	-0.501953125	0.6044921875	36.625	-5.4375	5.5
19	01	14	15	52	20	-0.847568544377	0.259940550911	-0.140986774502	-0.53857421875	-0.34423828125	0.60498046875	34.0	2.8125	2.9375
19	01	14	15	52	20	-0.848188328578	0.255243836088	-0.146664499789	-0.6181640625	-0.34521484375	0.7822265625	41.3125	5.875	7.5
19	01	14	15	52	20	-0.849592344423	0.251398769158	-0.14989933893	-0.55224609375	-0.4345703125	0.8505859375	38.1875	3.25	-0.4375
19	01	14	15	52	20	-0.851305464723	0.247310707131	-0.154904880231	-0.51953125	-0.41796875	0.76953125	45.875	12.1875	-3.3125
19	01	14	15	52	20	-0.853431974322	0.241509713394	-0.161799911602	-0.58837890625	-0.37451171875	0.79052734375	58.5	14.625	-5.8125
19	01	14	15	52	21	-0.855862629206	0.234793092388	-0.16893872621	-0.54150390625	-0.26171875	0.79052734375	58.5	17.0625	-9.625
19	01	14	15	52	21	-0.858296735519	0.227406217489	-0.17699356702	-0.6337890625	-0.3525390625	0.70947265625	71.6875	12.0625	-6.8125
19	01	14	15	52	21	-0.862014159968	0.219287516055	-0.183034584094	-0.4716796875	-0.26513671875	0.81982421875	68.25	14.875	-19.9375
19	01	14	15	52	21	-0.865190003941	0.211048746729	-0.189016185257	-0.4765625	-0.13134765625	0.90380859375	58.625	16.5	-18.8125
19	01	14	15	52	21	-0.867684456719	0.2052488449	-0.193103581702	-0.53076171875	-0.19091796875	0.88671875	44.8125	8.75	-16.25
19	01	14	15	52	21	-0.869993166234	0.202194834075	-0.194443930384	-0.380859375	-0.14794921875	0.9033203125	22.0	11.25	-20.375
19	01	14	15	52	21	-0.871894774244	0.199084471062	-0.194201957976	-0.302734375	-0.15625	1.0595703125	14.8125	11.375	-11.875
19	01	14	15	52	21	-0.873555925879	0.198294082525	-0.192068783535	-0.32763671875	-0.16796875	1.14892578125	-2.0625	8.6875	-15.0625
19	01	14	15	52	21	-0.874681181231	0.198361163841	-0.188473622751	-0.259765625	-0.1328125	1.25537109375	-16.0	9.6875	-9.75
19	01	14	15	52	21	-0.875463089282	0.198968883928	-0.183100199934	-0.19580078125	-0.087890625	1.27099609375	-28.0	4.4375	-6.1875
19	01	14	15	52	21	-0.875628463505	0.201162014059	-0.177298437756	-0.21337890625	-0.04736328125	1.22265625	-40.625	2.1875	-5.125
19	01	14	15	52	21	-0.875889670531	0.203241070509	-0.171015459329	-0.2294921875	0.009765625	1.21484375	-45.125	-2.25	-8.8125
19	01	14	15	52	21	-0.875700786877	0.206474474631	-0.165582397184	-0.2783203125	-0.03173828125	1.0341796875	-44.6875	-4.375	-7.1875
19	01	14	15	52	21	-0.874776805722	0.211232995507	-0.16020994314	-0.365234375	-0.04150390625	1.0615234375	-54.25	-5.625	-5.4375
19	01	14	15	52	21	-0.873573530278	0.218683292041	-0.151241193882	-0.2021484375	-0.0712890625	1.0537109375	-76.75	-8.1875	-6.0625
19	01	14	15	52	21	-0.8694022371	0.233874999829	-0.140984146557	-0.23681640625	-0.1630859375	1.0419921875	-111.625	-13.3125	4.3125
19	01	14	15	52	21	-0.862685685691	0.255113276702	-0.127739734004	-0.31982421875	-0.17822265625	1.02978515625	-154.3125	-15.125	9.25
19	01	14	15	52	21	-0.853844368312	0.279833911988	-0.113459376747	-0.5166015625	-0.22900390625	0.8583984375	-176.5	-15.4375	12.1875
19	01	14	15	52	21	-0.844622819878	0.303695581452	-0.100153627243	-0.41162109375	-0.13232421875	0.77392578125	-171.1875	-9.625	9.5625
19	01	14	15	52	21	-0.836139197046	0.325178805975	-0.0888016446497	-0.57080078125	-0.17529296875	0.55712890625	-151.0625	-6.6875	1.75
19	01	14	15	52	21	-0.828817046521	0.343000869032	-0.0787925483843	-0.64599609375	-0.31298828125	0.47412109375	-124.9375	-9.25	-1.875
19	01	14	15	52	21	-0.822848349036	0.358264338291	-0.0709815034809	-0.58056640625	-0.44287109375	0.40478515625	-102.125	-1.375	-7.375
19	01	14	15	52	21	-0.81802409778	0.369798403973	-0.0682958267116	-0.671875	-0.673828125	0.40576171875	-52.375	-3.3125	-4.0625
19	01	14	15	52	21	-0.815978435472	0.376098370811	-0.0683593273789	-0.72216796875	-0.78662109375	0.2880859375	-5.375	-7.0625	-8.5
19	01	14	15	52	21	-0.817652609834	0.373885189807	-0.0702484253131	-0.6181640625	-0.7666015625	0.30859375	45.625	-15.375	-6.75
19	01	14	15	52	21	-0.819968549778	0.36991658952	-0.0742762728009	-0.6015625	-0.72314453125	0.26708984375	59.9375	-10.25	-4.125
19	01	14	15	52	21	-0.82098353959	0.367187344746	-0.077819791315	-0.60986328125	-0.60595703125	0.46435546875	37.1875	-6.3125	1.0625
19	01	14	15	52	21	-0.820666454631	0.366998913558	-0.0790393469245	-0.53466796875	-0.61572265625	0.587890625	11.8125	-4.125	4.9375
19	01	14	15	52	21	-0.819788156988	0.367537543283	-0.0803797649459	-0.5869140625	-0.73828125	0.62841796875	12.0625	-4.125	10.6875
19	01	14	15	52	21	-0.820587110155	0.365342836846	-0.0825164576371	-0.5732421875	-0.74658203125	0.69873046875	29.1875	-2.25	5.5
19	01	14	15	52	21	-0.822711807148	0.36143170044	-0.0870927113353	-0.40380859375	-0.4921875	0.68408203125	35.0	15.3125	-0.4375
19	01	14	15	52	21	-0.823626333519	0.357525236143	-0.09343993454	-0.58349609375	-0.4970703125	0.650390625	38.0625	10.875	8.625
19	01	14	15	52	21	-0.82605015242	0.352600246086	-0.0964966226523	-0.3935546875	-0.51953125	0.74658203125	36.875	7.625	0.125
19	01	14	15	52	21	-0.827428310159	0.348622151481	-0.10125422782	-0.52978515625	-0.5595703125	0.72802734375	37.375	9.3125	5.9375
19	01	14	15	52	21	-0.829129604302	0.344407681787	-0.10406080054	-0.458984375	-0.52294921875	0.765625	31.625	4.5625	2.875
19	01	14	15	52	21	-0.831282548571	0.339043653253	-0.106443227952	-0.3046875	-0.38671875	0.91015625	25.875	11.375	2.8125
19	01	14	15	52	21	-0.832313859842	0.334768755682	-0.109433068175	-0.419921875	-0.4208984375	0.90966796875	22.0	9.875	9.25
19	01	14	15	52	21	-0.834111081666	0.329506528859	-0.110588225651	-0.3662109375	-0.40185546875	0.97802734375	21.0	3.4375	3.875
19	01	14	15	52	21	-0.836211532842	0.323962544072	-0.114070458717	-0.44873046875	-0.4658203125	0.826171875	38.5625	6.375	2.75
19	01	14	15	52	21	-0.838235278864	0.318290154309	-0.116513116889	-0.39599609375	-0.28125	0.88134765625	25.75	4.5625	-1.5625
19	01	14	15	52	21	-0.839582377554	0.314141501692	-0.117612332186	-0.40087890625	-0.30029296875	0.77294921875	17.8125	-2.4375	-0.125
19	01	14	15	52	21	-0.840116736087	0.31169460016	-0.117671272588	-0.45458984375	-0.4052734375	0.8359375	9.875	-5.0625	3.5625
19	01	14	15	52	21	-0.840918709586	0.309378497525	-0.118038669207	-0.47265625	-0.3740234375	0.82421875	9.625	-3.5	-1.6875
19	01	14	15	52	21	-0.841405051065	0.306204057826	-0.117977365712	-0.53759765625	-0.5	0.826171875	18.3125	-13.625	8.25
19	01	14	15	52	21	-0.842382835873	0.303641110598	-0.115597238889	-0.376953125	-0.38818359375	0.970703125	1.375	-9.375	-0.9375
19	01	14	15	52	21	-0.842490158865	0.300889342452	-0.114984892734	-0.3984375	-0.31884765625	0.98486328125	0.125	-3.8125	8.1875
19	01	14	15	52	21	-0.842530720264	0.300293476072	-0.113403511899	-0.32666015625	-0.3056640625	0.93310546875	-11.25	1.0625	1.625
19	01	14	15	52	21	-0.84176080933	0.301317656298	-0.113215364074	-0.45947265625	-0.43701171875	0.84375	-7.3125	1.875	5.6875
19	01	14	15	52	21	-0.841383641566	0.303816028414	-0.111688094013	-0.38671875	-0.45654296875	0.771484375	-13.1875	3.1875	-3.125
19	01	14	15	52	21	-0.840368694904	0.306387598839	-0.110836629381	-0.38720703125	-0.390625	0.73291015625	-16.8125	3.9375	1.875
19	01	14	15	52	21	-0.839206267395	0.309438238232	-0.109737663184	-0.40673828125	-0.38916015625	0.73828125	-20.25	3.625	1.1875
19	01	14	15	52	21	-0.837613364044	0.313647265944	-0.108760347911	-0.46435546875	-0.42431640625	0.71728515625	-24.1875	3.6875	0.4375
19	01	14	15	52	21	-0.83589356026	0.317976449252	-0.10674487711	-0.49609375	-0.5380859375	0.74755859375	-23.0625	-2.4375	3.125
19	01	14	15	52	21	-0.83498537613	0.321091883914	-0.104487607919	-0.38525390625	-0.4453125	0.6943359375	-20.0	-1.125	-1.625
19	01	14	15	52	21	-0.833656887234	0.322745268299	-0.10412318981	-0.50830078125	-0.47314453125	0.6162109375	-5.75	-7.1875	7.5625
19	01	14	15	52	21	-0.833240919801	0.322871701271	-0.103453219972	-0.48681640625	-0.51513671875	0.65771484375	3.6875	-9.625	4.75
19	01	14	15	52	21	-0.83254834726	0.323473809873	-0.104610209457	-0.55224609375	-0.47802734375	0.55419921875	6.4375	-5.75	4.4375
19	01	14	15	52	21	-0.831242286175	0.324098431573	-0.104797929757	-0.59228515625	-0.48681640625	0.75244140625	-3.3125	-8.1875	9.75
19	01	14	15	52	21	-0.830606631283	0.32475992983	-0.104001300588	-0.4892578125	-0.51513671875	0.74658203125	-2.5625	-5.5625	5.0625
19	01	14	15	52	21	-0.82985501403	0.324081056446	-0.103876828262	-0.537109375	-0.5595703125	0.8720703125	3.1875	-6.5	12.8125
19	01	14	15	52	21	-0.830102267433	0.322495432771	-0.104487543699	-0.44140625	-0.45947265625	0.79736328125	9.0625	-0.5625	4.8125
19	01	14	15	52	22	-0.829796357203	0.321030364731	-0.106745647893	-0.4609375	-0.345703125	0.76171875	6.6875	5.0625	8.125
19	01	14	15	52	22	-0.829084705195	0.321282530046	-0.107907962219	-0.501953125	-0.42138671875	0.72021484375	0.75	1.25	6.125
19	01	14	15	52	22	-0.828385732728	0.321699049378	-0.108819845388	-0.5283203125	-0.50341796875	0.73974609375	2.875	0.0625	7.4375
19	01	14	15	52	22	-0.828275969897	0.321703827082	-0.109859018924	-0.4384765625	-0.365234375	0.72705078125	-0.125	5.375	0.5
19	01	14	15	52	22	-0.827411007107	0.321699743192	-0.111932712771	-0.54736328125	-0.45166015625	0.6494140625	7.75	0.4375	9.4375
19	01	14	15	52	22	-0.827321659011	0.321285224126	-0.113218862225	-0.5673828125	-0.5625	0.6943359375	14.375	-2.5625	5.1875
19	01	14	15	52	22	-0.828533520341	0.31847424745	-0.115659007075	-0.52734375	-0.48974609375	0.6669921875	28.75	-1.0	-0.375
19	01	14	15	52	22	-0.829260907438	0.315359616452	-0.117794476437	-0.50634765625	-0.4013671875	0.689453125	22.875	-3.5	3.9375
19	01	14	15	52	22	-0.829913438677	0.312117761832	-0.119317603516	-0.509765625	-0.4248046875	0.71728515625	22.375	-6.5625	6.0625
19	01	14	15	52	22	-0.831126296145	0.308086763324	-0.121574649869	-0.462890625	-0.34521484375	0.7578125	24.5	-0.1875	1.5
19	01	14	15	52	22	-0.832134079201	0.303948050053	-0.125424345956	-0.60107421875	-0.43896484375	0.72900390625	35.4375	-1.375	4.8125
19	01	14	15	52	22	-0.833580194527	0.300706517677	-0.127984892951	-0.576171875	-0.474609375	0.8330078125	28.9375	1.25	-2.5
19	01	14	15	52	22	-0.835553725949	0.297357030886	-0.128415269496	-0.37646484375	-0.41650390625	0.92138671875	19.75	5.0	-5.5625
19	01	14	15	52	22	-0.836525238442	0.295280103866	-0.129207933006	-0.3955078125	-0.36767578125	0.8974609375	10.6875	7.0625	-1.125
19	01	14	15	52	22	-0.83698296317	0.29349942175	-0.129935593451	-0.54296875	-0.44189453125	0.90283203125	11.8125	-1.5	2.4375
19	01	14	15	52	22	-0.838235942398	0.291435606884	-0.129147171553	-0.4130859375	-0.36767578125	0.89111328125	7.625	-2.0	-5.125
19	01	14	15	52	22	-0.838539084891	0.289970099157	-0.128597558182	-0.3193359375	-0.18017578125	0.9130859375	-7.875	5.0	-0.5625
19	01	14	15	52	22	-0.83784994226	0.290635301941	-0.127191089719	-0.37109375	-0.23681640625	0.9052734375	-19.5625	2.5625	3.25
19	01	14	15	52	22	-0.83748228759	0.29155027604	-0.12450545596	-0.3974609375	-0.3466796875	0.95361328125	-18.4375	-2.6875	0.6875
19	01	14	15	52	22	-0.838041678036	0.290699330893	-0.122920103384	-0.3330078125	-0.32958984375	0.87255859375	-3.5625	-0.3125	-1.8125
19	01	14	15	52	22	-0.83846552996	0.289477508269	-0.122919608192	-0.37158203125	-0.25537109375	0.7548828125	0.8125	0.0625	-1.8125
19	01	14	15	52	22	-0.837850234067	0.289719919953	-0.122125460254	-0.4970703125	-0.34130859375	0.80810546875	-7.4375	-6.25	3.75
19	01	14	15	52	22	-0.837985801951	0.290579053393	-0.12157812946	-0.423828125	-0.41552734375	0.6923828125	0.3125	-0.875	-2.75
19	01	14	15	52	22	-0.837579060582	0.292112029727	-0.122008346725	-0.54248046875	-0.4189453125	0.71337890625	-2.4375	-0.5625	-2.0
19	01	14	15	52	22	-0.837234516695	0.292769644014	-0.121087132317	-0.501953125	-0.44970703125	0.77001953125	-1.6875	-6.25	2.1875
19	01	14	15	52	22	-0.837188823016	0.294056699664	-0.120723153162	-0.45556640625	-0.4794921875	0.69873046875	1.1875	-0.125	-1.1875
19	01	14	15	52	22	-0.836877945729	0.294970180259	-0.12066129658	-0.53271484375	-0.4736328125	0.77783203125	0.1875	-2.25	1.125
19	01	14	15	52	22	-0.835783186541	0.297595941111	-0.119990488151	-0.50927734375	-0.45703125	0.73388671875	-11.125	-1.0625	2.875
19	01	14	15	52	22	-0.834248935677	0.301071768212	-0.119745146814	-0.53515625	-0.43310546875	0.69482421875	-15.5625	1.0	3.5
19	01	14	15	52	22	-0.833205870295	0.303083823021	-0.119439194856	-0.4716796875	-0.3994140625	0.78076171875	-12.6875	2.875	3.75
19	01	14	15	52	22	-0.832143169507	0.305294127466	-0.120909169634	-0.5244140625	-0.45068359375	0.66064453125	-2.375	6.4375	4.4375
19	01	14	15	52	22	-0.831389978426	0.306201991026	-0.122248871442	-0.5546875	-0.5126953125	0.7802734375	3.625	3.9375	7.125
19	01	14	15	52	22	-0.832265187174	0.305965487189	-0.122862263258	-0.33349609375	-0.3447265625	0.771484375	2.8125	12.1875	-6.4375
19	01	14	15	52	22	-0.831718904565	0.305600392981	-0.124571680063	-0.50927734375	-0.4677734375	0.8037109375	7.6875	5.375	9.9375
19	01	14	15	52	22	-0.832087544075	0.305845425318	-0.124999287777	-0.45654296875	-0.46240234375	0.8232421875	3.5	6.75	-2.3125
19	01	14	15	52	22	-0.832092176202	0.306251909944	-0.125601122094	-0.37451171875	-0.328125	0.791015625	-4.25	11.0	-0.875
19	01	14	15	52	22	-0.83158795071	0.306939875532	-0.126523436464	-0.45361328125	-0.37255859375	0.759765625	-2.8125	7.3125	3.4375
19	01	14	15	52	22	-0.830906774354	0.308523119168	-0.126521943825	-0.54248046875	-0.498046875	0.73388671875	-2.375	-0.6875	3.25
19	01	14	15	52	22	-0.831695328742	0.307972013564	-0.125910872767	-0.3779296875	-0.47265625	0.7666015625	7.4375	2.125	-1.8125
19	01	14	15	52	22	-0.832049017078	0.30705190383	-0.127556843372	-0.49609375	-0.40966796875	0.73193359375	11.625	3.9375	0.3125
19	01	14	15	52	22	-0.833235331138	0.304010048667	-0.128110237332	-0.4541015625	-0.392578125	0.861328125	15.6875	-1.0625	-0.25
19	01	14	15	52	22	-0.83419146913	0.30119512	-0.131280790906	-0.5615234375	-0.42626953125	0.7470703125	27.0625	3.0	0.3125
19	01	14	15	52	22	-0.835276787924	0.29844392028	-0.135550909395	-0.6005859375	-0.42919921875	0.7890625	29.375	9.25	-1.4375
19	01	14	15	52	22	-0.835191505055	0.298457063703	-0.137754108953	-0.55615234375	-0.35888671875	0.8173828125	3.875	9.4375	-1.0625
19	01	14	15	52	22	-0.834038444212	0.300961841816	-0.139464167217	-0.666015625	-0.5517578125	0.63720703125	3.625	1.0625	5.25
19	01	14	15	52	22	-0.834017681017	0.302297078235	-0.140009993432	-0.509765625	-0.4970703125	0.65576171875	5.25	3.0625	-1.375
19	01	14	15	52	22	-0.833858387571	0.302366743671	-0.145079884882	-0.55029296875	-0.28271484375	0.64697265625	11.5625	19.9375	-2.125
19	01	14	15	52	22	-0.833593605541	0.302237189533	-0.149775860887	-0.63232421875	-0.33056640625	0.6728515625	13.0	14.0625	-0.375
19	01	14	15	52	22	-0.833956779918	0.30309055687	-0.151362179025	-0.61474609375	-0.6259765625	0.71484375	17.25	5.0625	-1.25
19	01	14	15	52	22	-0.836514107845	0.30223390209	-0.152764833791	-0.36181640625	-0.53662109375	0.75537109375	25.375	18.625	-16.0625
19	01	14	15	52	23	-0.838719796827	0.298208770724	-0.158076282476	-0.47216796875	-0.27490234375	0.77685546875	34.25	22.0	-11.25
19	01	14	15	52	23	-0.840622632862	0.295099864219	-0.161801394011	-0.48095703125	-0.36474609375	0.75146484375	30.8125	15.5	-8.875
19	01	14	15	52	23	-0.841722358181	0.296504040029	-0.163388496327	-0.5009765625	-0.43994140625	0.71533203125	8.1875	15.375	-15.8125
19	01	14	15	52	23	-0.842134584996	0.299001111168	-0.163934881526	-0.56103515625	-0.4521484375	0.66357421875	-0.25	7.1875	-13.875
19	01	14	15	52	23	-0.843233212039	0.299672486328	-0.163263523611	-0.5361328125	-0.4755859375	0.77734375	4.8125	1.3125	-12.75
19	01	14	15	52	23	-0.843993881772	0.300393223377	-0.163623370962	-0.509765625	-0.27880859375	0.81640625	-5.75	9.25	-15.625
19	01	14	15	52	23	-0.84468354675	0.299545292446	-0.163443825014	-0.583984375	-0.34423828125	0.892578125	0.8125	-1.0625	-7.0
19	01	14	15	52	23	-0.846148870629	0.299667553	-0.161307809079	-0.4140625	-0.3173828125	0.892578125	-7.5625	2.6875	-17.6875
19	01	14	15	52	23	-0.847578991878	0.297540691683	-0.160336286575	-0.49462890625	-0.451171875	0.8994140625	12.3125	-3.125	-4.8125
19	01	14	15	52	23	-0.849999189212	0.295641277558	-0.158501320771	-0.4033203125	-0.3916015625	0.8837890625	9.875	-0.9375	-17.8125
19	01	14	15	52	23	-0.851548450153	0.290827721114	-0.157651207479	-0.51123046875	-0.30517578125	0.96826171875	15.1875	-11.5625	-0.25
19	01	14	15	52	23	-0.853094963496	0.287945488466	-0.15746065287	-0.341796875	-0.265625	0.82275390625	10.9375	3.125	-6.125
19	01	14	15	52	23	-0.852891260214	0.287714999331	-0.157834320804	-0.634765625	-0.3984375	0.7890625	2.9375	-6.375	1.4375
19	01	14	15	52	23	-0.853779206229	0.287522613521	-0.154960712318	-0.44091796875	-0.396484375	0.83056640625	-3.0625	-9.75	-7.4375
19	01	14	15	52	23	-0.853898258469	0.287765727159	-0.154655005858	-0.51025390625	-0.35791015625	0.6689453125	0.8125	-5.375	-2.875
19	01	14	15	52	23	-0.853888613201	0.287396289012	-0.154287071272	-0.48974609375	-0.25537109375	0.771484375	-5.0625	-3.5625	-2.0625
19	01	14	15	52	23	-0.852809409951	0.289294825962	-0.154595737165	-0.55029296875	-0.26171875	0.6708984375	-14.0	-1.0625	0.4375
19	01	14	15	52	23	-0.852696422487	0.289786172355	-0.153803949944	-0.5048828125	-0.40380859375	0.76513671875	-2.3125	-4.125	0.375
19	01	14	15	52	23	-0.85283950763	0.290952975945	-0.15319739241	-0.52490234375	-0.48291015625	0.73193359375	1.3125	-2.125	-3.875
19	01	14	15	52	23	-0.853905069991	0.2897210612	-0.152703200995	-0.46533203125	-0.4287109375	0.802734375	10.5	-2.0625	-5.25
19	01	14	15	52	23	-0.854817059015	0.288682328227	-0.153923220251	-0.46337890625	-0.39990234375	0.71044921875	14.1875	4.6875	-5.1875
19	01	14	15	52	23	-0.854583611706	0.289479365114	-0.156244396941	-0.599609375	-0.4501953125	0.6748046875	9.4375	5.625	-1.0625
19	01	14	15	52	23	-0.854885697168	0.291065173827	-0.157281390847	-0.55517578125	-0.4892578125	0.6533203125	6.8125	4.625	-8.1875
19	01	14	15	52	23	-0.855072111148	0.291493533394	-0.158868858338	-0.70068359375	-0.63330078125	0.62255859375	21.25	-5.625	-0.9375
19	01	14	15	52	23	-0.856757480588	0.290386956307	-0.160817492616	-0.49853515625	-0.44140625	0.701171875	22.0	9.1875	-14.625
19	01	14	15	52	23	-0.857309631553	0.288068730756	-0.164540952991	-0.63427734375	-0.34814453125	0.802734375	20.0	8.3125	-1.9375
19	01	14	15	52	23	-0.8590470679	0.285575931134	-0.1650346907	-0.42724609375	-0.3662109375	0.89990234375	15.5625	7.3125	-9.25
19	01	14	15	52	23	-0.860421261097	0.283246919616	-0.16753130669	-0.521484375	-0.47021484375	0.779296875	28.0	8.625	-4.875
19	01	14	15	52	23	-0.863183229712	0.278003225011	-0.169975627147	-0.43017578125	-0.34619140625	0.80517578125	38.3125	8.0	-12.1875
19	01	14	15	52	23	-0.865521485112	0.273187657243	-0.173153124128	-0.35888671875	-0.21923828125	0.751953125	31.875	14.875	-12.0625
19	01	14	15	52	23	-0.866260771559	0.271175692809	-0.175290702171	-0.54052734375	-0.26904296875	0.7587890625	14.0625	4.5	-5.5
19	01	14	15	52	23	-0.867603645602	0.270748489053	-0.174070038498	-0.43603515625	-0.42333984375	0.7998046875	8.375	-0.5625	-10.5625
19	01	14	15	52	23	-0.868094711397	0.271603843473	-0.174131632681	-0.6376953125	-0.52197265625	0.80078125	8.0	-2.4375	-7.3125
19	01	14	15	52	23	-0.869933023334	0.270122320842	-0.172045825227	-0.4091796875	-0.37939453125	1.02294921875	4.625	1.1875	-13.3125
19	01	14	15	52	23	-0.870625749129	0.27031205348	-0.170341147271	-0.36376953125	-0.2177734375	1.0673828125	-16.375	9.875	-10.125
19	01	14	15	52	23	-0.869791282626	0.271661006173	-0.168941286247	-0.55810546875	-0.296875	1.05029296875	-21.3125	-0.0625	3.0
19	01	14	15	52	23	-0.870219405134	0.273187127043	-0.166011837703	-0.33203125	-0.22021484375	1.02734375	-25.6875	6.8125	-11.6875
19	01	14	15	52	23	-0.869153980872	0.275924804966	-0.166677868251	-0.54638671875	-0.26123046875	0.77001953125	-18.6875	6.1875	-2.8125
19	01	14	15	52	23	-0.868867797225	0.277212527044	-0.165460845622	-0.5244140625	-0.345703125	0.833984375	-11.6875	-3.375	-2.6875
19	01	14	15	52	23	-0.8692220451	0.279039684749	-0.164543086195	-0.43603515625	-0.33935546875	0.71923828125	-8.375	2.4375	-12.0
19	01	14	15	52	23	-0.869605110597	0.27898406517	-0.164119044244	-0.43115234375	-0.302734375	0.71044921875	-0.75	-0.75	-5.3125
19	01	14	15	52	23	-0.870285732968	0.27819358797	-0.164059755258	-0.46337890625	-0.31689453125	0.6884765625	6.0625	-3.0	-6.75
19	01	14	15	52	23	-0.870856523335	0.277448577692	-0.164540555534	-0.56298828125	-0.41455078125	0.6513671875	12.9375	-7.125	-4.5
19	01	14	15	52	23	-0.87191937146	0.27605287114	-0.164667399146	-0.52880859375	-0.4033203125	0.6572265625	16.0	-7.5	-7.6875
19	01	14	15	52	23	-0.872272691949	0.275743634357	-0.164420839079	-0.54833984375	-0.3525390625	0.6650390625	4.875	-9.3125	-5.0
19	01	14	15	52	23	-0.871985780358	0.276298707054	-0.161677772252	-0.59716796875	-0.4140625	0.73291015625	-5.9375	-22.875	1.9375
19	01	14	15	52	23	-0.872912275393	0.274471158051	-0.157773614312	-0.44384765625	-0.44189453125	0.826171875	5.25	-22.5625	1.25
19	01	14	15	52	23	-0.873531467669	0.272520821908	-0.157286933495	-0.4951171875	-0.2578125	0.77880859375	4.4375	-9.3125	-3.0625
19	01	14	15	52	23	-0.873503123942	0.270619958885	-0.156854599534	-0.5927734375	-0.34375	0.802734375	6.375	-15.375	5.875
19	01	14	15	52	24	-0.874184597075	0.268547945761	-0.155879875789	-0.5068359375	-0.41748046875	0.8408203125	12.0	-11.375	1.5
19	01	14	15	52	24	-0.875283427283	0.265191164601	-0.156917487731	-0.5029296875	-0.3505859375	0.78369140625	22.0	-4.5	-1.4375
19	01	14	15	52	24	-0.875373729479	0.262374096286	-0.158559642278	-0.6201171875	-0.3623046875	0.8525390625	16.875	-6.75	7.5
19	01	14	15	52	24	-0.87532834511	0.261097103638	-0.159172801844	-0.5224609375	-0.31005859375	0.8662109375	4.0625	-1.5625	3.8125
19	01	14	15	52	24	-0.874835526025	0.26115677521	-0.158622682583	-0.3759765625	-0.21875	0.96875	-13.875	6.5625	5.125
19	01	14	15	52	24	-0.874012479668	0.263241328548	-0.157651832052	-0.4375	-0.29833984375	0.89501953125	-19.3125	4.0	2.3125
19	01	14	15	52	24	-0.873522305808	0.264827647073	-0.15624770143	-0.3349609375	-0.19580078125	0.87451171875	-22.25	5.75	-1.1875
19	01	14	15	52	24	-0.872769231804	0.266164099293	-0.157464658605	-0.51806640625	-0.4404296875	0.65283203125	3.6875	1.5	5.9375
19	01	14	15	52	24	-0.872534934075	0.268364305059	-0.157649533766	-0.515625	-0.34033203125	0.6484375	-6.8125	0.375	-8.1875
19	01	14	15	52	24	-0.871987347631	0.270256875153	-0.156124003306	-0.408203125	-0.27587890625	0.6572265625	-14.9375	-4.9375	-1.125
19	01	14	15	52	24	-0.870871315395	0.274401670335	-0.153496485964	-0.5	-0.4580078125	0.6552734375	-19.5625	-10.75	0.625
19	01	14	15	52	24	-0.870646388506	0.277032173672	-0.151058521665	-0.5185546875	-0.48291015625	0.822265625	-12.5625	-7.5	-5.0
19	01	14	15	52	24	-0.87192940776	0.275995014832	-0.149349801259	-0.3291015625	-0.27294921875	0.9462890625	-4.25	3.125	-11.9375
19	01	14	15	52	24	-0.871420374906	0.277331151672	-0.149407275373	-0.48876953125	-0.3603515625	0.89404296875	-10.75	5.375	-0.0625
19	01	14	15	52	24	-0.870591649556	0.280085886134	-0.14983893015	-0.6728515625	-0.50732421875	0.8876953125	-8.9375	0.8125	-2.125
19	01	14	15	52	24	-0.871125069424	0.281179373281	-0.149286899727	-0.50146484375	-0.515625	0.85302734375	2.3125	2.375	-8.5625
19	01	14	15	52	24	-0.871301315528	0.282458846194	-0.150872572989	-0.4111328125	-0.2763671875	0.71728515625	-4.75	14.4375	-10.875
19	01	14	15	52	24	-0.869733726917	0.284906458754	-0.15331727172	-0.5390625	-0.28466796875	0.70703125	-13.375	11.375	4.4375
19	01	14	15	52	24	-0.868141317524	0.288322524183	-0.155208335944	-0.63671875	-0.52880859375	0.6201171875	-3.625	3.5	5.5
19	01	14	15	52	24	-0.868638028119	0.288569462967	-0.156491561558	-0.4755859375	-0.44775390625	0.6787109375	10.25	6.4375	-5.9375
19	01	14	15	52	24	-0.869212012945	0.286665413903	-0.159414532918	-0.47412109375	-0.35888671875	0.62353515625	20.6875	7.125	-0.625
19	01	14	15	52	24	-0.868361075188	0.286666570857	-0.162039545588	-0.6982421875	-0.52197265625	0.64794921875	14.8125	-3.375	9.6875
19	01	14	15	52	24	-0.869701678155	0.284163579894	-0.162466376649	-0.4091796875	-0.3837890625	0.8544921875	15.6875	4.875	-4.0625
19	01	14	15	52	24	-0.870656027637	0.282162132195	-0.164121560345	-0.38232421875	-0.29150390625	0.78271484375	12.0	11.25	-4.5625
19	01	14	15	52	24	-0.870900577348	0.281307783376	-0.164426810244	-0.4208984375	-0.3134765625	0.88623046875	-0.4375	7.25	0.5
19	01	14	15	52	24	-0.871317886299	0.280816306729	-0.16497423975	-0.564453125	-0.57177734375	0.7861328125	16.375	-1.4375	1.3125
19	01	14	15	52	24	-0.873032823548	0.279902721532	-0.165158474589	-0.36962890625	-0.416015625	0.767578125	14.1875	8.9375	-15.0625
19	01	14	15	52	24	-0.873498643475	0.279712428944	-0.166252816156	-0.47607421875	-0.3232421875	0.82275390625	1.9375	9.1875	-7.6875
19	01	14	15	52	24	-0.873494742238	0.281725246658	-0.16539762098	-0.443359375	-0.3359375	0.8564453125	-14.6875	6.875	-9.0
19	01	14	15	52	24	-0.873267057959	0.283927757452	-0.164546267001	-0.576171875	-0.4619140625	0.85400390625	-9.5	-0.6875	-6.1875
19	01	14	15	52	24	-0.874982625065	0.283136467472	-0.163570970646	-0.322265625	-0.30126953125	0.837890625	2.0	8.125	-18.25
19	01	14	15	52	24	-0.874247299739	0.284600332218	-0.166011774315	-0.6875	-0.353515625	0.6875	-1.875	2.6875	-4.625
19	01	14	15	52	24	-0.87522063472	0.284355156008	-0.165095663662	-0.4482421875	-0.3369140625	0.86865234375	-2.4375	2.3125	-12.375
19	01	14	15	52	24	-0.875714972046	0.285333669802	-0.165096807875	-0.44189453125	-0.36181640625	0.728515625	-1.875	5.25	-11.5
19	01	14	15	52	24	-0.875898786799	0.285150800078	-0.166256588059	-0.5322265625	-0.3447265625	0.7490234375	3.1875	3.4375	-5.0625
19	01	14	15	52	24	-0.876164283229	0.285707071389	-0.166077534982	-0.54931640625	-0.4853515625	0.712890625	5.375	-3.875	-4.5625
19	01	14	15	52	24	-0.876374514486	0.286184281526	-0.16662040703	-0.57666015625	-0.54150390625	0.65185546875	12.1875	-3.875	-3.0
19	01	14	15	52	24	-0.876584794734	0.286071085707	-0.167602133849	-0.607421875	-0.47119140625	0.71630859375	10.25	-2.25	-3.0625
19	01	14	15	52	24	-0.876703311396	0.285825787195	-0.16778455883	-0.52294921875	-0.365234375	0.802734375	0.25	-0.5	-2.3125
19	01	14	15	52	24	-0.876729993078	0.285021167259	-0.167900049492	-0.5390625	-0.44873046875	0.80078125	6.9375	-3.875	4.8125
19	01	14	15	52	24	-0.877579374511	0.282089983239	-0.169424879591	-0.53857421875	-0.40625	0.8212890625	20.125	0.8125	0.75
19	01	14	15	52	24	-0.878765726274	0.278497569731	-0.171566221458	-0.4794921875	-0.35009765625	0.85693359375	22.4375	7.4375	-1.5
19	01	14	15	52	24	-0.879798010852	0.27599352099	-0.171931390674	-0.40283203125	-0.302734375	0.93115234375	8.5625	7.1875	-2.8125
19	01	14	15	52	24	-0.87982998865	0.275679249357	-0.17192571296	-0.5322265625	-0.47265625	0.8974609375	4.3125	0.8125	3.75
19	01	14	15	52	24	-0.88100470876	0.275012623323	-0.17076904573	-0.3310546875	-0.34326171875	0.93212890625	-0.25	8.5	-9.5625
19	01	14	15	52	24	-0.881156753083	0.275083014902	-0.171202098247	-0.4375	-0.2685546875	0.76416015625	-3.0625	5.375	-5.1875
19	01	14	15	52	24	-0.881327179172	0.27446872055	-0.171565837995	-0.515625	-0.39404296875	0.7705078125	5.875	-1.375	0.5625
19	01	14	15	52	24	-0.881951295511	0.275693702548	-0.171629553147	-0.4501953125	-0.33642578125	0.69287109375	-1.625	5.0625	-15.625
19	01	14	15	52	24	-0.881710790366	0.276530185585	-0.172411779801	-0.5537109375	-0.2978515625	0.68603515625	-4.0625	-0.1875	-5.625
19	01	14	15	52	24	-0.881858867031	0.27769796145	-0.171806540985	-0.43505859375	-0.3046875	0.7861328125	-9.75	3.5625	-8.4375
19	01	14	15	52	24	-0.881549673649	0.279649723391	-0.171195433023	-0.572265625	-0.458984375	0.7236328125	-5.0	-4.625	-4.0625
19	01	14	15	52	25	-0.882446921882	0.278869828889	-0.170227172854	-0.51904296875	-0.50390625	0.72021484375	13.3125	-9.1875	-5.25
19	01	14	15	52	25	-0.88329090647	0.277157546039	-0.170713423535	-0.564453125	-0.44287109375	0.6455078125	19.4375	-9.25	-4.3125
19	01	14	15	52	25	-0.884275273359	0.275084805151	-0.170409757262	-0.42822265625	-0.2763671875	0.7568359375	7.625	-3.25	-5.5
19	01	14	15	52	25	-0.884227795065	0.274032495848	-0.168996877729	-0.5322265625	-0.4111328125	0.87548828125	0.9375	-11.8125	7.5
19	01	14	15	52	25	-0.88534823931	0.271475869878	-0.167231088909	-0.40673828125	-0.3193359375	0.92578125	5.25	-6.4375	-2.0625
19	01	14	15	52	25	-0.886409367312	0.267393750478	-0.166808290358	-0.45751953125	-0.32861328125	0.91845703125	15.9375	-7.1875	3.875
19	01	14	15	52	25	-0.887340522687	0.263840228322	-0.166433565264	-0.46142578125	-0.283203125	0.92041015625	11.3125	-6.0	1.5
19	01	14	15	52	25	-0.887907021607	0.261770223788	-0.164788902828	-0.380859375	-0.25439453125	0.92333984375	-1.1875	-5.25	2.1875
19	01	14	15	52	25	-0.887992016462	0.260861769081	-0.162962312458	-0.37060546875	-0.21875	0.86572265625	-9.1875	-5.8125	2.8125
19	01	14	15	52	25	-0.887236783102	0.261221258284	-0.161371263295	-0.44091796875	-0.31494140625	0.8203125	-10.6875	-8.625	10.25
19	01	14	15	52	25	-0.887072210224	0.261287748175	-0.159665673727	-0.3603515625	-0.24462890625	0.78076171875	-10.625	-5.0625	2.5625
19	01	14	15	52	25	-0.886154233433	0.261225987953	-0.159299025364	-0.45947265625	-0.27099609375	0.70068359375	-5.9375	-8.4375	12.0
19	01	14	15	52	25	-0.884775165906	0.262618992819	-0.159353518534	-0.58251953125	-0.4052734375	0.71142578125	-5.8125	-9.375	12.6875
19	01	14	15	52	25	-0.884012750917	0.264031977387	-0.158260498697	-0.53662109375	-0.46044921875	0.70703125	-3.0625	-11.625	7.0625
19	01	14	15	52	25	-0.883091772487	0.265312041952	-0.1559402501	-0.525390625	-0.4814453125	0.7978515625	-7.6875	-15.625	11.5
19	01	14	15	52	25	-0.882621564143	0.265134366547	-0.153868263827	-0.48876953125	-0.43212890625	0.8310546875	-2.375	-15.0	11.0
19	01	14	15	52	25	-0.882189086696	0.264461416401	-0.152829768444	-0.41796875	-0.2978515625	0.84326171875	-5.25	-6.0	8.9375
19	01	14	15	52	25	-0.881471094976	0.263531966219	-0.153309934957	-0.537109375	-0.28271484375	0.81103515625	-1.4375	-6.8125	10.1875
19	01	14	15	52	25	-0.880771622008	0.264030076696	-0.153132561819	-0.5322265625	-0.36376953125	0.80224609375	-4.25	-5.5625	6.3125
19	01	14	15	52	25	-0.880269706582	0.265185597663	-0.153313284541	-0.4736328125	-0.41845703125	0.751953125	-1.625	0.6875	3.4375
19	01	14	15	52	25	-0.879653075444	0.266465366502	-0.154776951317	-0.48876953125	-0.39111328125	0.70849609375	0.1875	6.0	2.625
19	01	14	15	52	25	-0.879215438073	0.266724850009	-0.156189677614	-0.5009765625	-0.45556640625	0.73876953125	8.0	3.3125	6.6875
19	01	14	15	52	25	-0.879016338666	0.266842065869	-0.158384071576	-0.50732421875	-0.482421875	0.6005859375	16.5	3.5	3.9375
19	01	14	15	52	25	-0.878554860847	0.2676861146	-0.160514017647	-0.53564453125	-0.4462890625	0.63232421875	9.3125	4.3125	3.0625
19	01	14	15	52	25	-0.878068624949	0.269029436212	-0.16051438685	-0.45166015625	-0.4345703125	0.68359375	-0.1875	0.4375	3.875
19	01	14	15	52	25	-0.877304370916	0.270747334728	-0.159848347532	-0.46240234375	-0.45458984375	0.77587890625	-6.0	-0.5	6.5625
19	01	14	15	52	25	-0.87680392971	0.270804610617	-0.160151295528	-0.57177734375	-0.4775390625	0.7958984375	5.3125	-5.0625	8.5
19	01	14	15	52	25	-0.877117555171	0.26824380036	-0.16106834793	-0.55615234375	-0.42236328125	0.78369140625	19.0	-7.25	7.0625
19	01	14	15	52	25	-0.878138281045	0.263661201982	-0.16253004187	-0.50732421875	-0.27587890625	0.72998046875	25.5	-7.875	2.5
19	01	14	15	52	25	-0.87904153982	0.257859508834	-0.163260162398	-0.53466796875	-0.32470703125	0.74169921875	31.625	-17.5625	11.1875
19	01	14	15	52	25	-0.880463247862	0.251517332902	-0.164240024955	-0.4560546875	-0.24462890625	0.82763671875	30.9375	-9.0625	4.8125
19	01	14	15	52	25	-0.881320517945	0.246208238877	-0.165766379968	-0.5419921875	-0.3173828125	0.81396484375	30.8125	-9.9375	8.25
19	01	14	15	52	25	-0.882416188168	0.241874073434	-0.165643763639	-0.42041015625	-0.33349609375	0.91259765625	22.5	-5.5	5.1875
19	01	14	15	52	25	-0.883450158439	0.237173562397	-0.166253418417	-0.45458984375	-0.3212890625	0.98193359375	24.5625	-2.4375	6.0
19	01	14	15	52	25	-0.884357887993	0.233082317063	-0.166679185101	-0.5078125	-0.3291015625	0.98583984375	21.625	-5.1875	4.3125
19	01	14	15	52	25	-0.885345089763	0.228873851276	-0.166314998594	-0.34619140625	-0.2080078125	1.04833984375	13.0	1.6875	3.3125
19	01	14	15	52	25	-0.885739031405	0.225829273442	-0.166320208143	-0.3408203125	-0.09228515625	1.00732421875	0.75	4.25	3.25
19	01	14	15	52	25	-0.885627465774	0.223741319656	-0.165700404491	-0.298828125	-0.00390625	0.947265625	-10.625	3.125	4.9375
19	01	14	15	52	25	-0.884732759032	0.222647979094	-0.165887392318	-0.54931640625	-0.32421875	0.8662109375	5.125	-8.6875	16.9375
19	01	14	15	52	25	-0.885218255587	0.22154869469	-0.165459644987	-0.3662109375	-0.19677734375	0.83447265625	1.1875	0.625	-2.8125
19	01	14	15	52	25	-0.885151942467	0.219228144339	-0.167106530957	-0.47607421875	-0.2041015625	0.82958984375	11.375	0.8125	6.25
19	01	14	15	52	25	-0.885287494619	0.21813288561	-0.16698701036	-0.4228515625	-0.15087890625	0.94091796875	-3.1875	1.5625	-0.375
19	01	14	15	52	25	-0.884735253843	0.218681457955	-0.166864389073	-0.53076171875	-0.33935546875	0.8525390625	-0.25	-4.0625	6.875
19	01	14	15	52	25	-0.884742130337	0.219598660662	-0.165889149438	-0.509765625	-0.41357421875	0.79296875	3.4375	-7.8125	0.875
19	01	14	15	52	25	-0.884350703473	0.22117922356	-0.165762354081	-0.4755859375	-0.283203125	0.6884765625	-5.0625	-3.125	-0.125
19	01	14	15	52	25	-0.883097277651	0.224360052018	-0.165645587915	-0.51171875	-0.26416015625	0.72119140625	-17.0	-0.8125	3.8125
19	01	14	15	52	25	-0.881771193752	0.228697768602	-0.16564871737	-0.521484375	-0.30712890625	0.75341796875	-20.6875	3.8125	1.25
19	01	14	15	52	25	-0.881117675801	0.231860223756	-0.16588472971	-0.44140625	-0.3154296875	0.76953125	-12.8125	8.5	-2.3125
19	01	14	15	52	25	-0.880797744301	0.233947595725	-0.16723621505	-0.5400390625	-0.423828125	0.66455078125	4.4375	3.5	-2.1875
19	01	14	15	52	25	-0.880526371943	0.235710324284	-0.169489272537	-0.638671875	-0.46142578125	0.6142578125	11.4375	0.6875	-3.125
19	01	14	15	52	26	-0.881068596605	0.235952562654	-0.171440959259	-0.51171875	-0.50244140625	0.57470703125	23.5	2.5	-4.0
19	01	14	15	52	26	-0.881205098565	0.237116069257	-0.174251319878	-0.54638671875	-0.43603515625	0.533203125	17.0625	5.8125	-6.25
19	01	14	15	52	26	-0.880891219385	0.237968188483	-0.175714392061	-0.6630859375	-0.52685546875	0.63671875	16.3125	-6.5	3.75
19	01	14	15	52	26	-0.881313042712	0.238149826362	-0.176811903375	-0.53076171875	-0.3681640625	0.81201171875	8.6875	4.8125	-6.0625
19	01	14	15	52	26	-0.881828833568	0.236875533159	-0.178831567162	-0.42236328125	-0.267578125	0.91455078125	9.625	16.0625	-3.4375
19	01	14	15	52	26	-0.882235123203	0.235160977496	-0.180475216832	-0.50830078125	-0.330078125	1.11962890625	10.0625	14.125	0.875
19	01	14	15	52	26	-0.883981134377	0.231675806828	-0.180775484674	-0.39990234375	-0.39404296875	1.0859375	24.625	9.625	-4.6875
19	01	14	15	52	26	-0.886172484195	0.226486645237	-0.182849363819	-0.33740234375	-0.29248046875	1.01513671875	34.3125	16.5625	-8.625
19	01	14	15	52	26	-0.887783953729	0.221183077706	-0.188713597204	-0.50390625	-0.18310546875	0.8203125	40.875	21.125	-11.875
19	01	14	15	52	26	-0.888908907193	0.216536134756	-0.193710736109	-0.52978515625	-0.11865234375	0.818359375	30.9375	15.5625	-9.5
19	01	14	15	52	26	-0.890489307171	0.212948402517	-0.196041922867	-0.392578125	-0.140625	0.8515625	21.9375	13.8125	-13.6875
19	01	14	15	52	26	-0.891824948916	0.208918477973	-0.199824451324	-0.43798828125	-0.2431640625	0.701171875	36.0625	12.5	-8.1875
19	01	14	15	52	26	-0.894155660711	0.202695627933	-0.203794249223	-0.54248046875	-0.29638671875	0.6630859375	54.75	2.0625	-14.5
19	01	14	15	52	26	-0.897663823425	0.191092292028	-0.206533476915	-0.5478515625	-0.3388671875	0.71728515625	83.3125	-14.9375	-7.4375
19	01	14	15	52	26	-0.901513353016	0.17766605989	-0.210074399911	-0.38720703125	-0.3134765625	0.640625	96.8125	-7.75	-8.375
