18	12	03	12	34	56	0.832979932991	-0.0548117520206	0.436723926178	-0.81103515625	0.212890625	0.66162109375	34.8125	-13.625	-36.4375
18	12	03	12	34	56	0.836547734566	-0.0554849974988	0.433381168582	-0.69970703125	0.17724609375	0.68310546875	4.875	-15.9375	-32.125
18	12	03	12	34	56	0.840000491506	-0.056032586194	0.430925989684	-0.70751953125	0.04296875	0.5703125	13.5	-18.125	-29.0625
18	12	03	12	34	56	0.843190749894	-0.0537141928411	0.429225231885	-0.6923828125	0.22314453125	0.603515625	21.0	-16.6875	-30.9375
18	12	03	12	34	56	0.846127146863	-0.0512730344369	0.428862309469	-0.7705078125	0.19287109375	0.5029296875	26.9375	-18.375	-33.75
18	12	03	12	34	56	0.848485909091	-0.0515769076456	0.428485078902	-0.9697265625	0.13330078125	0.56201171875	14.3125	-18.1875	-29.3125
18	12	03	12	34	56	0.851581774069	-0.0507213628334	0.427621983166	-0.9033203125	0.0810546875	0.59326171875	24.75	-19.75	-32.6875
18	12	03	12	34	56	0.854084200524	-0.0493785548648	0.427011581996	-0.8671875	0.10888671875	0.673828125	24.0625	-12.0625	-26.9375
18	12	03	12	34	56	0.856346586352	-0.0487684192798	0.426281151752	-0.8193359375	0.150390625	0.6845703125	17.125	-8.5	-28.0625
18	12	03	12	34	56	0.858076145537	-0.0504786578716	0.425619929067	-0.87109375	0.080078125	0.65576171875	5.3125	-7.1875	-24.25
18	12	03	12	34	56	0.859466807855	-0.0510882549659	0.426040644757	-0.7626953125	0.134765625	0.580078125	10.5	-1.8125	-27.5
18	12	03	12	34	56	0.860333444857	-0.0515162417495	0.42696221687	-0.82080078125	0.1591796875	0.560546875	8.375	-1.75	-23.125
18	12	03	12	34	56	0.861774139056	-0.0512096113512	0.426583997299	-0.74658203125	0.19189453125	0.587890625	8.1875	-6.5	-23.5625
18	12	03	12	34	56	0.863459939839	-0.0501741885019	0.426236445631	-0.7744140625	0.11328125	0.58544921875	17.3125	-9.125	-22.0625
18	12	03	12	34	56	0.865655709521	-0.0482818831075	0.4253810915	-0.79443359375	0.05908203125	0.630859375	25.4375	-12.6875	-21.5625
18	12	03	12	34	56	0.86838717283	-0.0431538434801	0.424519068464	-0.748046875	-0.06103515625	0.7216796875	51.4375	-11.4375	-15.375
18	12	03	12	34	56	0.870164085191	-0.0331438761405	0.426597698611	-0.78466796875	-0.01904296875	0.66162109375	81.0	-6.1875	-9.4375
18	12	03	12	34	56	0.871120680521	-0.0219122985081	0.429395598898	-0.775390625	0.24853515625	0.5048828125	72.5625	-10.0	-13.4375
18	12	03	12	34	56	0.872100374415	-0.0188605134164	0.429824386662	-0.75634765625	0.26025390625	0.42138671875	19.375	-14.8125	-19.5625
18	12	03	12	34	56	0.873037390602	-0.0208142173107	0.429407679709	-0.81640625	0.18212890625	0.443359375	-5.9375	-14.375	-21.0625
18	12	03	12	34	56	0.874341845664	-0.0239871794308	0.429022606155	-0.9384765625	-0.0361328125	0.51318359375	1.8125	-14.4375	-20.6875
18	12	03	12	34	56	0.876214176109	-0.0227675296196	0.428554491847	-0.89453125	-0.00439453125	0.59619140625	28.0	-15.5625	-21.6875
18	12	03	12	34	56	0.877774043611	-0.0188604533395	0.428907461543	-0.9287109375	0.06884765625	0.66748046875	40.375	-11.5625	-20.0
18	12	03	12	34	57	0.879793017807	-0.0130620026232	0.428055254189	-0.609375	0.3076171875	0.65966796875	37.0625	-7.75	-29.5
18	12	03	12	34	57	0.881925592491	-0.0126957244957	0.426344401935	-0.6767578125	0.13720703125	0.56201171875	13.4375	-14.0625	-30.375
18	12	03	12	34	57	0.883918590013	-0.0112313390348	0.425081766511	-0.685546875	0.0791015625	0.537109375	22.9375	-14.625	-27.125
18	12	03	12	34	57	0.8863584269	-0.00537149931597	0.423860127842	-0.54296875	0.21337890625	0.4287109375	43.75	-19.8125	-36.5
18	12	03	12	34	57	0.888068198773	-0.00250263221869	0.422944844958	-0.89794921875	0.158203125	0.51904296875	26.5	-24.8125	-24.875
18	12	03	12	34	57	0.890920446235	0.000854541398143	0.419823981173	-0.82958984375	0.12841796875	0.64453125	31.3125	-30.1875	-28.375
18	12	03	12	34	57	0.894328700796	0.00488303958938	0.415729783041	-0.73095703125	0.08837890625	0.70068359375	38.9375	-30.0625	-31.1875
18	12	03	12	34	57	0.897341657821	0.00921696417461	0.412016610454	-0.75439453125	0.109375	0.7265625	38.375	-28.0	-28.1875
18	12	03	12	34	57	0.900372408246	0.014527058041	0.408222538563	-0.69580078125	0.15087890625	0.6923828125	42.8125	-29.0625	-31.375
18	12	03	12	34	57	0.903382471191	0.020020908821	0.403897419721	-0.75244140625	0.21875	0.72998046875	38.5	-32.875	-30.0625
18	12	03	12	34	57	0.90584213401	0.0252080588469	0.400277118445	-0.68359375	0.228515625	0.650390625	34.375	-29.0625	-26.5
18	12	03	12	34	57	0.908468370417	0.0277106046875	0.396371512866	-0.68603515625	0.16259765625	0.697265625	24.625	-27.5	-31.375
18	12	03	12	34	57	0.910695555767	0.0324725224979	0.39351570027	-0.6875	0.08740234375	0.59326171875	43.5625	-28.625	-30.375
18	12	03	12	34	57	0.912571289102	0.0373549347154	0.390883990061	-0.87451171875	0.05517578125	0.69091796875	44.1875	-31.0	-20.75
18	12	03	12	34	57	0.91475000703	0.0444954130329	0.387213854981	-0.7021484375	0.10302734375	0.66796875	54.375	-31.8125	-22.0625
18	12	03	12	34	57	0.915990251088	0.0501118142296	0.385329943035	-0.7685546875	0.07763671875	0.67529296875	46.5625	-22.375	-16.875
18	12	03	12	34	57	0.916983320008	0.0557893066955	0.383627781818	-0.74951171875	0.1650390625	0.677734375	41.5	-20.25	-16.6875
18	12	03	12	34	57	0.917751872026	0.0582292688157	0.382335576375	-0.78466796875	0.1201171875	0.69970703125	22.6875	-15.25	-10.5
18	12	03	12	34	57	0.918316314596	0.0619535433244	0.381365259794	-0.71923828125	0.146484375	0.67236328125	29.625	-12.625	-11.9375
18	12	03	12	34	57	0.918368191539	0.0652489430251	0.381605605045	-0.71142578125	0.10546875	0.58544921875	28.5625	-8.625	-11.0
18	12	03	12	34	57	0.918398529202	0.0686082644439	0.38192340803	-0.69970703125	0.11181640625	0.5830078125	30.1875	-8.0	-14.0625
18	12	03	12	34	57	0.918304369323	0.0715355746658	0.382581042666	-0.681640625	0.07666015625	0.54736328125	30.0625	-6.25	-14.5625
18	12	03	12	34	57	0.918065932504	0.0738554470002	0.383560023925	-0.74365234375	0.06640625	0.58447265625	27.0	-5.0625	-13.0625
18	12	03	12	34	57	0.91762491118	0.0762347687949	0.384958115925	-0.7939453125	0.07177734375	0.5966796875	28.0625	-4.125	-13.4375
18	12	03	12	34	57	0.916995257204	0.0782525407532	0.386806825861	-0.794921875	0.0576171875	0.60888671875	27.4375	-0.25	-14.0
18	12	03	12	34	57	0.916231213022	0.0805082252998	0.388868766782	-0.77587890625	0.08740234375	0.59423828125	27.75	1.625	-15.75
18	12	03	12	34	57	0.915152500399	0.081120367707	0.391868141971	-0.86376953125	0.05224609375	0.6044921875	20.1875	4.625	-15.4375
18	12	03	12	34	57	0.913795157048	0.0825229478544	0.395402112575	-0.83447265625	0.02685546875	0.59521484375	28.25	8.5625	-19.125
18	12	03	12	34	57	0.912143890846	0.0855134897668	0.399185027177	-0.7802734375	0.05859375	0.56005859375	35.9375	11.875	-20.0
18	12	03	12	34	57	0.910479967257	0.0888689972733	0.402657125695	-0.83203125	0.1064453125	0.62744140625	33.8125	12.1875	-14.0
18	12	03	12	34	57	0.908793828648	0.0940594593288	0.405719160388	-0.712890625	0.16455078125	0.6103515625	43.4375	14.6875	-21.0
18	12	03	12	34	57	0.906672298011	0.0985778754065	0.409693312525	-0.88037109375	0.12646484375	0.59326171875	41.1875	12.3125	-16.0625
18	12	03	12	34	57	0.904894787301	0.103521184436	0.412619815322	-0.8193359375	0.11083984375	0.62939453125	43.75	11.9375	-13.4375
18	12	03	12	34	57	0.902972660033	0.11102523108	0.415047592823	-0.75341796875	0.12646484375	0.58837890625	59.5625	9.875	-14.8125
18	12	03	12	34	57	0.901226759759	0.118291734535	0.416889859069	-0.82373046875	0.11669921875	0.634765625	58.4375	6.4375	-11.6875
18	12	03	12	34	57	0.900242467071	0.126835978478	0.416459038092	-0.767578125	0.15625	0.67236328125	64.625	-2.375	-9.875
18	12	03	12	34	57	0.899215861081	0.136847811604	0.415365458502	-0.80859375	0.23779296875	0.6787109375	68.25	-6.875	-6.875
18	12	03	12	34	57	0.898164167925	0.147344091157	0.413833031501	-0.7294921875	0.390625	0.6025390625	62.3125	-8.5	-11.6875
18	12	03	12	34	57	0.897586061614	0.154124774266	0.412321920857	-0.75244140625	0.36083984375	0.578125	44.0625	-12.625	-17.6875
18	12	03	12	34	57	0.897421977483	0.159305676476	0.410227376091	-0.77734375	0.248046875	0.59765625	44.1875	-18.0625	-21.5
18	12	03	12	34	57	0.896527760392	0.167000269093	0.408344956224	-0.88037109375	0.22705078125	0.587890625	63.0	-21.5625	-21.75
18	12	03	12	34	57	0.895224844576	0.175785610716	0.406504224782	-0.9384765625	0.2744140625	0.6416015625	68.75	-19.875	-21.8125
18	12	03	12	34	57	0.89425999662	0.183539677144	0.404129099558	-0.853515625	0.34716796875	0.6669921875	58.75	-17.4375	-22.625
18	12	03	12	34	57	0.893885114888	0.187993591933	0.401866821196	-0.783203125	0.30322265625	0.673828125	40.375	-14.4375	-23.0625
18	12	03	12	34	57	0.893330524575	0.192570224449	0.399667140948	-0.77099609375	0.3447265625	0.65966796875	40.625	-14.8125	-27.8125
18	12	03	12	34	57	0.89246401735	0.197633599246	0.397525519423	-0.6953125	0.3759765625	0.59130859375	43.0625	-15.0625	-35.0
18	12	03	12	34	57	0.891340543852	0.201242879756	0.396198826963	-0.69970703125	0.3095703125	0.5029296875	38.8125	-16.875	-41.5
18	12	03	12	34	57	0.890062716389	0.203074931932	0.395590211557	-0.8203125	0.19970703125	0.52392578125	37.25	-18.875	-44.375
18	12	03	12	34	57	0.888434822078	0.206788759082	0.39447336185	-0.76318359375	0.20361328125	0.486328125	46.375	-19.3125	-41.6875
18	12	03	12	34	57	0.886391289641	0.208688322496	0.394975763343	-0.97265625	-0.025390625	0.51611328125	46.4375	-18.25	-31.0
18	12	03	12	34	58	0.883523696884	0.215952113269	0.393633459151	-0.8759765625	0.0380859375	0.5126953125	76.625	-19.0625	-29.75
18	12	03	12	34	58	0.880469361019	0.223642269586	0.392594726521	-0.85205078125	0.0732421875	0.4619140625	72.3125	-16.4375	-22.625
18	12	03	12	34	58	0.878415113018	0.228469721911	0.391383344081	-0.853515625	0.1005859375	0.4951171875	51.5	-16.9375	-18.375
18	12	03	12	34	58	0.876536430957	0.232668816573	0.390141415408	-0.7744140625	0.103515625	0.5	47.1875	-13.5625	-18.4375
18	12	03	12	34	58	0.874515749667	0.236956106666	0.389189112855	-0.818359375	0.07080078125	0.52294921875	48.25	-11.625	-13.625
18	12	03	12	34	58	0.871804170359	0.243846367051	0.387956823272	-0.88720703125	0.11572265625	0.52783203125	61.1875	-11.25	-8.8125
18	12	03	12	34	58	0.869050462112	0.252755862032	0.385512201061	-0.85107421875	0.224609375	0.54736328125	67.3125	-11.25	-5.625
18	12	03	12	34	58	0.865817231591	0.261301626256	0.384048080449	-0.9326171875	0.16455078125	0.515625	67.4375	-10.5625	-3.0
18	12	03	12	34	58	0.86227880459	0.271556480613	0.381607353741	-0.89111328125	0.2353515625	0.51611328125	75.8125	-11.0	-3.0
18	12	03	12	34	58	0.858389992584	0.282243854491	0.379417776712	-0.82470703125	0.2490234375	0.4384765625	75.25	-8.8125	-2.5
18	12	03	12	34	58	0.854608252465	0.291949951542	0.37758779014	-0.8486328125	0.2001953125	0.42626953125	70.875	-8.5625	1.375
18	12	03	12	34	58	0.850489972978	0.302255371479	0.375316696127	-0.8388671875	0.20751953125	0.41552734375	76.3125	-9.9375	0.375
18	12	03	12	34	58	0.84620751816	0.312200768565	0.373053978	-1.0107421875	0.09228515625	0.4580078125	81.1875	-14.5625	8.4375
18	12	03	12	34	58	0.841420825287	0.32783977168	0.366538415368	-0.93701171875	0.26953125	0.47216796875	107.1875	-15.5625	10.125
18	12	03	12	34	58	0.83566408458	0.34492277715	0.360548371018	-0.84228515625	0.48486328125	0.34130859375	110.6875	-8.375	12.3125
18	12	03	12	34	58	0.830616111255	0.360373127635	0.354940673644	-0.7197265625	0.779296875	0.28515625	80.125	-11.8125	1.0
18	12	03	12	34	58	0.829003911579	0.367808685847	0.349680710458	-1.07763671875	0.61767578125	0.52001953125	44.875	-25.375	14.8125
18	12	03	12	34	58	0.830250282077	0.368735623734	0.343160350378	-0.5791015625	0.46630859375	0.70263671875	24.25	-23.3125	-6.75
18	12	03	12	34	58	0.828503689414	0.375799117115	0.333134900311	-0.48583984375	0.6298828125	0.67724609375	68.875	-35.5	-27.5
18	12	03	12	34	58	0.828242509959	0.377833380253	0.326865549475	-0.7802734375	0.4189453125	0.6025390625	35.375	-35.5625	-7.75
18	12	03	12	34	58	0.825726327624	0.384419308943	0.31910831171	-0.70947265625	0.50048828125	0.45556640625	60.5625	-41.625	-15.3125
18	12	03	12	34	58	0.823192342554	0.388921302495	0.313602895829	-0.81494140625	0.384765625	0.369140625	47.9375	-42.0625	-13.375
18	12	03	12	34	58	0.821680225536	0.391979676749	0.308786232431	-0.9150390625	0.3828125	0.33935546875	33.125	-42.8125	-2.1875
18	12	03	12	34	58	0.819261467356	0.396751567413	0.302996120098	-0.8212890625	0.423828125	0.3759765625	46.5625	-40.6875	-7.75
18	12	03	12	34	58	0.81774060908	0.399378726969	0.29762657385	-0.83935546875	0.458984375	0.45556640625	34.5	-39.6875	-10.4375
18	12	03	12	34	58	0.81686968212	0.400225248873	0.291760971422	-0.79541015625	0.4248046875	0.546875	31.0625	-42.3125	-14.6875
18	12	03	12	34	58	0.815575404895	0.402477489888	0.284493111975	-0.63134765625	0.56640625	0.59765625	38.375	-38.0625	-23.75
18	12	03	12	34	58	0.814870122055	0.402063632507	0.279070127194	-0.64111328125	0.56201171875	0.56787109375	19.9375	-37.1875	-30.125
18	12	03	12	34	58	0.812843242629	0.401630137156	0.275952864754	-0.7529296875	0.38916015625	0.46484375	23.0	-36.6875	-31.125
18	12	03	12	34	58	0.8084896396	0.4042448198	0.274481195023	-0.85302734375	0.32275390625	0.33642578125	38.125	-30.4375	-29.625
18	12	03	12	34	58	0.804461739288	0.407785195765	0.271917833727	-0.75927734375	0.31787109375	0.302734375	40.6875	-29.0	-22.0625
18	12	03	12	34	58	0.800742999323	0.410473105454	0.270088251544	-0.8154296875	0.25537109375	0.2900390625	35.875	-28.9375	-16.8125
18	12	03	12	34	58	0.797023536217	0.413099654857	0.268319456671	-0.87646484375	0.2578125	0.2744140625	34.5	-31.375	-14.625
18	12	03	12	34	58	0.793669235106	0.415054279683	0.266000963362	-0.9501953125	0.23876953125	0.33642578125	34.3125	-35.5	-11.0625
18	12	03	12	34	58	0.78919370046	0.41956051794	0.262149028884	-0.845703125	0.228515625	0.3974609375	55.25	-29.75	-10.75
18	12	03	12	34	58	0.782853454352	0.428048594681	0.256230999639	-0.9013671875	0.3408203125	0.435546875	80.5625	-28.625	-9.0
18	12	03	12	34	58	0.775798826986	0.438683412238	0.247816147723	-0.79248046875	0.41259765625	0.43359375	95.3125	-30.1875	-8.25
18	12	03	12	34	58	0.767663036728	0.449782055947	0.239997699007	-0.80615234375	0.44677734375	0.361328125	96.5625	-29.25	-14.3125
18	12	03	12	34	58	0.76005199168	0.458948837571	0.233594520732	-0.849609375	0.5390625	0.375	80.6875	-27.1875	-20.0625
18	12	03	12	34	58	0.753923522989	0.464488180857	0.229741591688	-0.853515625	0.4443359375	0.3662109375	57.625	-24.875	-20.5625
18	12	03	12	34	58	0.747409119398	0.470236002927	0.226633732979	-0.88671875	0.37841796875	0.396484375	60.9375	-19.125	-17.1875
18	12	03	12	34	58	0.740331056115	0.478172437431	0.22114101874	-0.84228515625	0.50146484375	0.41748046875	74.3125	-18.25	-14.75
18	12	03	12	34	58	0.734524241065	0.485125367125	0.213875098944	-0.791015625	0.60107421875	0.4501953125	68.625	-24.4375	-11.5625
18	12	03	12	34	58	0.729512981877	0.490675607539	0.206182634938	-0.76318359375	0.6279296875	0.47314453125	62.25	-28.875	-12.4375
18	12	03	12	34	58	0.726275662924	0.493115478675	0.198186156611	-0.72216796875	0.55126953125	0.53466796875	49.75	-36.75	-9.5
18	12	03	12	34	58	0.723095349994	0.495491521166	0.187930326887	-0.64599609375	0.5830078125	0.5673828125	56.6875	-44.625	-9.8125
18	12	03	12	34	58	0.718980521606	0.499361545739	0.177318822928	-0.6669921875	0.6669921875	0.53125	62.125	-42.8125	-10.875
18	12	03	12	34	58	0.716036924534	0.500877930503	0.168709066526	-0.80322265625	0.68896484375	0.515625	42.125	-46.1875	-9.375
18	12	03	12	34	58	0.71449905404	0.500381278406	0.160588331726	-0.70849609375	0.72998046875	0.48828125	25.9375	-48.1875	-12.4375
18	12	03	12	34	59	0.714476733919	0.496337331303	0.154052560773	-0.65234375	0.66552734375	0.494140625	4.875	-53.75	-18.1875
18	12	03	12	34	59	0.713980031085	0.490594246013	0.149229028552	-0.66259765625	0.533203125	0.501953125	0.0625	-56.5	-26.25
18	12	03	12	34	59	0.710629293066	0.486753294873	0.145629261638	-0.82861328125	0.3955078125	0.4189453125	14.5625	-58.375	-30.0625
18	12	03	12	34	59	0.70636423407	0.485354565741	0.141968651901	-0.8486328125	0.4296875	0.34375	21.75	-51.9375	-26.0625
18	12	03	12	34	59	0.701460674382	0.485870776895	0.136849532889	-0.736328125	0.57666015625	0.32763671875	29.25	-46.9375	-30.5625
18	12	03	12	34	59	0.696345109244	0.485409120327	0.134642590147	-0.7451171875	0.45849609375	0.2861328125	20.1875	-40.625	-35.25
18	12	03	12	34	59	0.689093315088	0.486027463954	0.133668233839	-0.8818359375	0.39697265625	0.2412109375	27.625	-41.5625	-42.25
18	12	03	12	34	59	0.68215927476	0.485861473433	0.133306715826	-0.875	0.35498046875	0.291015625	25.0	-38.5	-41.875
18	12	03	12	34	59	0.675856892117	0.484507541734	0.133181589325	-0.79833984375	0.32373046875	0.36328125	21.0625	-35.4375	-43.375
18	12	03	12	34	59	0.669249565817	0.482848455556	0.133483702731	-0.80810546875	0.26904296875	0.42529296875	23.8125	-32.625	-44.8125
18	12	03	12	34	59	0.661509691546	0.48236861896	0.132997750312	-0.82080078125	0.36474609375	0.4384765625	30.875	-31.75	-51.0625
18	12	03	12	34	59	0.653750808659	0.481020457757	0.133850763084	-0.88525390625	0.34912109375	0.4150390625	22.625	-33.1875	-54.4375
18	12	03	12	34	59	0.609985740139	0.484497378949	0.130920493556	-0.904296875	0.32958984375	0.24560546875	46.4375	-30.9375	-46.75
18	12	03	12	34	59	0.600429305947	0.486105417563	0.127202874209	-0.8427734375	0.3701171875	0.37109375	50.125	-34.5	-47.625
18	12	03	12	34	59	0.590643075306	0.487553672165	0.122071525329	-0.86669921875	0.42626953125	0.45849609375	56.0	-36.5625	-48.5625
18	12	03	12	34	59	0.580454286126	0.488045475485	0.118654377732	-0.9677734375	0.36181640625	0.5126953125	51.125	-35.9375	-50.75
18	12	03	12	34	59	0.56940415401	0.489386054974	0.11584618762	-0.97900390625	0.271484375	0.42724609375	54.8125	-34.375	-49.625
18	12	03	12	34	59	0.55900981228	0.492543856873	0.109616947577	-0.91748046875	0.41015625	0.45458984375	66.4375	-30.1875	-40.4375
18	12	03	12	34	59	0.521989253346	0.501053529083	0.0839870454402	-0.79541015625	0.43603515625	0.4775390625	83.1875	-50.3125	-49.25
18	12	03	12	34	59	0.510329467162	0.501357043807	0.0740377519037	-0.83154296875	0.439453125	0.484375	76.875	-52.8125	-45.5
18	12	03	12	34	59	0.499629392775	0.49999560049	0.0627435885381	-0.82421875	0.50146484375	0.57763671875	75.1875	-59.375	-42.8125
18	12	03	12	34	59	0.490350542373	0.496392950102	0.0509637419569	-0.716796875	0.55615234375	0.634765625	66.5	-64.875	-42.5
18	12	03	12	34	59	0.483036018017	0.490665472434	0.0406497331311	-0.74755859375	0.60498046875	0.69775390625	48.3125	-67.6875	-39.3125
18	12	03	12	34	59	0.477784586099	0.48199602407	0.0314331964539	-0.61572265625	0.642578125	0.71484375	28.125	-73.1875	-40.0625
18	12	03	12	34	59	0.472584131664	0.471302423441	0.023375916625	-0.5654296875	0.52099609375	0.7138671875	21.25	-80.9375	-40.625
18	12	03	12	34	59	0.467222757382	0.460264769879	0.0140990799419	-0.64453125	0.4814453125	0.744140625	27.75	-88.625	-33.1875
18	12	03	12	34	59	0.463813258136	0.44812698266	0.00274662411056	-0.541015625	0.599609375	0.77392578125	23.75	-93.125	-24.375
18	12	03	12	34	59	0.462396580956	0.434503862174	-0.00738516186586	-0.4794921875	0.64306640625	0.77880859375	6.75	-92.875	-19.875
18	12	03	12	34	59	0.462465188729	0.421205261636	-0.0161743797035	-0.5048828125	0.67626953125	0.7177734375	-6.375	-90.6875	-12.25
18	12	03	12	34	59	0.463135322902	0.408142580949	-0.0231323520532	-0.53369140625	0.64404296875	0.65673828125	-16.5	-88.3125	-8.75
18	12	03	12	34	59	0.464417009957	0.396667912697	-0.0279541320227	-0.5478515625	0.65380859375	0.62646484375	-25.625	-75.625	-6.5625
18	12	03	12	34	59	0.465951210325	0.386298822393	-0.0310064467966	-0.5859375	0.7373046875	0.666015625	-35.0625	-65.875	-9.0
18	12	03	12	34	59	0.46844075995	0.375668127361	-0.0305173133518	-0.65087890625	0.66455078125	0.6005859375	-53.3125	-63.4375	-6.25
18	12	03	12	34	59	0.470877821994	0.364922682787	-0.029052215589	-0.6318359375	0.61767578125	0.64501953125	-55.625	-59.8125	-6.625
18	12	03	12	34	59	0.47246784056	0.35674648341	-0.0286251669323	-0.521484375	0.5634765625	0.48095703125	-44.1875	-50.75	-7.5
18	12	03	12	34	59	0.472947311683	0.353871275408	-0.0275870673481	-0.72509765625	0.57470703125	0.33154296875	-35.1875	-37.8125	-5.0
18	12	03	12	34	59	0.473019572807	0.352048631735	-0.0238646003829	-0.76513671875	0.47607421875	0.279296875	-40.25	-29.75	-7.6875
18	12	03	12	34	59	0.47369901551	0.347476935356	-0.0184328182817	-0.6796875	0.4755859375	0.4140625	-53.75	-30.0625	-12.75
18	12	03	12	34	59	0.472111918808	0.341068054596	-0.0108033367329	-0.64794921875	0.212890625	0.54052734375	-49.0	-30.8125	-24.6875
18	12	03	12	34	59	0.468686259436	0.334226586362	-0.00445554068744	-0.6005859375	-0.04345703125	0.59814453125	-25.9375	-34.1875	-25.75
18	12	03	12	34	59	0.462905485749	0.331431538452	-0.00292978155538	-0.6494140625	-0.15185546875	0.60107421875	17.375	-30.4375	-22.0
18	12	03	12	34	59	0.45630144846	0.331972121211	-0.00488284053996	-0.70947265625	-0.02099609375	0.62548828125	38.0	-24.5	-20.125
18	12	03	12	34	59	0.451289542312	0.332455252498	-0.00579828327287	-0.662109375	0.12939453125	0.64306640625	21.6875	-16.625	-19.6875
18	12	03	12	34	59	0.450072425659	0.329406140668	-0.000732420546232	-0.59912109375	0.07666015625	0.66845703125	-20.0625	-12.5	-10.6875
18	12	03	12	35	00	0.450500596528	0.32531746098	0.00762939636445	-0.66748046875	-0.01318359375	0.705078125	-36.5625	-10.0625	-3.4375
18	12	03	12	35	00	0.451113019492	0.32263339481	0.0110474166592	-0.59375	0.2158203125	0.7001953125	-22.9375	-11.25	-2.1875
18	12	03	12	35	00	0.453237714752	0.318719007061	0.0154415757921	-0.54296875	0.30029296875	0.736328125	-38.3125	-10.375	-0.4375
18	12	03	12	35	00	0.454895007669	0.314880362883	0.0206298822745	-0.5830078125	0.24072265625	0.75146484375	-37.6875	-9.8125	-1.6875
18	12	03	12	35	00	0.455437820046	0.312495529166	0.0230709589892	-0.5927734375	0.26318359375	0.75244140625	-20.75	-10.9375	-3.4375
18	12	03	12	35	00	0.455919204872	0.311209106512	0.0225823434809	-0.58837890625	0.37841796875	0.75390625	-10.375	-12.6875	-2.0625
18	12	03	12	35	00	0.457749234614	0.309926748449	0.0212395644861	-0.55859375	0.47705078125	0.7978515625	-13.375	-10.8125	4.0
18	12	03	12	35	00	0.459466923978	0.308101624899	0.0195920407275	-0.400390625	0.52587890625	0.77099609375	-16.5625	-6.625	-1.125
18	12	03	12	35	00	0.463201390765	0.305423607773	0.0218508496368	-0.6396484375	0.48583984375	0.79345703125	-38.5625	-12.4375	9.375
18	12	03	12	35	00	0.467039215747	0.30126837022	0.023803619203	-0.61474609375	0.427734375	0.876953125	-37.0	-17.1875	10.9375
18	12	03	12	35	00	0.470818755779	0.297786454426	0.023254076478	-0.53955078125	0.4033203125	0.8408203125	-22.25	-17.6875	15.3125
18	12	03	12	35	00	0.475043622866	0.295719690709	0.0238040617908	-0.61083984375	0.3388671875	0.7626953125	-22.5625	-13.8125	21.4375
18	12	03	12	35	00	0.478625791127	0.295158674559	0.0238031189161	-0.5986328125	0.36376953125	0.6748046875	-17.25	-10.8125	19.0625
18	12	03	12	35	00	0.483768897095	0.294497215302	0.0263674190695	-0.7060546875	0.28271484375	0.6494140625	-28.25	-9.5625	29.625
18	12	03	12	35	00	0.488824672731	0.293331424291	0.0266110072806	-0.51025390625	0.37255859375	0.64892578125	-24.0625	-7.625	25.6875
18	12	03	12	35	00	0.493713247402	0.292846601685	0.0296020428965	-0.666015625	0.2783203125	0.64111328125	-29.375	-5.8125	27.125
18	12	03	12	35	00	0.496964524964	0.291940717625	0.0321665812646	-0.60400390625	0.18994140625	0.63427734375	-20.625	-7.0625	19.375
18	12	03	12	35	00	0.499258066783	0.29186455689	0.0324700845389	-0.54248046875	0.13525390625	0.62353515625	-3.375	-6.8125	18.375
18	12	03	12	35	00	0.501165371645	0.29266690501	0.0319827858655	-0.64306640625	0.13427734375	0.6982421875	5.25	-8.0625	19.875
18	12	03	12	35	00	0.502314214308	0.293576108241	0.0292355417562	-0.5380859375	0.18310546875	0.7333984375	15.25	-7.5	15.4375
18	12	03	12	35	00	0.504317764793	0.2931427114	0.0283804623779	-0.587890625	0.21484375	0.8125	1.0625	-8.4375	16.625
18	12	03	12	35	00	0.507319733061	0.291684432663	0.0294797198109	-0.5986328125	0.18017578125	0.818359375	-10.8125	-7.75	19.6875
18	12	03	12	35	00	0.510924487856	0.290465850879	0.0310058105162	-0.603515625	0.1708984375	0.8125	-13.0	-4.875	24.25
18	12	03	12	35	00	0.515022626075	0.290287699646	0.0312504840662	-0.5224609375	0.28662109375	0.75830078125	-12.375	-0.6875	24.8125
18	12	03	12	35	00	0.519905121028	0.289677119558	0.0330205060432	-0.58837890625	0.32666015625	0.74951171875	-24.75	-1.25	27.125
18	12	03	12	35	00	0.52441246056	0.288939547054	0.0351561426074	-0.55419921875	0.3037109375	0.72412109375	-25.1875	-0.625	24.25
18	12	03	12	35	00	0.528443194862	0.288391556448	0.0360718327747	-0.5927734375	0.24609375	0.75341796875	-14.125	-4.4375	26.0
18	12	03	12	35	00	0.531560924387	0.28943184102	0.0328372691837	-0.51318359375	0.3798828125	0.77099609375	4.0	-5.0625	22.75
18	12	03	12	35	00	0.534724785852	0.289609531888	0.0319211349162	-0.55908203125	0.38720703125	0.7587890625	-9.875	-5.375	19.3125
18	12	03	12	35	00	0.538398306736	0.289371542029	0.0339360002886	-0.56787109375	0.24853515625	0.70849609375	-18.125	0.0	22.375
18	12	03	12	35	00	0.541023346317	0.290104237934	0.0355840039376	-0.642578125	0.09619140625	0.66943359375	-3.5	-2.5	24.125
18	12	03	12	35	00	0.543209559768	0.292356605763	0.0355222431219	-0.6650390625	0.09130859375	0.65966796875	9.9375	-2.25	26.8125
18	12	03	12	35	00	0.544758115975	0.29578687171	0.0324718563248	-0.55224609375	0.26513671875	0.7392578125	20.25	3.375	20.875
18	12	03	12	35	00	0.546442970129	0.298032058879	0.0315548995372	-0.59130859375	0.3515625	0.853515625	4.125	6.3125	14.8125
18	12	03	12	35	00	0.548563292724	0.297291032361	0.0353380225286	-0.556640625	0.31982421875	0.900390625	-24.625	10.0	6.3125
18	12	03	12	35	00	0.551042686712	0.29474802106	0.0418714314449	-0.552734375	0.19970703125	0.91015625	-36.375	11.0625	5.875
18	12	03	12	35	00	0.553415890623	0.292241676884	0.0482796922337	-0.498046875	0.1220703125	0.84423828125	-33.125	11.625	6.875
18	12	03	12	35	00	0.555346909366	0.291924856302	0.0537708129631	-0.525390625	0.0966796875	0.7734375	-21.9375	15.75	9.875
18	12	03	12	35	00	0.557979860609	0.29260068385	0.0577388917234	-0.638671875	0.18701171875	0.79296875	-18.1875	10.9375	16.9375
18	12	03	12	35	00	0.561108509633	0.292914145298	0.0582288173817	-0.3681640625	0.43310546875	0.76416015625	-19.5	12.4375	10.9375
18	12	03	12	35	00	0.565247169525	0.291992490984	0.0617066071039	-0.4931640625	0.48583984375	0.765625	-42.0	9.875	12.0625
18	12	03	12	35	00	0.569043515953	0.289191052085	0.0662246288543	-0.5029296875	0.4052734375	0.77294921875	-47.0625	3.5	8.5625
18	12	03	12	35	00	0.571899242558	0.287292394314	0.0690917761554	-0.50927734375	0.22705078125	0.78271484375	-25.0625	1.75	11.9375
18	12	03	12	35	00	0.572640312475	0.289921283762	0.0652475478614	-0.4150390625	0.271484375	0.77880859375	20.5	5.0	11.4375
18	12	03	12	35	00	0.572957273174	0.294382968842	0.0599386430443	-0.5849609375	0.2978515625	0.80029296875	33.5	-0.3125	16.125
18	12	03	12	35	00	0.573986073796	0.297186111582	0.0539561558098	-0.47509765625	0.4140625	0.84326171875	24.5625	-2.0625	13.75
18	12	03	12	35	00	0.576046712394	0.298765486032	0.0518796043161	-0.470703125	0.32763671875	0.7890625	6.0	4.25	16.5
18	12	03	12	35	00	0.578733504994	0.299437521145	0.0537107661247	-0.6396484375	0.28466796875	0.8291015625	-12.0	5.875	18.625
18	12	03	12	35	00	0.581888138182	0.299854879682	0.0562113462624	-0.55029296875	0.21875	0.7578125	-14.0625	9.75	20.875
18	12	03	12	35	00	0.586070528312	0.301092055422	0.0593883174388	-0.728515625	0.244140625	0.7734375	-17.625	8.4375	30.875
18	12	03	12	35	00	0.589596946222	0.303099216867	0.0606076363974	-0.4794921875	0.39013671875	0.7177734375	-14.8125	16.875	20.5625
18	12	03	12	35	01	0.592895440447	0.302490200006	0.0664062424548	-0.4716796875	0.29638671875	0.6953125	-37.75	19.8125	11.1875
18	12	03	12	35	01	0.597319851787	0.301894950638	0.070499124138	-0.59375	0.3095703125	0.76416015625	-32.1875	11.0	23.1875
18	12	03	12	35	01	0.599606023333	0.299925081297	0.0726924647587	-0.35302734375	0.28515625	0.77783203125	-23.125	9.0625	5.125
18	12	03	12	35	01	0.601584783451	0.299754755634	0.0752591353485	-0.443359375	0.310546875	0.712890625	-20.6875	11.8125	6.0625
18	12	03	12	35	01	0.603372460039	0.298451479829	0.0779391696814	-0.62939453125	0.26953125	0.8193359375	-20.625	0.0	7.25
18	12	03	12	35	01	0.605599819704	0.29565869045	0.0801403510654	-0.4873046875	0.22607421875	0.849609375	-21.6875	0.5625	7.25
18	12	03	12	35	01	0.607606203897	0.293579692692	0.0827028032426	-0.47216796875	0.25732421875	0.85302734375	-22.75	5.75	5.375
18	12	03	12	35	01	0.609925820572	0.290711166155	0.0864870296958	-0.53271484375	0.30078125	0.884765625	-33.375	4.625	3.3125
18	12	03	12	35	01	0.61407527779	0.286377219301	0.0925293828774	-0.5986328125	0.240234375	0.8623046875	-49.5625	2.6875	14.3125
18	12	03	12	35	01	0.617568185463	0.283209762853	0.0961326242443	-0.49267578125	0.26171875	0.85595703125	-35.75	4.6875	11.75
18	12	03	12	35	01	0.621046655471	0.280890094199	0.100710268455	-0.5947265625	0.32080078125	0.83251953125	-41.0625	5.625	11.875
18	12	03	12	35	01	0.62482650435	0.277714232177	0.105775552607	-0.59228515625	0.25927734375	0.81298828125	-43.8125	3.375	14.0625
18	12	03	12	35	01	0.628227726483	0.275204393152	0.109312723028	-0.53564453125	0.23583984375	0.79931640625	-33.75	3.375	13.875
18	12	03	12	35	01	0.630726330796	0.273859981254	0.111936528999	-0.458984375	0.33056640625	0.7587890625	-30.25	7.4375	6.375
18	12	03	12	35	01	0.633437910423	0.27063631671	0.118533091351	-0.61474609375	0.21875	0.75341796875	-48.1875	4.9375	6.0625
18	12	03	12	35	01	0.635733582369	0.266658988227	0.124815205064	-0.60205078125	0.10400390625	0.7607421875	-42.25	1.25	5.8125
18	12	03	12	35	01	0.637024221232	0.263305786183	0.128723204233	-0.43896484375	0.1376953125	0.73974609375	-30.6875	3.1875	-1.625
18	12	03	12	35	01	0.638813733378	0.260933375711	0.133915281008	-0.609375	0.17138671875	0.736328125	-36.5	2.75	3.5625
18	12	03	12	35	01	0.640339042876	0.256721572237	0.140446109776	-0.7021484375	0.076171875	0.76611328125	-42.5625	-4.0	0.5625
18	12	03	12	35	01	0.64238420176	0.251826813916	0.14648190824	-0.57373046875	0.0859375	0.79931640625	-45.1875	-0.375	1.75
18	12	03	12	35	01	0.644726264867	0.246525549919	0.150637548205	-0.4296875	0.13720703125	0.77734375	-43.1875	-2.1875	1.3125
18	12	03	12	35	01	0.647469974172	0.241153268095	0.158266369064	-0.787109375	-0.00634765625	0.822265625	-51.0	-7.5625	9.3125
18	12	03	12	35	01	0.649543486438	0.23663597979	0.161989138602	-0.57421875	0.03369140625	0.83056640625	-33.25	-6.5	5.6875
18	12	03	12	35	01	0.652029731504	0.234249752833	0.164792686985	-0.595703125	0.119140625	0.83837890625	-28.0625	-1.25	10.5625
18	12	03	12	35	01	0.654343062794	0.232416601354	0.168331141422	-0.5830078125	0.2353515625	0.86669921875	-36.3125	5.5625	5.375
18	12	03	12	35	01	0.656298612722	0.229243707745	0.17260415482	-0.51318359375	0.166015625	0.779296875	-39.875	3.75	1.6875
18	12	03	12	35	01	0.657304769046	0.226751529112	0.176579319979	-0.54296875	0.1279296875	0.74462890625	-32.5625	2.375	-2.4375
18	12	03	12	35	01	0.657770796823	0.224058327469	0.180967840084	-0.69482421875	0.0341796875	0.7470703125	-28.75	-5.75	-3.0625
18	12	03	12	35	01	0.657579916438	0.223384304266	0.181820175522	-0.42041015625	0.10986328125	0.7099609375	-9.8125	3.375	-6.3125
18	12	03	12	35	01	0.658092031746	0.221561312858	0.184878572079	-0.59521484375	0.07373046875	0.75244140625	-23.125	-1.25	-2.6875
18	12	03	12	35	01	0.658947102803	0.21887590873	0.189334375036	-0.63720703125	0.02490234375	0.76513671875	-30.625	-0.8125	-0.4375
18	12	03	12	35	01	0.659787878571	0.216979269965	0.190429063935	-0.35595703125	0.09814453125	0.71240234375	-17.5625	3.0	-1.5625
18	12	03	12	35	01	0.662992342572	0.210458257889	0.199166268994	-0.9267578125	-0.08203125	0.9072265625	-62.3125	-10.9375	11.75
18	12	03	12	35	01	0.664738838189	0.207887290687	0.20056301738	-0.54541015625	-0.03955078125	0.85595703125	-16.5625	-3.8125	8.9375
18	12	03	12	35	01	0.668077441997	0.203304034286	0.204036441494	-0.6923828125	-0.05517578125	0.93408203125	-35.875	-9.5625	16.3125
18	12	03	12	35	01	0.671924943943	0.201168554386	0.204769569164	-0.48583984375	0.08837890625	0.91455078125	-25.375	0.625	20.6875
18	12	03	12	35	01	0.675857770856	0.198307766415	0.2070970303	-0.49951171875	0.16796875	0.8623046875	-39.625	1.3125	17.0625
18	12	03	12	35	01	0.680538487278	0.19415183211	0.211668831738	-0.66357421875	0.10595703125	0.86865234375	-52.4375	-3.8125	21.75
18	12	03	12	35	01	0.684576130908	0.19104166278	0.213075541459	-0.49853515625	0.0859375	0.83154296875	-33.25	-4.9375	20.1875
18	12	03	12	35	01	0.688599519101	0.188720946026	0.213684357062	-0.541015625	0.13232421875	0.830078125	-29.5625	-7.0625	20.3125
18	12	03	12	35	01	0.693421345274	0.185608160459	0.214294722582	-0.5029296875	0.14404296875	0.857421875	-35.3125	-8.0625	24.6875
18	12	03	12	35	01	0.69869906124	0.18262493153	0.214669747391	-0.54443359375	0.11181640625	0.849609375	-33.0625	-10.9375	29.8125
18	12	03	12	35	01	0.703751163076	0.18085123124	0.21423821183	-0.494140625	0.15673828125	0.8212890625	-27.4375	-7.9375	29.625
18	12	03	12	35	01	0.709002428104	0.178166157682	0.214544037086	-0.5234375	0.13671875	0.80224609375	-33.125	-11.25	30.125
18	12	03	12	35	01	0.714163448115	0.173337679912	0.217221409439	-0.69140625	-0.03173828125	0.8349609375	-41.375	-17.875	31.625
18	12	03	12	35	01	0.71858283984	0.171695704448	0.215214736539	-0.37158203125	0.0615234375	0.79541015625	-13.9375	-8.4375	28.625
18	12	03	12	35	01	0.723698933657	0.167725788116	0.216737363027	-0.58349609375	0.052734375	0.80859375	-38.4375	-14.5	31.0
18	12	03	12	35	01	0.729440534151	0.163271142905	0.218447633815	-0.5078125	0.03173828125	0.8115234375	-41.5625	-11.125	36.125
18	12	03	12	35	01	0.734515117682	0.160038111897	0.218999521543	-0.380859375	0.080078125	0.72900390625	-33.4375	-6.75	31.75
18	12	03	12	35	01	0.740427661454	0.152834132741	0.224856607435	-0.71484375	-0.06494140625	0.8125	-65.125	-14.75	37.6875
18	12	03	12	35	02	0.745383982761	0.150090010941	0.224921386872	-0.4990234375	-0.0078125	0.79833984375	-25.5	-11.875	34.875
18	12	03	12	35	02	0.750474547325	0.146176524141	0.227901102774	-0.69970703125	-0.0458984375	0.806640625	-40.0	-14.75	36.75
18	12	03	12	35	02	0.755273607785	0.141484097531	0.22986588063	-0.62939453125	-0.1337890625	0.82421875	-33.9375	-17.25	35.25
18	12	03	12	35	02	0.760326714525	0.136537758721	0.232303401741	-0.63720703125	-0.15673828125	0.84228515625	-36.625	-15.375	38.625
18	12	03	12	35	02	0.765619665062	0.133116748206	0.234373366856	-0.56884765625	-0.0224609375	0.87939453125	-38.125	-6.875	39.75
18	12	03	12	35	02	0.770639184438	0.129518164848	0.237429623591	-0.5048828125	0.02392578125	0.83203125	-45.3125	-0.25	36.875
18	12	03	12	35	02	0.775661793645	0.123234274581	0.24231801391	-0.54052734375	-0.07666015625	0.802734375	-57.9375	-3.6875	36.875
18	12	03	12	35	02	0.779794575643	0.118836884688	0.245669471428	-0.58056640625	-0.142578125	0.76220703125	-38.375	-7.625	34.0
18	12	03	12	35	02	0.783777604639	0.115665334537	0.248115875933	-0.61376953125	-0.12158203125	0.78076171875	-31.125	-9.1875	34.0
18	12	03	12	35	02	0.787244962317	0.114687027771	0.249210821921	-0.5703125	-0.03515625	0.78857421875	-20.9375	-5.0	29.5625
18	12	03	12	35	02	0.790927591162	0.11053942488	0.252818496882	-0.6650390625	-0.11865234375	0.822265625	-39.8125	-7.8125	30.4375
18	12	03	12	35	02	0.794918623496	0.106689016728	0.255370049194	-0.65771484375	-0.17822265625	0.86572265625	-32.9375	-9.4375	35.25
18	12	03	12	35	02	0.798480905451	0.105166075531	0.256536863294	-0.6181640625	-0.1884765625	0.82763671875	-15.8125	-7.75	35.4375
18	12	03	12	35	02	0.801776477544	0.103212851974	0.258428867686	-0.76904296875	-0.23828125	0.84765625	-17.0	-13.3125	34.1875
18	12	03	12	35	02	0.80391242231	0.106447746148	0.257452175029	-0.6201171875	-0.18310546875	0.755859375	17.0625	-4.9375	30.0625
18	12	03	12	35	02	0.80677411016	0.1098648357	0.255130562904	-0.50341796875	-0.044921875	0.74853515625	13.25	-4.4375	31.6875
18	12	03	12	35	02	0.809278228578	0.112306504305	0.254459682852	-0.62451171875	-0.10498046875	0.8046875	7.3125	-4.125	30.875
18	12	03	12	35	02	0.811792493072	0.115298948828	0.252510191266	-0.54638671875	-0.09228515625	0.77490234375	14.3125	-5.0	30.375
18	12	03	12	35	02	0.814135109582	0.116880480909	0.251216741213	-0.61962890625	-0.1494140625	0.861328125	9.4375	-7.3125	28.875
18	12	03	12	35	02	0.815855053791	0.120605190865	0.247924233448	-0.4404296875	-0.10986328125	0.82861328125	25.9375	-1.125	24.125
18	12	03	12	35	02	0.818573293945	0.122624244839	0.246652351117	-0.55322265625	-0.06640625	0.84375	6.5	-2.75	32.125
18	12	03	12	35	02	0.822165783304	0.124515085222	0.245917293313	-0.5966796875	0.03955078125	0.93408203125	-5.0625	0.1875	38.4375
18	12	03	12	35	02	0.825639673768	0.126040210418	0.245549523735	-0.48193359375	0.12353515625	0.85986328125	-12.1875	5.375	34.8125
18	12	03	12	35	02	0.829534559582	0.126954005145	0.247010989819	-0.44775390625	0.24658203125	0.81103515625	-29.5625	12.75	36.6875
18	12	03	12	35	02	0.833526019943	0.124516189271	0.250436237538	-0.46240234375	0.14111328125	0.6953125	-45.3125	8.625	37.5
18	12	03	12	35	02	0.837930080543	0.115972257651	0.259533705017	-1.16162109375	-0.2490234375	0.8720703125	-71.6875	-14.125	49.6875
18	12	03	12	35	02	0.839986470114	0.119814957189	0.255499445131	-0.3740234375	-0.2080078125	0.8046875	34.1875	-2.0625	32.375
18	12	03	12	35	02	0.843713366477	0.125125689161	0.250861747538	-0.5224609375	0.162109375	0.9833984375	15.9375	-3.5625	41.3125
18	12	03	12	35	02	0.846953169917	0.131474281349	0.246956797743	-0.38330078125	0.2958984375	0.8544921875	12.6875	6.5	36.8125
18	12	03	12	35	02	0.852748460626	0.130253039509	0.247749338035	-0.60009765625	0.388671875	0.91552734375	-51.0	-0.375	52.0
18	12	03	12	35	02	0.858160081677	0.127625372033	0.248170618215	-0.33154296875	0.3505859375	0.75927734375	-52.625	4.0625	45.625
18	12	03	12	35	02	0.864733019872	0.121702261549	0.250057254547	-0.53125	0.23046875	0.833984375	-70.625	-6.0	60.375
18	12	03	12	35	02	0.870095846939	0.116765580862	0.250804898988	-0.71728515625	-0.0234375	0.8564453125	-43.3125	-19.25	56.875
18	12	03	12	35	02	0.874161964726	0.118837686449	0.247197036527	-0.6708984375	-0.0732421875	0.79541015625	10.6875	-24.6875	53.9375
18	12	03	12	35	02	0.877772599836	0.125430963957	0.242866085442	-0.80517578125	-0.06640625	0.80224609375	35.875	-25.3125	61.25
18	12	03	12	35	02	0.880863854223	0.135193558558	0.237366929675	-0.8359375	0.07373046875	0.779296875	48.5	-26.5625	59.0625
18	12	03	12	35	02	0.884999802506	0.14098962371	0.233517878923	-0.728515625	0.1259765625	0.79638671875	18.6875	-19.75	66.0
18	12	03	12	35	02	0.889668538796	0.14197098115	0.232366089956	-0.6708984375	0.138671875	0.85205078125	-14.0625	-10.5	65.6875
18	12	03	12	35	02	0.89426776775	0.137762770583	0.234385927797	-0.67041015625	0.01123046875	0.84228515625	-40.0	-4.9375	62.375
18	12	03	12	35	02	0.89840655498	0.133854580819	0.234626998936	-0.4033203125	0.017578125	0.7744140625	-33.0	-1.4375	51.75
18	12	03	12	35	02	0.902205205455	0.12714251018	0.236400836258	-0.4765625	-0.06884765625	0.70458984375	-45.125	-5.875	46.3125
18	12	03	12	35	02	0.905722922433	0.123171969639	0.236517037835	-0.5458984375	0.0029296875	0.74365234375	-30.9375	-12.0	45.875
18	12	03	12	35	02	0.909449846372	0.120120624004	0.235114148203	-0.4521484375	0.1142578125	0.76953125	-30.1875	-12.125	44.5
18	12	03	12	35	02	0.913232657747	0.116824442383	0.233709921569	-0.462890625	0.22216796875	0.8134765625	-38.625	-12.3125	42.6875
18	12	03	12	35	02	0.916975323986	0.111516602338	0.235362900172	-0.7255859375	0.15234375	0.89453125	-52.625	-11.875	51.0625
18	12	03	12	35	02	0.920642151095	0.111761306017	0.233410832446	-0.54345703125	0.28369140625	0.85693359375	-24.0625	-11.6875	52.5
18	12	03	12	35	02	0.92439533646	0.111940643583	0.231999120098	-0.67822265625	0.19384765625	0.86962890625	-21.0	-16.5	62.4375
18	12	03	12	35	02	0.927738314956	0.117432139341	0.227173816333	-0.47314453125	0.23388671875	0.86962890625	13.625	-14.4375	61.0625
18	12	03	12	35	02	0.930447393543	0.125980282096	0.22229660242	-0.5576171875	0.13427734375	0.85546875	38.0	-15.25	67.5
18	12	03	12	35	02	0.93251448431	0.13952926503	0.216374122717	-0.63134765625	0.169921875	0.84765625	66.625	-17.3125	75.625
18	12	03	12	35	03	0.933883508219	0.157722548055	0.209971194005	-0.51318359375	0.3544921875	0.7158203125	80.4375	-8.6875	81.125
18	12	03	12	35	03	0.935940571606	0.166203611353	0.207342514787	-0.58203125	0.29833984375	0.7548828125	26.75	-4.875	76.6875
18	12	03	12	35	03	0.939246443299	0.166327434234	0.20630705604	-0.6103515625	0.20458984375	0.9375	-14.125	-3.4375	77.75
18	12	03	12	35	03	0.942539509476	0.163458153502	0.207160930913	-0.5439453125	0.07958984375	0.97314453125	-24.6875	8.125	77.0625
18	12	03	12	35	03	0.944785881778	0.161624976739	0.209782871999	-0.67724609375	0.01611328125	0.87890625	-16.125	8.0	72.3125
18	12	03	12	35	03	0.946386462788	0.161627304319	0.212837768187	-0.57470703125	0.046875	0.71875	-10.0	14.125	69.125
18	12	03	12	35	03	0.947831941313	0.158205962514	0.218570814724	-0.6484375	-0.01904296875	0.6708984375	-28.125	20.125	66.4375
18	12	03	12	35	03	0.948675600604	0.156861371264	0.223634266269	-0.69873046875	0.052734375	0.64599609375	-18.9375	14.3125	60.3125
18	12	03	12	35	03	0.950456593938	0.152651678746	0.226444513454	-0.5283203125	0.1494140625	0.765625	-37.8125	13.125	56.0625
18	12	03	12	35	03	0.952073854054	0.147407254619	0.229076367115	-0.537109375	0.0	0.78955078125	-32.4375	10.5	51.5
18	12	03	12	35	03	0.953186373886	0.143197696794	0.231887489395	-0.62451171875	-0.0400390625	0.80810546875	-22.0625	7.125	47.8125
18	12	03	12	35	03	0.954045268519	0.141175017983	0.23358270377	-0.50048828125	0.013671875	0.82470703125	-11.3125	10.6875	43.3125
18	12	03	12	35	03	0.954714063766	0.139291445145	0.235611296345	-0.48583984375	0.03515625	0.8203125	-11.6875	13.5	40.875
18	12	03	12	35	03	0.955181167132	0.137152027768	0.238047578236	-0.4716796875	0.06103515625	0.82666015625	-13.9375	16.5625	35.1875
18	12	03	12	35	03	0.955425206368	0.133672855168	0.241343593304	-0.53173828125	0.05517578125	0.85693359375	-19.0	17.375	26.5
18	12	03	12	35	03	0.955537068549	0.129520898081	0.245186356076	-0.5869140625	0.02001953125	0.86767578125	-21.125	17.1875	25.4375
18	12	03	12	35	03	0.955154909009	0.126894182109	0.249576868997	-0.658203125	-0.04345703125	0.86474609375	-7.5	17.4375	24.625
18	12	03	12	35	03	0.954074090273	0.124699210954	0.255380077647	-0.8232421875	-0.16650390625	0.890625	5.25	16.75	17.9375
18	12	03	12	35	03	0.952002473326	0.12982684239	0.260813397995	-0.70947265625	-0.00146484375	0.8134765625	36.5625	24.5625	17.1875
18	12	03	12	35	03	0.94919223937	0.136967872494	0.266977484085	-0.5732421875	0.1591796875	0.7294921875	40.8125	35.0	1.375
18	12	03	12	35	03	0.946368460387	0.141421201078	0.273564878391	-0.62646484375	0.21728515625	0.78125	26.5625	34.8125	-14.5
18	12	03	12	35	03	0.94437261401	0.142278474874	0.27888045976	-0.49462890625	0.1298828125	0.8388671875	13.0	34.6875	-18.0625
18	12	03	12	35	03	0.942396283151	0.141420478501	0.284305821692	-0.484375	0.06396484375	0.77880859375	8.875	32.1875	-26.375
18	12	03	12	35	03	0.940333976009	0.136417398181	0.291451040857	-0.61767578125	-0.041015625	0.779296875	-8.3125	31.9375	-34.3125
18	12	03	12	35	03	0.938032086848	0.132818702563	0.298903118773	-0.6357421875	-0.0244140625	0.712890625	-5.3125	32.9375	-25.9375
18	12	03	12	35	03	0.936023822061	0.130500093353	0.30464264075	-0.49072265625	-0.10107421875	0.697265625	6.125	32.25	-20.375
18	12	03	12	35	03	0.93440449522	0.130190397041	0.308111169369	-0.525390625	-0.11572265625	0.7734375	19.625	22.375	-15.1875
18	12	03	12	35	03	0.93297716137	0.132393029965	0.310259922227	-0.44921875	-0.00537109375	0.783203125	26.4375	22.8125	-9.375
18	12	03	12	35	03	0.931495573331	0.132512737678	0.313794557532	-0.58056640625	0.052734375	0.77294921875	9.1875	21.9375	-10.4375
18	12	03	12	35	03	0.930483080361	0.131478650951	0.316793963991	-0.67626953125	0.0166015625	0.8232421875	3.375	16.1875	-3.5
18	12	03	12	35	03	0.929696134266	0.133485126421	0.318240260246	-0.61279296875	0.04052734375	0.84326171875	18.125	14.75	7.0625
18	12	03	12	35	03	0.928085151374	0.140998138749	0.319351628542	-0.60888671875	0.18017578125	0.8525390625	42.9375	19.1875	6.6875
18	12	03	12	35	03	0.925697263882	0.151373415167	0.321180205891	-0.61181640625	0.38232421875	0.7919921875	47.9375	24.25	2.6875
18	12	03	12	35	03	0.924224679641	0.156804464536	0.323008651741	-0.67919921875	0.421875	0.8388671875	18.0625	19.1875	0.6875
18	12	03	12	35	03	0.923868321228	0.158759348805	0.323195214119	-0.6298828125	0.306640625	0.83740234375	6.25	8.125	0.375
18	12	03	12	35	03	0.923747940559	0.161201157065	0.322280238281	-0.525390625	0.291015625	0.81787109375	10.8125	6.6875	-0.5625
18	12	03	12	35	03	0.923429763687	0.162419631249	0.322580891076	-0.64208984375	0.2421875	0.79443359375	6.0625	5.25	0.75
18	12	03	12	35	03	0.924000767353	0.163339017931	0.321184571133	-0.56689453125	0.30810546875	0.796875	-1.5625	-0.125	7.4375
18	12	03	12	35	03	0.924927201493	0.163401974421	0.31954028244	-0.47412109375	0.423828125	0.7802734375	-14.3125	2.1875	5.1875
18	12	03	12	35	03	0.925781415903	0.161998013965	0.318563539896	-0.6484375	0.384765625	0.755859375	-19.8125	-6.4375	2.5625
18	12	03	12	35	03	0.927530301399	0.16089562217	0.315138124909	-0.5361328125	0.42431640625	0.77490234375	-20.6875	-13.6875	7.4375
18	12	03	12	35	03	0.929084238545	0.159241937877	0.312197206685	-0.59814453125	0.33837890625	0.77099609375	-17.875	-16.0	6.875
18	12	03	12	35	03	0.930533332223	0.1573574897	0.309648776279	-0.646484375	0.3330078125	0.77490234375	-19.375	-16.5625	7.0
18	12	03	12	35	03	0.932339105073	0.153629952698	0.307320942327	-0.6279296875	0.265625	0.75830078125	-28.6875	-16.4375	13.0625
18	12	03	12	35	03	0.934280012341	0.149355405383	0.304997531957	-0.6298828125	0.20556640625	0.7734375	-29.625	-16.375	18.1875
18	12	03	12	35	03	0.936182590127	0.146915601411	0.301949098537	-0.5107421875	0.2958984375	0.7822265625	-25.625	-12.125	19.3125
18	12	03	12	35	03	0.937732647385	0.143684348887	0.300430911308	-0.611328125	0.29638671875	0.73779296875	-31.875	-11.375	21.1875
18	12	03	12	35	03	0.939440477783	0.13996082227	0.298660402689	-0.5869140625	0.29541015625	0.734375	-36.0625	-11.6875	22.8125
18	12	03	12	35	03	0.940689419068	0.13580547349	0.298039607663	-0.62109375	0.177734375	0.70166015625	-30.5625	-9.375	20.375
18	12	03	12	35	03	0.941556126984	0.132938496342	0.297555174319	-0.67236328125	0.17578125	0.779296875	-20.4375	-8.25	15.75
18	12	03	12	35	04	0.942519354162	0.131105528606	0.296208161232	-0.54052734375	0.2607421875	0.7841796875	-18.9375	-5.625	12.5
18	12	03	12	35	04	0.943665814601	0.124458900127	0.296528365287	-0.71826171875	0.08837890625	0.81494140625	-38.0	-7.0	17.0
18	12	03	12	35	04	0.94509059485	0.120120013605	0.294684667524	-0.5009765625	0.189453125	0.88330078125	-28.9375	-4.3125	12.5
18	12	03	12	35	04	0.946320133393	0.115238158659	0.293893926876	-0.513671875	0.29052734375	0.845703125	-41.1875	0.0625	14.125
18	12	03	12	35	04	0.947435152003	0.10889217312	0.294021075068	-0.58935546875	0.24951171875	0.80615234375	-49.375	-0.75	17.8125
18	12	03	12	35	04	0.948718995728	0.103276879674	0.292923017467	-0.48193359375	0.20849609375	0.78515625	-42.0625	-3.4375	15.0
18	12	03	12	35	04	0.949728187036	0.100099886037	0.291693509373	-0.50244140625	0.2431640625	0.7470703125	-31.125	-5.375	18.25
18	12	03	12	35	04	0.950679095898	0.0979062131506	0.290422544994	-0.5576171875	0.34716796875	0.71923828125	-34.5625	-9.0625	23.8125
18	12	03	12	35	04	0.95220428507	0.0921684916958	0.288408028651	-0.546875	0.337890625	0.76123046875	-54.9375	-12.75	24.5625
18	12	03	12	35	04	0.953908697957	0.0836836975236	0.286453386199	-0.55517578125	0.23828125	0.79638671875	-67.375	-12.3125	31.4375
18	12	03	12	35	04	0.955601019699	0.0736721021191	0.2844341308	-0.62939453125	0.15087890625	0.826171875	-71.625	-15.75	35.9375
18	12	03	12	35	04	0.957313949938	0.0626245927465	0.281993780204	-0.63134765625	0.1025390625	0.89111328125	-79.3125	-15.625	49.4375
18	12	03	12	35	04	0.958586688428	0.0504165937371	0.280282080437	-0.5986328125	-0.01611328125	0.83984375	-82.75	-10.625	61.25
18	12	03	12	35	04	0.958520243146	0.0430308692956	0.281257086119	-0.63037109375	0.09375	0.8037109375	-62.1875	2.4375	62.0
18	12	03	12	35	04	0.958287715265	0.0379042465719	0.281748795775	-0.591796875	0.23388671875	0.77490234375	-57.6875	1.3125	55.9375
18	12	03	12	35	04	0.958054766053	0.0297255779223	0.281874166006	-0.580078125	0.18017578125	0.77490234375	-71.625	0.0625	54.25
18	12	03	12	35	04	0.957710039824	0.0219728261001	0.281740459106	-0.55029296875	0.13525390625	0.72509765625	-66.125	-1.625	49.875
18	12	03	12	35	04	0.956760335801	0.0133061405553	0.283152229523	-0.64208984375	0.10595703125	0.7080078125	-68.0	2.3125	46.0
18	12	03	12	35	04	0.955712236557	0.00488293389478	0.284491936045	-0.69287109375	-0.0126953125	0.71044921875	-58.125	-0.625	44.3125
18	12	03	12	35	04	0.954858879249	-0.00164799218485	0.284736427493	-0.634765625	-0.0576171875	0.77734375	-45.3125	-1.9375	45.8125
18	12	03	12	35	04	0.954119873031	-0.00323492536276	0.284551359268	-0.58154296875	0.03857421875	0.8359375	-22.0	-1.125	44.5625
18	12	03	12	35	04	0.953266328631	-0.00286871029874	0.28449061069	-0.5654296875	0.1953125	0.82666015625	-20.5625	-1.125	42.375
18	12	03	12	35	04	0.952181055884	-0.00592061297569	0.284799795305	-0.611328125	0.134765625	0.798828125	-35.9375	-0.6875	40.5
18	12	03	12	35	04	0.951497887975	-0.0112307146955	0.283758655539	-0.54638671875	0.00927734375	0.80810546875	-40.375	-2.625	36.25
18	12	03	12	35	04	0.950676620066	-0.0157479658412	0.283036114751	-0.5810546875	-0.00341796875	0.828125	-35.0625	-2.9375	36.0625
18	12	03	12	35	04	0.949361578892	-0.0185550932225	0.283697609534	-0.67041015625	0.02978515625	0.81494140625	-26.8125	-1.3125	40.0625
18	12	03	12	35	04	0.947542195093	-0.0197760674575	0.285837419455	-0.69287109375	0.10107421875	0.7587890625	-21.9375	3.0625	40.75
18	12	03	12	35	04	0.945033793658	-0.0224615666257	0.289619928367	-0.80126953125	0.078125	0.70166015625	-27.5625	6.375	43.375
18	12	03	12	35	04	0.942337585173	-0.0261234850997	0.294011279732	-0.884765625	0.0068359375	0.6474609375	-27.625	4.5625	40.75
18	12	03	12	35	04	0.940038011025	-0.0292369461256	0.297984908111	-0.7451171875	-0.0966796875	0.59912109375	-15.375	8.5625	33.6875
18	12	03	12	35	04	0.937952184132	-0.0339364491688	0.30207101967	-0.82470703125	-0.248046875	0.62451171875	-11.9375	7.625	26.0625
18	12	03	12	35	04	0.936534753708	-0.0355252054134	0.305382478837	-0.6767578125	-0.19970703125	0.66796875	4.5	10.25	17.5625
18	12	03	12	35	04	0.935861627851	-0.0364993969513	0.307498263948	-0.54931640625	-0.16943359375	0.67138671875	8.75	9.8125	5.875
18	12	03	12	35	04	0.935550957824	-0.0416288740938	0.308615230819	-0.560546875	-0.28076171875	0.67919921875	-7.0	8.375	-4.0
18	12	03	12	35	04	0.935096573448	-0.0452288877888	0.310498450987	-0.58251953125	-0.3515625	0.6669921875	6.5625	9.6875	-0.125
18	12	03	12	35	04	0.934583065663	-0.0452276679504	0.312748408337	-0.61279296875	-0.31640625	0.71240234375	22.8125	8.875	7.75
18	12	03	12	35	04	0.933978177199	-0.0421150792228	0.314886512624	-0.59375	-0.2109375	0.734375	31.3125	7.5	17.5
18	12	03	12	35	04	0.932891581032	-0.0377209498219	0.317087919619	-0.64453125	-0.068359375	0.79052734375	25.6875	6.1875	30.0625
18	12	03	12	35	04	0.931625012083	-0.0341813540435	0.318374897663	-0.58642578125	0.11376953125	0.8154296875	6.375	6.75	33.0
18	12	03	12	35	04	0.929993932642	-0.0356469189198	0.319113171426	-0.6259765625	0.09521484375	0.8359375	-22.8125	7.5625	34.6875
18	12	03	12	35	04	0.928615182921	-0.0369273160028	0.319222913545	-0.6494140625	0.0673828125	0.8974609375	-19.5625	4.9375	33.375
18	12	03	12	35	04	0.927909581999	-0.0349141087293	0.318804877436	-0.57373046875	0.08837890625	0.85986328125	0.125	0.5625	27.3125
18	12	03	12	35	04	0.926999932314	-0.0294208182903	0.319539385373	-0.57666015625	0.1396484375	0.810546875	18.1875	1.0	29.9375
18	12	03	12	35	04	0.925919646086	-0.0237430944184	0.321050582624	-0.67529296875	0.12890625	0.81396484375	23.1875	0.0625	28.3125
18	12	03	12	35	04	0.925341226867	-0.0175790417769	0.321977240879	-0.5927734375	0.09423828125	0.759765625	30.125	-1.9375	21.6875
18	12	03	12	35	04	0.924605261734	-0.0111699737851	0.323501973012	-0.619140625	0.1064453125	0.7607421875	32.875	-0.125	20.375
18	12	03	12	35	04	0.924095659597	-0.0053101930241	0.32434903138	-0.6376953125	0.1328125	0.8134765625	29.125	-2.625	18.0
18	12	03	12	35	04	0.923558721043	-0.00177008809135	0.324231308319	-0.62548828125	0.11474609375	0.84716796875	15.0	-2.9375	22.0625
18	12	03	12	35	04	0.922782871595	0.00128181242912	0.323871273758	-0.5908203125	0.1796875	0.8486328125	6.5	-1.1875	26.1875
18	12	03	12	35	04	0.921982467673	0.00262464390003	0.323441582006	-0.58251953125	0.1875	0.83837890625	-3.375	0.375	23.3125
18	12	03	12	35	05	0.920976939567	0.00341803357517	0.322515882343	-0.4931640625	0.19580078125	0.7939453125	-10.125	1.75	29.375
18	12	03	12	35	05	0.919661214379	0.00250256253996	0.322037072215	-0.75439453125	0.13818359375	0.8232421875	-15.875	-6.75	34.6875
18	12	03	12	35	05	0.918672933429	0.0053712855054	0.321117420953	-0.53173828125	0.205078125	0.84326171875	2.25	-1.25	31.8125
18	12	03	12	35	05	0.918270509375	0.00970519881618	0.319111820195	-0.41015625	0.38818359375	0.84765625	0.375	-3.6875	19.625
18	12	03	12	35	05	0.91784772823	0.00817926418719	0.316000378336	-0.55322265625	0.2939453125	0.91357421875	-28.6875	-7.6875	23.3125
18	12	03	12	35	05	0.917933806533	0.00994901326317	0.311837477065	-0.28759765625	0.29833984375	0.859375	-12.3125	-6.125	20.9375
18	12	03	12	35	05	0.917336449993	0.0101322676624	0.309949730059	-0.513671875	0.216796875	0.80712890625	-12.375	-5.9375	22.75
18	12	03	12	35	05	0.916404482142	0.00939964634673	0.309211742809	-0.658203125	0.1689453125	0.75927734375	-12.625	-8.5625	24.375
18	12	03	12	35	05	0.915340063393	0.00933895903568	0.308307726073	-0.6328125	0.126953125	0.73486328125	-8.4375	-9.75	30.0625
18	12	03	12	35	05	0.914167792928	0.0113530887016	0.306899623612	-0.490234375	0.240234375	0.7744140625	-5.125	-5.5	31.9375
18	12	03	12	35	05	0.913055666801	0.0140995961649	0.305796436304	-0.4521484375	0.33203125	0.79150390625	-4.6875	-2.9375	25.6875
18	12	03	12	35	05	0.91212741502	0.0143445052888	0.303920390777	-0.5166015625	0.28173828125	0.77099609375	-16.125	-8.125	25.375
18	12	03	12	35	05	0.911276081688	0.0137332296303	0.302680381051	-0.63916015625	0.1318359375	0.73095703125	-9.9375	-12.4375	25.6875
18	12	03	12	35	05	0.910708060873	0.0142832229386	0.302206140039	-0.67333984375	-0.01611328125	0.73046875	8.9375	-12.9375	23.9375
18	12	03	12	35	05	0.910148370313	0.0195934294729	0.302629979211	-0.58837890625	0.05078125	0.75	34.375	-10.875	22.125
18	12	03	12	35	05	0.909203698598	0.0245978175708	0.30316962748	-0.6298828125	0.1767578125	0.794921875	25.6875	-9.375	24.0625
18	12	03	12	35	05	0.908235212418	0.0253915220676	0.302256772305	-0.57763671875	0.2021484375	0.853515625	-2.625	-4.875	25.0
18	12	03	12	35	05	0.906962867967	0.0213022438199	0.301039159083	-0.59912109375	0.12548828125	0.826171875	-27.375	-0.125	28.375
18	12	03	12	35	05	0.905321407048	0.0166634805909	0.300858226493	-0.6279296875	0.1328125	0.81396484375	-29.3125	4.875	27.5625
18	12	03	12	35	05	0.903874074563	0.0141611821514	0.300680962405	-0.51806640625	0.16845703125	0.74853515625	-20.0625	4.6875	23.375
18	12	03	12	35	05	0.902320338156	0.0119023517514	0.300854829654	-0.51806640625	0.19775390625	0.75830078125	-19.25	6.5	22.25
18	12	03	12	35	05	0.901309628155	0.00982736354686	0.300741740344	-0.5595703125	0.18505859375	0.78564453125	-15.8125	2.5625	15.3125
18	12	03	12	35	05	0.900482306242	0.00830106375984	0.300547337893	-0.5087890625	0.166015625	0.76708984375	-11.0625	2.875	13.5
18	12	03	12	35	05	0.899516930359	0.0067141794354	0.301039390685	-0.61669921875	0.12353515625	0.78125	-7.1875	1.1875	14.875
18	12	03	12	35	05	0.898845410278	0.00653106470866	0.300795204526	-0.57177734375	0.1689453125	0.83837890625	-3.0	-0.9375	13.6875
18	12	03	12	35	05	0.897849081894	0.00622573802537	0.300666524637	-0.56103515625	0.20849609375	0.828125	-6.9375	0.5625	16.5
18	12	03	12	35	05	0.896626892552	0.00366219288993	0.300482926619	-0.59423828125	0.16796875	0.8017578125	-17.875	2.125	18.4375
18	12	03	12	35	05	0.89538134989	0.00219740463536	0.300678200938	-0.580078125	0.1669921875	0.7939453125	-11.25	2.5	18.4375
18	12	03	12	35	05	0.894333495501	0.00177011134108	0.300857889662	-0.53076171875	0.185546875	0.7705078125	-6.1875	2.0	15.5625
18	12	03	12	35	05	0.893524066613	0.00115970744352	0.300913562976	-0.58935546875	0.1728515625	0.8134765625	-4.875	-0.25	13.1875
18	12	03	12	35	05	0.89303116914	0.00177007066537	0.300545791596	-0.55126953125	0.1650390625	0.84765625	2.0625	-2.125	12.25
18	12	03	12	35	05	0.892251460988	0.00183113584824	0.300672506282	-0.62646484375	0.17041015625	0.8515625	-0.5	-2.0	14.0625
18	12	03	12	35	05	0.891324069665	0.00158696335077	0.300546443815	-0.57763671875	0.21142578125	0.83349609375	-5.9375	-0.75	15.0
18	12	03	12	35	05	0.890338507777	-0.000732437245035	0.300360306901	-0.61181640625	0.169921875	0.82373046875	-14.75	1.1875	14.125
18	12	03	12	35	05	0.889577704839	-0.00115973489721	0.299455758195	-0.50830078125	0.26806640625	0.8291015625	-12.375	-0.625	12.125
18	12	03	12	35	05	0.889031445439	-0.00219740007111	0.297747709636	-0.43310546875	0.28857421875	0.85595703125	-18.0625	1.0	9.3125
18	12	03	12	35	05	0.888769067824	-0.00311291961122	0.29530009959	-0.3994140625	0.3154296875	0.8515625	-20.8125	-1.875	6.5625
18	12	03	12	35	05	0.888588869824	-0.00567651908872	0.292737479027	-0.4423828125	0.2060546875	0.80615234375	-23.3125	-3.8125	7.5625
18	12	03	12	35	05	0.88837936573	-0.0100105961234	0.291467051763	-0.83837890625	0.0458984375	0.8212890625	-19.0625	-15.9375	10.125
18	12	03	12	35	05	0.887673758614	-0.0099491729804	0.291028569145	-0.6123046875	0.05712890625	0.77197265625	2.8125	-8.625	18.125
18	12	03	12	35	05	0.886921586301	-0.00842361864484	0.291774616829	-0.50390625	0.1767578125	0.77099609375	7.5	0.875	11.375
18	12	03	12	35	05	0.884330256481	-0.0108649078999	0.293535629722	-0.7451171875	0.2900390625	0.76904296875	-23.5625	3.1875	25.3125
18	12	03	12	35	05	0.882245582202	-0.0137335862734	0.292311754059	-0.33251953125	0.30224609375	0.77294921875	-34.625	11.8125	22.6875
18	12	03	12	35	05	0.880526634396	-0.0195319924447	0.290965649949	-0.4541015625	0.14306640625	0.7451171875	-39.1875	9.4375	19.0625
18	12	03	12	35	05	0.879262174673	-0.0245375490607	0.290544113255	-0.5693359375	0.0439453125	0.7509765625	-24.625	4.9375	14.4375
18	12	03	12	35	05	0.879070982097	-0.0272840389527	0.289931062697	-0.6044921875	-0.04150390625	0.76513671875	-4.8125	-3.5625	8.5625
18	12	03	12	35	05	0.878576358125	-0.0283825209482	0.289257562954	-0.51953125	0.0634765625	0.84765625	-3.25	0.75	10.8125
18	12	03	12	35	05	0.877492621832	-0.0298479335056	0.289262488513	-0.55712890625	0.162109375	0.8740234375	-10.9375	4.5625	12.4375
18	12	03	12	35	05	0.875297525415	-0.0341207333826	0.288469742337	-0.60009765625	0.15966796875	0.85498046875	-31.6875	4.8125	24.875
18	12	03	12	35	05	0.872517192734	-0.0388802694489	0.287482055109	-0.5380859375	0.1689453125	0.78564453125	-38.4375	7.0	30.3125
18	12	03	12	35	06	0.869491410236	-0.0418112752553	0.287978973218	-0.56396484375	0.25732421875	0.76123046875	-30.875	8.25	28.5625
18	12	03	12	35	06	0.867339590906	-0.0440078708686	0.286997238314	-0.50537109375	0.2822265625	0.7822265625	-30.0625	2.125	21.75
18	12	03	12	35	06	0.865797781454	-0.0443732807273	0.285466071474	-0.5224609375	0.21533203125	0.84423828125	-16.4375	-4.4375	21.5
18	12	03	12	35	06	0.864976732516	-0.0416282641716	0.28413426645	-0.47705078125	0.2099609375	0.865234375	3.0625	-8.3125	18.125
18	12	03	12	35	06	0.864111599931	-0.0377823748222	0.283764556621	-0.51318359375	0.228515625	0.8701171875	10.875	-8.5	18.1875
18	12	03	12	35	06	0.862901612839	-0.0341205348785	0.283523943668	-0.48486328125	0.30029296875	0.87158203125	5.5625	-5.5625	18.6875
18	12	03	12	35	06	0.861247036495	-0.0320449818682	0.282484144925	-0.46240234375	0.3720703125	0.900390625	-9.875	-2.6875	20.75
18	12	03	12	35	06	0.859205525204	-0.0311894596419	0.279728558784	-0.48876953125	0.41455078125	0.998046875	-24.3125	-7.0625	26.8125
18	12	03	12	35	06	0.856312039642	-0.0330219412251	0.275528729556	-0.47802734375	0.27587890625	0.88330078125	-38.3125	-10.5	40.6875
18	12	03	12	35	06	0.852882672577	-0.0331435834258	0.275464073666	-0.3359375	0.22119140625	0.71337890625	-15.625	9.25	38.125
18	12	03	12	35	06	0.848308889211	-0.032777512844	0.276869270504	-0.5126953125	0.4482421875	0.669921875	-25.625	4.4375	42.0625
18	12	03	12	35	06	0.843432440098	-0.0389426759866	0.272232499843	-0.630859375	0.29296875	0.85302734375	-67.3125	-9.0	55.0625
18	12	03	12	35	06	0.841176375209	-0.0422999222132	0.267838468501	-0.39990234375	0.0546875	0.82470703125	-30.9375	-5.6875	33.75
18	12	03	12	35	06	0.838919525609	-0.042788313988	0.265824689612	-0.490234375	0.185546875	0.80810546875	-17.1875	-8.1875	29.125
18	12	03	12	35	06	0.836266019302	-0.045289350144	0.262519534999	-0.51611328125	0.13818359375	0.87841796875	-28.75	-7.8125	34.375
18	12	03	12	35	06	0.832979915922	-0.046632714572	0.25922662145	-0.38671875	0.1767578125	0.8603515625	-27.4375	-3.5	40.3125
18	12	03	12	35	06	0.828540601908	-0.0505401221732	0.257095404099	-0.56982421875	0.1240234375	0.802734375	-36.25	-2.75	47.8125
18	12	03	12	35	06	0.823158562854	-0.0537744841965	0.257031047618	-0.630859375	0.11376953125	0.7451171875	-27.375	1.0625	54.9375
18	12	03	12	35	06	0.817943735308	-0.0543220598779	0.256595437895	-0.51953125	0.14501953125	0.79638671875	-17.3125	0.0	56.125
18	12	03	12	35	06	0.81319741268	-0.0544451018622	0.256050675238	-0.50390625	0.1279296875	0.8623046875	-12.0	0.1875	52.0625
18	12	03	12	35	06	0.808881709993	-0.0542631934941	0.255262851735	-0.4921875	0.17529296875	0.900390625	-12.625	-0.0625	46.25
18	12	03	12	35	06	0.805212698802	-0.0584133226769	0.253917891678	-0.6728515625	-0.009765625	0.859375	-21.375	-2.5	40.4375
18	12	03	12	35	06	0.801504084314	-0.0612221914985	0.255448525844	-0.65869140625	-0.01904296875	0.81494140625	-5.0625	6.8125	37.0625
18	12	03	12	35	06	0.797335221618	-0.0642116399864	0.25733486139	-0.59130859375	0.06005859375	0.75146484375	-10.75	11.875	37.0625
18	12	03	12	35	06	0.792781311111	-0.0691577783715	0.259356928773	-0.5791015625	0.04833984375	0.70263671875	-19.8125	19.0	36.375
18	12	03	12	35	06	0.788731969107	-0.0750766384462	0.261547476213	-0.6142578125	0.02880859375	0.66357421875	-21.375	19.1875	29.4375
18	12	03	12	35	06	0.785730726483	-0.0799586150619	0.262825798822	-0.54150390625	-0.0029296875	0.68310546875	-15.625	16.125	22.625
18	12	03	12	35	06	0.78415928612	-0.0832562673206	0.264662151834	-0.60302734375	-0.0771484375	0.7001953125	1.3125	9.875	14.1875
18	12	03	12	35	06	0.783545858169	-0.0846598196837	0.266797456264	-0.54296875	-0.12255859375	0.77880859375	17.1875	10.9375	9.4375
18	12	03	12	35	06	0.782767727868	-0.0849056386045	0.269976735836	-0.568359375	-0.03369140625	0.8671875	21.625	14.4375	9.5625
18	12	03	12	35	06	0.781573580149	-0.0868550725929	0.271856987582	-0.54345703125	0.0693359375	0.96337890625	3.0625	19.625	7.4375
18	12	03	12	35	06	0.779697667422	-0.0932048174536	0.271374340798	-0.49169921875	0.10205078125	0.96337890625	-29.3125	26.875	5.8125
18	12	03	12	35	06	0.776833592356	-0.103276690364	0.270033143128	-0.5107421875	0.07373046875	0.89111328125	-50.625	32.9375	7.4375
18	12	03	12	35	06	0.773458953457	-0.113650613268	0.26911146826	-0.5888671875	0.0400390625	0.86865234375	-50.6875	31.4375	11.875
18	12	03	12	35	06	0.770552380223	-0.121650102486	0.269058530737	-0.54931640625	0.04443359375	0.8525390625	-36.5625	29.5	10.125
18	12	03	12	35	06	0.768039941979	-0.12695883965	0.27033687539	-0.54345703125	0.04345703125	0.8173828125	-19.9375	26.5	10.5625
