18	12	12	15	34	28	0.409979618014	-0.227237474746	0.0552376885965	-0.5751953125	-0.18212890625	0.84423828125	25.3125	-14.0625	16.0
18	12	12	15	34	28	0.406736262994	-0.22411998165	0.0589596683752	-0.49267578125	-0.083984375	0.8671875	21.625	-12.875	26.875
18	12	12	15	34	28	0.402164658925	-0.223024687162	0.0576177626385	-0.48583984375	-0.1318359375	0.833984375	-7.1875	-14.8125	28.8125
18	12	12	15	34	28	0.397172499853	-0.222726671579	0.0543235784338	-0.4248046875	-0.13623046875	0.85302734375	-19.5	-11.25	28.875
18	12	12	15	34	28	0.392281853409	-0.222966486775	0.052125206599	-0.45458984375	-0.11669921875	0.83740234375	-16.0625	-7.8125	28.125
18	12	12	15	34	28	0.388252416872	-0.222294498074	0.0507212322623	-0.51611328125	-0.0791015625	0.83642578125	-11.1875	-14.8125	23.0625
18	12	12	15	34	28	0.383185230991	-0.221195169976	0.0499886435459	-0.4560546875	-0.03466796875	0.828125	-11.125	-12.375	29.3125
18	12	12	15	34	28	0.37867856893	-0.220224415974	0.05096657077	-0.486328125	-0.0634765625	0.822265625	0.5	-9.8125	28.625
18	12	12	15	34	28	0.375265126162	-0.217053153649	0.0540191341337	-0.50048828125	-0.0712890625	0.87451171875	18.0625	-16.3125	26.4375
18	12	12	15	34	28	0.370736609558	-0.212712723791	0.0571303040082	-0.35693359375	-0.00341796875	0.8798828125	15.75	-14.125	33.125
18	12	12	15	34	28	0.367204637317	-0.209665546739	0.0599393207854	-0.4638671875	0.04736328125	0.89013671875	10.0625	-14.125	23.875
18	12	12	15	34	28	0.363613359601	-0.207229705531	0.0604292808469	-0.5263671875	-0.0234375	0.9111328125	1.5	-19.1875	23.25
18	12	12	15	34	28	0.359641976403	-0.204236600992	0.0615273442319	-0.43359375	-0.11669921875	0.9189453125	11.625	-15.5	29.75
18	12	12	15	34	28	0.356334172564	-0.200811823867	0.0653096205282	-0.38671875	-0.025390625	0.91552734375	22.0	-9.125	26.6875
18	12	12	15	34	28	0.352673544607	-0.1986764257	0.0661034006246	-0.37890625	0.00439453125	0.89306640625	2.1875	-9.125	23.9375
18	12	12	15	34	28	0.349623565473	-0.196846368479	0.0649440421898	-0.30517578125	-0.1005859375	0.90234375	-1.1875	-6.5	21.1875
18	12	12	15	34	28	0.347170872248	-0.194642741139	0.0670781977146	-0.36767578125	-0.015625	0.88330078125	12.4375	-6.25	18.5625
18	12	12	15	34	28	0.345108992056	-0.193795728648	0.0696443862639	-0.50927734375	0.0400390625	0.84716796875	9.5625	-8.125	13.875
18	12	12	15	34	28	0.343086947224	-0.192326449155	0.0719011606172	-0.42236328125	-0.00146484375	0.85107421875	12.1875	-6.6875	15.75
18	12	12	15	34	28	0.341859344786	-0.190247380414	0.0748904510001	-0.3818359375	0.02294921875	0.81787109375	17.1875	-6.8125	11.25
18	12	12	15	34	28	0.341993524261	-0.188545064509	0.0773956431846	-0.4609375	-0.00390625	0.8330078125	17.4375	-10.5	3.4375
18	12	12	15	34	29	0.342731259529	-0.186350585101	0.0799604541378	-0.46923828125	-0.0263671875	0.87548828125	21.5625	-12.6875	0.9375
18	12	12	15	34	29	0.343571694206	-0.183413206802	0.0828258641033	-0.4267578125	0.00634765625	0.94677734375	22.875	-11.8125	0.5625
18	12	12	15	34	29	0.345412646288	-0.180793825465	0.0853307792031	-0.3984375	-0.02392578125	0.9833984375	24.125	-8.0625	-5.125
18	12	12	15	34	29	0.34749266048	-0.178476820524	0.0881397157445	-0.35400390625	0.02734375	1.01904296875	22.75	-2.0	-7.8125
18	12	12	15	34	29	0.350289560322	-0.178166096285	0.0906394837215	-0.3916015625	-0.01220703125	1.00341796875	20.8125	5.125	-13.0625
18	12	12	15	34	29	0.353225747837	-0.178901791413	0.0941813251965	-0.51611328125	0.0078125	0.99365234375	23.6875	5.625	-13.75
18	12	12	15	34	29	0.353277525806	-0.179751609105	0.0961320150561	-0.30859375	0.05322265625	0.9814453125	8.6875	16.0	-0.1875
18	12	12	15	34	29	0.35462997264	-0.182259053064	0.0966229340258	-0.296875	-0.001953125	0.87890625	2.3125	20.1875	-8.9375
18	12	12	15	34	29	0.357914640954	-0.187014062053	0.0969860785258	-0.5576171875	-0.109375	0.8857421875	6.5	16.0625	-19.4375
18	12	12	15	34	29	0.358291003556	-0.190193316368	0.0988809924635	-0.384765625	-0.01953125	0.80810546875	7.9375	20.125	-2.25
18	12	12	15	34	29	0.360435274998	-0.194042970232	0.100226032438	-0.521484375	-0.0380859375	0.80224609375	7.0625	14.5	-12.875
18	12	12	15	34	29	0.361156093781	-0.195928859395	0.102481169758	-0.39453125	-0.0126953125	0.85888671875	12.75	16.125	-2.5625
18	12	12	15	34	29	0.362685789325	-0.197700988156	0.105412042774	-0.4169921875	0.01318359375	0.81689453125	15.875	14.25	-7.5
18	12	12	15	34	29	0.364212217334	-0.198494742881	0.10803680655	-0.4208984375	0.05615234375	0.89208984375	14.0	10.625	-8.125
18	12	12	15	34	29	0.366099561112	-0.199773901887	0.11108722928	-0.431640625	0.001953125	0.80712890625	18.875	11.5	-8.6875
18	12	12	15	34	29	0.369155263031	-0.201790228105	0.11548309485	-0.6630859375	0.0029296875	0.8876953125	26.9375	6.5625	-14.125
18	12	12	15	34	29	0.369950321392	-0.201852122231	0.119390006376	-0.46142578125	0.05810546875	0.87841796875	21.875	8.0625	-1.1875
18	12	12	15	34	29	0.372441434358	-0.202639390703	0.124635432474	-0.513671875	0.03564453125	0.90576171875	31.75	12.4375	-10.0625
18	12	12	15	34	29	0.375122052146	-0.204528798689	0.130981438969	-0.55810546875	0.05712890625	0.84130859375	34.6875	17.0625	-11.5
18	12	12	15	34	29	0.379277403358	-0.20813259502	0.136842603529	-0.69873046875	-0.04150390625	0.83056640625	37.1875	16.75	-19.125
18	12	12	15	34	29	0.382159322255	-0.209909904046	0.144355022701	-0.5361328125	0.06884765625	0.8154296875	41.375	21.3125	-12.125
18	12	12	15	34	29	0.386068955147	-0.212475262113	0.1502769593	-0.5185546875	0.0732421875	0.84033203125	33.5625	24.1875	-20.875
18	12	12	15	34	29	0.390270904369	-0.21533871608	0.153386109271	-0.47802734375	0.0283203125	0.90771484375	22.0625	24.5625	-24.6875
18	12	12	15	34	29	0.395344110537	-0.21857762233	0.156013516525	-0.50634765625	-0.0263671875	0.89306640625	23.25	23.4375	-28.375
18	12	12	15	34	29	0.401443236187	-0.221749015823	0.161627138425	-0.5927734375	0.00439453125	0.85400390625	38.75	24.3125	-33.0625
18	12	12	15	34	29	0.406029242973	-0.224195040505	0.167978424032	-0.611328125	0.16357421875	0.8544921875	32.3125	23.25	-27.625
18	12	12	15	34	29	0.410108418834	-0.227058091689	0.170720828617	-0.56298828125	0.11279296875	0.84375	15.3125	19.25	-26.9375
18	12	12	15	34	29	0.41448835796	-0.228758999504	0.174682032172	-0.52197265625	0.1357421875	0.8759765625	23.375	20.375	-27.0
18	12	12	15	34	29	0.418347094538	-0.228705363763	0.177739530098	-0.4296875	0.193359375	0.93994140625	19.1875	17.0625	-24.875
18	12	12	15	34	29	0.423970783477	-0.229198141658	0.179329997388	-0.4560546875	0.11572265625	0.939453125	18.0	14.375	-34.8125
18	12	12	15	34	29	0.429267044726	-0.228824420685	0.179873450989	-0.34814453125	0.08935546875	1.03076171875	16.0625	16.5	-32.125
18	12	12	15	34	29	0.435433296545	-0.228336972578	0.178104059338	-0.3828125	0.1318359375	1.0869140625	3.8125	9.6875	-40.8125
18	12	12	15	34	29	0.440812732494	-0.226998414864	0.172247788853	-0.3154296875	0.12646484375	1.0869140625	-17.1875	-2.375	-38.25
18	12	12	15	34	29	0.446367520492	-0.224373992251	0.165777955102	-0.19580078125	0.0947265625	1.06640625	-16.3125	-5.1875	-37.6875
18	12	12	15	34	29	0.454189849649	-0.223341037477	0.161081442444	-0.36474609375	0.080078125	0.96923828125	-7.125	-6.6875	-52.0625
18	12	12	15	34	29	0.4621788534	-0.22327657762	0.158027080223	-0.591796875	0.1103515625	0.9521484375	-3.875	-11.3125	-54.125
18	12	12	15	34	29	0.466564873351	-0.221929602237	0.153568448633	-0.52587890625	0.19873046875	0.9873046875	-19.5	-16.3125	-34.0625
18	12	12	15	34	29	0.469425108937	-0.221559374001	0.146302429609	-0.3935546875	0.1240234375	1.021484375	-35.0625	-10.625	-26.8125
18	12	12	15	34	29	0.473095850815	-0.22064785198	0.13910275371	-0.28466796875	0.16259765625	1.07177734375	-35.1875	-5.1875	-33.25
18	12	12	15	34	29	0.478414940198	-0.221140256231	0.132024944584	-0.40185546875	0.05810546875	0.9541015625	-30.0625	-9.6875	-42.25
18	12	12	15	34	29	0.482865808992	-0.223030168886	0.124088761178	-0.4794921875	-0.00634765625	0.88134765625	-36.375	-12.375	-38.0
18	12	12	15	34	29	0.487496715387	-0.225162812453	0.116823427225	-0.56005859375	-0.0625	0.8505859375	-30.875	-15.125	-37.9375
18	12	12	15	34	29	0.489149001766	-0.225164795048	0.111025958849	-0.0810546875	0.15234375	0.9462890625	-37.125	9.9375	-21.4375
18	12	12	15	34	29	0.494898684293	-0.232922222405	0.109197551332	-0.6259765625	-0.029296875	0.4658203125	-19.8125	13.4375	-51.0625
18	12	12	15	34	29	0.503192421072	-0.238717316693	0.112858174013	-1.3798828125	-0.25146484375	0.56396484375	28.9375	-21.8125	-55.0625
18	12	12	15	34	29	0.504946880897	-0.242311025887	0.115296102746	-0.5908203125	-0.03662109375	0.63623046875	4.6875	13.6875	-15.25
18	12	12	15	34	29	0.506740954395	-0.251173094114	0.115911957648	-0.6328125	-0.09619140625	0.5986328125	-14.75	32.0	-24.0
18	12	12	15	34	29	0.510333141335	-0.263681278623	0.10730363144	-0.75732421875	-0.4931640625	0.57421875	-42.8125	15.5	-38.5
18	12	12	15	34	29	0.515588790721	-0.273023400129	0.103276457192	-0.63818359375	-0.48974609375	0.685546875	-11.8125	26.25	-39.875
18	12	12	15	34	29	0.517411674438	-0.281381127658	0.0997956927812	-0.5234375	-0.21826171875	0.736328125	-29.8125	31.625	-25.8125
18	12	12	15	34	29	0.520696191191	-0.289553713634	0.0975962032252	-0.54052734375	-0.275390625	0.70556640625	-17.625	33.625	-32.25
18	12	12	15	34	30	0.523082490906	-0.295599592002	0.0974752319692	-0.5849609375	-0.1298828125	0.6845703125	-13.0	26.6875	-26.8125
18	12	12	15	34	30	0.527067285967	-0.299332712262	0.0971122237376	-0.6337890625	-0.2236328125	0.64697265625	1.375	10.875	-31.1875
18	12	12	15	34	30	0.531154151123	-0.300429870355	0.0996753308186	-0.5732421875	-0.0126953125	0.693359375	9.9375	12.1875	-31.25
18	12	12	15	34	30	0.532922719288	-0.303175712599	0.0977828652273	-0.7841796875	-0.10791015625	0.77001953125	-16.1875	-3.5625	-23.75
18	12	12	15	34	30	0.535974332404	-0.302626208867	0.0944867630751	-0.56982421875	-0.19677734375	0.93115234375	-7.3125	-6.0	-22.8125
18	12	12	15	34	30	0.537989624363	-0.301344993814	0.0926558032429	-0.55615234375	-0.12109375	0.9306640625	-5.4375	-5.125	-15.9375
18	12	12	15	34	30	0.540357640929	-0.299018647115	0.0922264086121	-0.55810546875	-0.05908203125	0.923828125	1.1875	-6.625	-16.875
18	12	12	15	34	30	0.542128694011	-0.297615346994	0.0920434666256	-0.6083984375	-0.06201171875	0.89013671875	-0.75	-5.75	-14.8125
18	12	12	15	34	30	0.543418428838	-0.296643105038	0.0916175515765	-0.6259765625	-0.08837890625	0.87939453125	-2.4375	-6.125	-12.0625
18	12	12	15	34	30	0.545680125441	-0.296766976498	0.0927778289341	-0.658203125	-0.16162109375	0.775390625	8.875	-0.9375	-15.5
18	12	12	15	34	30	0.54787288305	-0.295909952877	0.0933874232471	-0.58642578125	-0.1806640625	0.72509765625	10.625	-5.5625	-12.625
18	12	12	15	34	30	0.55073896941	-0.29542021633	0.093325931977	-0.5380859375	-0.2255859375	0.71728515625	10.75	-3.0625	-16.25
18	12	12	15	34	30	0.553361639846	-0.295114000513	0.0924710880616	-0.54541015625	-0.1689453125	0.76220703125	2.4375	-3.75	-18.625
18	12	12	15	34	30	0.555746690455	-0.29554370952	0.0883823402283	-0.53662109375	-0.28759765625	0.8173828125	-9.5	-8.4375	-18.125
18	12	12	15	34	30	0.558259083457	-0.294694386063	0.084782622668	-0.44580078125	-0.2548828125	0.86962890625	-6.0	-6.875	-16.875
18	12	12	15	34	30	0.560198047169	-0.293099915287	0.0820948325825	-0.4677734375	-0.17919921875	0.87939453125	-5.625	-9.0	-13.5625
18	12	12	15	34	30	0.562097259188	-0.291943879976	0.0805699187891	-0.5234375	-0.125	0.8525390625	-4.625	-7.1875	-15.8125
18	12	12	15	34	30	0.56282046071	-0.291328712609	0.0778219376863	-0.58251953125	-0.076171875	0.90283203125	-17.5625	-11.1875	-13.3125
18	12	12	15	34	30	0.563554607288	-0.29059714993	0.0739158052016	-0.48681640625	-0.16748046875	0.92138671875	-18.125	-10.1875	-10.375
18	12	12	15	34	30	0.564337923017	-0.290897095079	0.0719613250311	-0.56103515625	-0.14599609375	0.7880859375	-11.875	-7.25	-11.375
18	12	12	15	34	30	0.565079962791	-0.292794186812	0.0706807730516	-0.71337890625	-0.212890625	0.7158203125	-8.8125	-8.625	-13.1875
18	12	12	15	34	30	0.564544258297	-0.293472677467	0.0692785958663	-0.58203125	-0.12255859375	0.7822265625	-14.625	-6.375	-4.125
18	12	12	15	34	30	0.563314877994	-0.296031764901	0.0671412250291	-0.59765625	-0.2451171875	0.697265625	-17.1875	-3.625	0.5625
18	12	12	15	34	30	0.564282575612	-0.297369898148	0.0672012023525	-0.6298828125	-0.23828125	0.7783203125	-1.25	0.8125	-10.0625
18	12	12	15	34	30	0.565322647845	-0.300545100193	0.065858684628	-0.634765625	-0.38037109375	0.662109375	-3.1875	0.9375	-10.625
18	12	12	15	34	30	0.566956279233	-0.303100967022	0.0665284039577	-0.68212890625	-0.43408203125	0.68408203125	11.1875	3.875	-9.5625
18	12	12	15	34	30	0.568630001495	-0.304457540517	0.0673249132298	-0.57666015625	-0.41357421875	0.73291015625	13.6875	6.375	-6.5625
18	12	12	15	34	30	0.56874184953	-0.305916951046	0.0675068132196	-0.55615234375	-0.23193359375	0.7490234375	-3.4375	5.1875	-3.875
18	12	12	15	34	30	0.568327225318	-0.30677828745	0.0654940514194	-0.47119140625	-0.18212890625	0.83984375	-16.8125	2.4375	-3.125
18	12	12	15	34	30	0.568201719382	-0.308607572585	0.0651274287872	-0.5546875	-0.1611328125	0.73681640625	-11.4375	4.9375	-6.5
18	12	12	15	34	30	0.568816811398	-0.307877668923	0.0659825059686	-0.58203125	-0.18798828125	0.80224609375	3.75	-2.5	-4.75
18	12	12	15	34	30	0.572181243709	-0.305440040913	0.068424917239	-0.6044921875	-0.29833984375	0.8349609375	27.375	-3.375	-14.25
18	12	12	15	34	30	0.574775917196	-0.301456754277	0.0727548999997	-0.4130859375	-0.05224609375	0.78515625	26.625	3.5625	-9.625
18	12	12	15	34	30	0.577280879955	-0.299932146764	0.0744031922885	-0.63720703125	-0.22314453125	0.8857421875	15.375	-2.1875	-14.1875
18	12	12	15	34	30	0.578938251682	-0.296579964673	0.0723291331833	-0.21826171875	-0.0498046875	1.00244140625	-8.8125	2.4375	-10.3125
18	12	12	15	34	30	0.580940518633	-0.297794577686	0.0698862044374	-0.54150390625	-0.29833984375	0.87158203125	-8.3125	1.0625	-17.1875
18	12	12	15	34	30	0.583702061935	-0.296825591048	0.068545165278	-0.517578125	-0.28125	0.94384765625	2.6875	-1.9375	-17.875
18	12	12	15	34	30	0.585663060639	-0.295181507165	0.0675084257495	-0.48974609375	-0.24267578125	0.91796875	2.875	-4.1875	-11.5625
18	12	12	15	34	30	0.5855819816	-0.293340317237	0.065613991059	-0.5556640625	-0.20947265625	0.95556640625	-6.9375	-13.125	-1.0
18	12	12	15	34	30	0.584843010019	-0.290956650883	0.0617680156689	-0.43212890625	-0.14599609375	0.9833984375	-19.3125	-15.375	1.375
18	12	12	15	34	30	0.582782129201	-0.290048248635	0.0567034560146	-0.466796875	-0.0947265625	0.93359375	-34.25	-18.0	3.6875
18	12	12	15	34	30	0.579849705858	-0.289070337573	0.0506605532486	-0.4267578125	-0.0830078125	0.9833984375	-41.75	-19.125	8.0625
18	12	12	15	34	30	0.576868622662	-0.287610300495	0.0457783797478	-0.43896484375	-0.07666015625	0.9990234375	-36.5625	-18.0	9.875
18	12	12	15	34	30	0.574116436734	-0.284799839868	0.0418105208551	-0.33203125	-0.025390625	0.94287109375	-29.5	-17.4375	12.25
18	12	12	15	34	30	0.571554855449	-0.283824228731	0.0372938932806	-0.58447265625	-0.2177734375	0.92724609375	-26.125	-25.9375	8.5625
18	12	12	15	34	30	0.56875392206	-0.280165325419	0.0328995883227	-0.26953125	-0.05615234375	0.98193359375	-27.875	-19.125	14.1875
18	12	12	15	34	30	0.565511681502	-0.279002039519	0.0281992873021	-0.361328125	-0.13330078125	0.87548828125	-31.5625	-17.6875	14.375
18	12	12	15	34	30	0.562418097639	-0.278157073035	0.0252093199832	-0.408203125	-0.10498046875	0.76220703125	-24.375	-16.6875	13.0
18	12	12	15	34	30	0.559219412652	-0.278144822468	0.0218511842097	-0.50927734375	-0.2001953125	0.75634765625	-23.25	-20.1875	13.3125
18	12	12	15	34	30	0.555306046684	-0.279362032938	0.0189211776733	-0.5576171875	-0.173828125	0.69091796875	-26.8125	-18.0625	14.875
18	12	12	15	34	31	0.552456833509	-0.280958877985	0.0167244693826	-0.69140625	-0.32958984375	0.7431640625	-15.1875	-19.0	10.8125
18	12	12	15	34	31	0.548978866397	-0.282546494613	0.015503739389	-0.63525390625	-0.2939453125	0.67041015625	-12.375	-15.125	16.25
18	12	12	15	34	31	0.545003988103	-0.285045203768	0.0144048539806	-0.6650390625	-0.373046875	0.6494140625	-10.4375	-12.75	20.625
18	12	12	15	34	31	0.541687654434	-0.288635596374	0.0126953275631	-0.64404296875	-0.4580078125	0.61572265625	-10.5	-7.5625	16.9375
18	12	12	15	34	31	0.539010895367	-0.292363513623	0.0098268320863	-0.65087890625	-0.53466796875	0.6904296875	-12.375	-7.75	12.625
18	12	12	15	34	31	0.537812940043	-0.295794065083	0.00933893767184	-0.60546875	-0.55859375	0.6318359375	4.1875	0.875	8.75
18	12	12	15	34	31	0.536716066188	-0.299213255596	0.00970520351688	-0.57666015625	-0.5185546875	0.6240234375	5.8125	5.25	8.875
18	12	12	15	34	31	0.53627549832	-0.303661575705	0.0113529754937	-0.6826171875	-0.56884765625	0.53662109375	13.8125	7.1875	5.0625
18	12	12	15	34	31	0.535596687872	-0.30554951789	0.0142825783433	-0.62255859375	-0.4013671875	0.6728515625	15.0	6.125	7.4375
18	12	12	15	34	31	0.533691034465	-0.307189727409	0.0175170776408	-0.47900390625	-0.21728515625	0.6826171875	4.125	13.125	13.5625
18	12	12	15	34	31	0.533211359548	-0.30981923776	0.0206302014111	-0.62158203125	-0.32666015625	0.7021484375	9.0625	12.625	3.75
18	12	12	15	34	31	0.534083640017	-0.310500968773	0.0238048708122	-0.51025390625	-0.28369140625	0.74462890625	14.5625	12.25	-1.6875
18	12	12	15	34	31	0.535462919855	-0.312378801301	0.0275269322757	-0.56103515625	-0.37744140625	0.75537109375	19.5	18.9375	-3.1875
18	12	12	15	34	31	0.537005343506	-0.313059832558	0.0305796404975	-0.46826171875	-0.35595703125	0.7724609375	18.75	16.4375	-2.3125
18	12	12	15	34	31	0.538224114548	-0.314706683444	0.0342417473647	-0.59033203125	-0.3876953125	0.703125	21.5	14.375	-2.0625
18	12	12	15	34	31	0.538182801183	-0.315267570388	0.0372949633121	-0.49365234375	-0.23779296875	0.76171875	10.25	13.4375	3.6875
18	12	12	15	34	31	0.53791159706	-0.315740008123	0.0380255219526	-0.53125	-0.3076171875	0.82763671875	2.125	5.875	3.3125
18	12	12	15	34	31	0.5391932347	-0.314336105807	0.0413825009199	-0.5595703125	-0.287109375	0.8369140625	21.6875	4.4375	-0.6875
18	12	12	15	34	31	0.540596605666	-0.312504755674	0.0469367494363	-0.64013671875	-0.263671875	0.83154296875	32.6875	5.3125	0.375
18	12	12	15	34	31	0.54201447748	-0.309033704896	0.0546287114126	-0.5703125	-0.13330078125	0.88232421875	39.3125	9.4375	3.0625
18	12	12	15	34	31	0.542817701666	-0.306963929122	0.0604283734004	-0.56591796875	-0.20068359375	0.91650390625	29.875	11.6875	4.875
18	12	12	15	34	31	0.545181600417	-0.305184505384	0.0655536317564	-0.5654296875	-0.25	0.93115234375	31.875	13.625	-4.75
18	12	12	15	34	31	0.547426100815	-0.306031270988	0.069763410997	-0.669921875	-0.36767578125	0.83349609375	28.375	14.4375	-6.5625
18	12	12	15	34	31	0.549401008388	-0.305921325857	0.0739167449348	-0.59130859375	-0.32568359375	0.86474609375	27.875	15.0625	-3.375
18	12	12	15	34	31	0.550208029728	-0.306539241767	0.0778250763149	-0.57373046875	-0.28515625	0.79150390625	21.3125	15.625	1.5625
18	12	12	15	34	31	0.550854995978	-0.307441176149	0.080873448163	-0.65283203125	-0.310546875	0.80810546875	17.5	10.625	1.125
18	12	12	15	34	31	0.550672224783	-0.305976486681	0.0841084377911	-0.42724609375	-0.10546875	0.86865234375	11.5	13.75	6.0
18	12	12	15	34	31	0.549578595495	-0.305857212575	0.0865506939596	-0.39697265625	-0.0576171875	0.8134765625	0.75	16.875	7.625
18	12	12	15	34	31	0.549637172359	-0.305001327071	0.0907618517821	-0.3896484375	-0.02490234375	0.810546875	11.8125	20.375	2.6875
18	12	12	15	34	31	0.550972904339	-0.305851913553	0.0958266821549	-0.517578125	-0.099609375	0.6005859375	20.375	17.75	-6.25
18	12	12	15	34	31	0.554026296701	-0.305364499548	0.103456491452	-0.77978515625	-0.22607421875	0.669921875	46.375	9.75	-10.0625
18	12	12	15	34	31	0.558126880604	-0.302623914483	0.111210321135	-0.62060546875	-0.2236328125	0.7880859375	54.625	13.125	-10.3125
18	12	12	15	34	31	0.561915432182	-0.300611938246	0.118657788416	-0.6083984375	-0.23828125	0.69384765625	53.3125	13.0625	-9.5625
18	12	12	15	34	31	0.566131581791	-0.299332536615	0.123969082762	-0.68212890625	-0.388671875	0.787109375	50.3125	9.4375	-10.375
18	12	12	15	34	31	0.570202166902	-0.298101839344	0.127016774708	-0.52587890625	-0.4013671875	0.8056640625	40.3125	11.4375	-10.375
18	12	12	15	34	31	0.573011191029	-0.298712906785	0.130618230592	-0.65380859375	-0.39697265625	0.7890625	34.3125	14.375	-6.125
18	12	12	15	34	31	0.575093148539	-0.298411208152	0.135014439033	-0.7080078125	-0.2939453125	0.80859375	33.5625	10.5625	-3.4375
18	12	12	15	34	31	0.576563483943	-0.296582888892	0.139105248773	-0.5751953125	-0.10888671875	0.8759765625	24.625	11.75	-2.3125
18	12	12	15	34	31	0.577280847695	-0.297490680024	0.142458606314	-0.67333984375	-0.04736328125	0.890625	8.125	18.0	-7.375
18	12	12	15	34	31	0.5777903468	-0.298783408788	0.142341758793	-0.56005859375	-0.02685546875	0.9580078125	-10.6875	16.9375	-10.75
18	12	12	15	34	31	0.579239244954	-0.301216614737	0.140689827146	-0.5478515625	-0.1640625	0.87890625	-10.9375	14.375	-15.25
18	12	12	15	34	31	0.581062431502	-0.301517690296	0.14032169433	-0.53466796875	-0.14990234375	0.91455078125	1.0	11.1875	-12.4375
18	12	12	15	34	31	0.582963956909	-0.301583594502	0.139652552969	-0.45458984375	-0.11669921875	0.7958984375	-0.375	8.375	-13.5625
18	12	12	15	34	31	0.585053437766	-0.302567542098	0.13904556403	-0.68603515625	-0.16455078125	0.73583984375	0.5625	-2.375	-17.25
18	12	12	15	34	31	0.585828268772	-0.302191681464	0.135378943544	-0.49072265625	-0.0625	0.8505859375	-19.0625	-5.375	-11.4375
18	12	12	15	34	31	0.586139883179	-0.304331298296	0.130436418864	-0.552734375	-0.08544921875	0.767578125	-31.5	-5.3125	-15.3125
18	12	12	15	34	31	0.586275093364	-0.307695236403	0.125556258933	-0.64794921875	-0.13818359375	0.78076171875	-33.25	-3.4375	-15.8125
18	12	12	15	34	31	0.587472662623	-0.313054263542	0.122987783396	-0.70947265625	-0.27783203125	0.689453125	-19.0625	8.6875	-20.3125
18	12	12	15	34	31	0.587550569668	-0.317030714612	0.124334148183	-0.75830078125	-0.14501953125	0.7685546875	-8.5	16.625	-11.3125
18	12	12	15	34	31	0.586805110636	-0.323188377452	0.124331392799	-0.75390625	-0.27490234375	0.6494140625	-14.875	18.1875	-7.0625
18	12	12	15	34	32	0.587070648103	-0.328510524859	0.124396962033	-0.728515625	-0.33447265625	0.68798828125	-7.4375	18.875	-9.125
18	12	12	15	34	32	0.586508142638	-0.334362743821	0.122257863431	-0.66015625	-0.3701171875	0.61181640625	-18.4375	13.625	-5.8125
18	12	12	15	34	32	0.586322236697	-0.340342784907	0.119327500806	-0.5966796875	-0.41650390625	0.66162109375	-19.875	17.8125	-6.9375
18	12	12	15	34	32	0.585788329215	-0.345906268799	0.115790399137	-0.63134765625	-0.3818359375	0.68359375	-25.25	12.75	-7.5625
18	12	12	15	34	32	0.584335534637	-0.351834327969	0.111581046414	-0.6240234375	-0.3251953125	0.65625	-34.3125	11.1875	-6.0
18	12	12	15	34	32	0.583158641133	-0.356951196708	0.104985646091	-0.72021484375	-0.36376953125	0.83740234375	-43.625	1.875	-10.8125
18	12	12	15	34	32	0.58065311258	-0.364518068782	0.0963177348524	-0.68310546875	-0.36865234375	0.7099609375	-61.625	2.625	-10.75
18	12	12	15	34	32	0.577775481021	-0.371226545064	0.0881983488354	-0.70947265625	-0.3115234375	0.91748046875	-66.0	8.0	-10.1875
18	12	12	15	34	32	0.572465639043	-0.378490183144	0.0772727901726	-0.51025390625	-0.2509765625	0.82080078125	-87.4375	4.625	0.125
18	12	12	15	34	32	0.570562496438	-0.385563039152	0.0679328261163	-0.56103515625	-0.3564453125	0.8173828125	-67.8125	11.3125	-17.5
18	12	12	15	34	32	0.56799925066	-0.393375797389	0.0542608353575	-0.4501953125	-0.33203125	0.73388671875	-90.4375	1.625	-23.25
18	12	12	15	34	32	0.566723090326	-0.401863740087	0.040894396394	-0.49072265625	-0.4384765625	0.63232421875	-81.6875	3.0	-31.0625
18	12	12	15	34	32	0.565863823657	-0.409489849306	0.0304569138178	-0.58203125	-0.36669921875	0.53759765625	-68.0	1.0	-33.5
18	12	12	15	34	32	0.56562499647	-0.414193506642	0.0212406926483	-0.64697265625	-0.41064453125	0.64208984375	-53.8125	-7.5	-30.875
18	12	12	15	34	32	0.56654847544	-0.417434283941	0.0185553476119	-0.6630859375	-0.33251953125	0.57568359375	-22.0	5.125	-25.375
18	12	12	15	34	32	0.569857085112	-0.417382470865	0.0203258793212	-0.72607421875	-0.3115234375	0.63818359375	9.75	5.8125	-27.25
18	12	12	15	34	32	0.573391418325	-0.417134016695	0.0216685068667	-0.7744140625	-0.50244140625	0.6572265625	17.25	2.3125	-23.0625
18	12	12	15	34	32	0.578623194661	-0.412787833912	0.0256352048267	-0.69384765625	-0.4697265625	0.82275390625	39.0625	2.375	-18.625
18	12	12	15	34	32	0.583813285834	-0.408577745465	0.0314947888646	-0.6044921875	-0.3447265625	0.81689453125	41.3125	13.6875	-16.875
18	12	12	15	34	32	0.588516803682	-0.406932330444	0.0377207409951	-0.58349609375	-0.31982421875	0.68310546875	36.6875	23.125	-18.6875
18	12	12	15	34	32	0.593385802863	-0.407411050618	0.0438233909129	-0.673828125	-0.45703125	0.50537109375	41.1875	23.0625	-21.6875
18	12	12	15	34	32	0.599331580366	-0.406024409063	0.0523705566711	-0.6259765625	-0.4873046875	0.416015625	64.1875	22.25	-17.3125
18	12	12	15	34	32	0.605313812013	-0.404010499316	0.0621366805111	-0.67333984375	-0.419921875	0.49169921875	66.8125	25.25	-17.8125
18	12	12	15	34	32	0.611710071237	-0.401438549045	0.0681780233059	-0.75048828125	-0.5078125	0.6591796875	54.1875	13.5	-25.375
18	12	12	15	34	32	0.616832290258	-0.399665331151	0.0723279501243	-0.65087890625	-0.55419921875	0.658203125	43.625	13.125	-17.6875
18	12	12	15	34	32	0.623369826572	-0.396007386155	0.0764792316356	-0.63232421875	-0.56982421875	0.7880859375	51.125	12.5625	-21.5
18	12	12	15	34	32	0.629597550938	-0.391552912193	0.0822779930843	-0.4814453125	-0.35986328125	0.78759765625	50.0	21.125	-20.1875
18	12	12	15	34	32	0.63411756969	-0.390212111178	0.0877107467172	-0.61767578125	-0.3203125	0.70361328125	34.0	23.5625	-21.75
18	12	12	15	34	32	0.638626734608	-0.389352952314	0.0909446463315	-0.5380859375	-0.2783203125	0.6962890625	22.625	20.75	-26.75
18	12	12	15	34	32	0.643584931988	-0.38923948324	0.0928388355039	-0.6142578125	-0.40380859375	0.7080078125	21.4375	17.25	-31.6875
18	12	12	15	34	32	0.649690799156	-0.387287497242	0.0955858503831	-0.5712890625	-0.4052734375	0.71923828125	33.9375	15.5	-32.75
18	12	12	15	34	32	0.655618103894	-0.38533815193	0.0994932975837	-0.62353515625	-0.435546875	0.705078125	40.25	17.0625	-29.8125
18	12	12	15	34	32	0.661941009747	-0.381356148354	0.104006222278	-0.6162109375	-0.41259765625	0.74951171875	48.6875	12.5	-27.25
18	12	12	15	34	32	0.667849742341	-0.378114526943	0.107849615675	-0.662109375	-0.46044921875	0.72119140625	45.6875	9.25	-27.0
18	12	12	15	34	32	0.673499347839	-0.375142921136	0.110662889037	-0.65576171875	-0.412109375	0.76904296875	37.125	8.1875	-29.5
18	12	12	15	34	32	0.677865516056	-0.373173938877	0.11218411836	-0.61865234375	-0.38427734375	0.72802734375	24.8125	5.5625	-25.0
18	12	12	15	34	32	0.681360295478	-0.371229357439	0.112613969825	-0.611328125	-0.37109375	0.76416015625	16.875	1.1875	-21.0
18	12	12	15	34	32	0.683975189266	-0.370064391622	0.112734443564	-0.57568359375	-0.31591796875	0.69287109375	9.4375	0.75	-18.0
18	12	12	15	34	32	0.686659246995	-0.368537647409	0.112123825487	-0.546875	-0.28759765625	0.763671875	5.1875	0.625	-19.25
18	12	12	15	34	32	0.688561223827	-0.368115658266	0.111515056815	-0.5048828125	-0.24169921875	0.66748046875	-0.5625	2.0	-17.75
18	12	12	15	34	32	0.691243777698	-0.366771201782	0.112124928886	-0.603515625	-0.35595703125	0.63623046875	15.5625	-2.1875	-17.125
18	12	12	15	34	32	0.694238188603	-0.36573546915	0.114261815462	-0.77734375	-0.46240234375	0.57373046875	27.9375	-4.6875	-18.25
18	12	12	15	34	32	0.697521197683	-0.362493734078	0.116334914489	-0.6748046875	-0.37353515625	0.66552734375	30.0625	-6.0	-15.4375
18	12	12	15	34	32	0.69870017536	-0.362381666909	0.116521240042	-0.724609375	-0.447265625	0.615234375	10.875	-8.125	-8.625
18	12	12	15	34	32	0.700339050613	-0.361400341527	0.117374236912	-0.7021484375	-0.43017578125	0.64013671875	16.4375	-6.0625	-8.75
18	12	12	15	34	32	0.701028533888	-0.360555119693	0.118598035816	-0.6494140625	-0.330078125	0.701171875	7.6875	-0.1875	-4.25
18	12	12	15	34	32	0.702171124624	-0.361767059775	0.119998994351	-0.703125	-0.44970703125	0.64892578125	9.8125	6.4375	-10.125
18	12	12	15	34	32	0.704386481951	-0.362203586126	0.124152695346	-0.7158203125	-0.40234375	0.62744140625	23.75	15.5	-15.4375
18	12	12	15	34	32	0.706576465636	-0.3640309296	0.127996790639	-0.77587890625	-0.55029296875	0.5693359375	26.125	15.8125	-15.125
18	12	12	15	34	32	0.709507444543	-0.364641902417	0.133307317522	-0.72216796875	-0.4560546875	0.54296875	34.0	19.875	-18.75
18	12	12	15	34	33	0.712073890762	-0.366169318591	0.137092230298	-0.783203125	-0.52978515625	0.6162109375	25.8125	17.3125	-18.75
18	12	12	15	34	33	0.714207173139	-0.367266435414	0.141120159328	-0.603515625	-0.3447265625	0.55615234375	19.1875	22.875	-17.1875
18	12	12	15	34	33	0.716568604289	-0.368477398986	0.143496830382	-0.64892578125	-0.4482421875	0.6591796875	16.25	18.75	-17.9375
18	12	12	15	34	33	0.71977826008	-0.368312586611	0.14716633184	-0.6220703125	-0.33837890625	0.64892578125	23.1875	20.875	-23.625
18	12	12	15	34	33	0.722493627125	-0.368357610856	0.151432515747	-0.6884765625	-0.32080078125	0.68359375	21.125	22.5	-21.9375
18	12	12	15	34	33	0.724631837588	-0.36896895706	0.154667880429	-0.701171875	-0.3544921875	0.7158203125	14.875	20.5625	-19.375
18	12	12	15	34	33	0.727441617749	-0.36799341445	0.156804624601	-0.62109375	-0.33203125	0.8212890625	14.875	18.1875	-19.375
18	12	12	15	34	33	0.729501992691	-0.368413154943	0.159670114866	-0.68212890625	-0.34375	0.740234375	13.0625	20.375	-18.625
18	12	12	15	34	33	0.733054520121	-0.366710371098	0.162236379224	-0.578125	-0.27197265625	0.78369140625	19.6875	18.875	-24.6875
18	12	12	15	34	33	0.736279798977	-0.366583476138	0.164187404398	-0.5693359375	-0.30322265625	0.66455078125	15.6875	17.9375	-27.125
18	12	12	15	34	33	0.740087373855	-0.366106727289	0.166389953083	-0.5947265625	-0.32421875	0.64306640625	20.8125	16.4375	-30.875
18	12	12	15	34	33	0.744874116589	-0.366028357685	0.167480709269	-0.6591796875	-0.484375	0.6552734375	26.375	12.4375	-36.875
18	12	12	15	34	33	0.749179566078	-0.365434093377	0.168586765643	-0.64501953125	-0.380859375	0.69287109375	20.875	11.625	-35.6875
18	12	12	15	34	33	0.752536080339	-0.365250701983	0.169013902706	-0.5380859375	-0.29052734375	0.7041015625	8.75	14.0	-31.125
18	12	12	15	34	33	0.755320590677	-0.367558836126	0.171267036561	-0.77587890625	-0.44970703125	0.6103515625	13.9375	18.125	-33.875
18	12	12	15	34	33	0.759288498298	-0.366033209348	0.173220318181	-0.462890625	-0.1982421875	0.6630859375	17.5625	19.3125	-33.1875
18	12	12	15	34	33	0.761672638567	-0.371101021115	0.176150912325	-0.9228515625	-0.63818359375	0.5126953125	15.5625	22.3125	-38.4375
18	12	12	15	34	33	0.765511109979	-0.371647037846	0.179872527596	-0.7705078125	-0.39794921875	0.57666015625	26.5	20.625	-40.375
18	12	12	15	34	33	0.767312621413	-0.374714197984	0.182565591492	-0.85400390625	-0.60693359375	0.60009765625	15.4375	19.1875	-25.875
18	12	12	15	34	33	0.769270638022	-0.374716531526	0.18769397857	-0.69189453125	-0.41650390625	0.58251953125	26.375	26.625	-17.0625
18	12	12	15	34	33	0.771504751053	-0.375131977846	0.19263204069	-0.68115234375	-0.47216796875	0.59521484375	27.875	29.875	-19.1875
18	12	12	15	34	33	0.773758974918	-0.375313081705	0.198307399977	-0.7783203125	-0.3740234375	0.53857421875	28.125	26.125	-25.625
18	12	12	15	34	33	0.775289468269	-0.377512624881	0.201360412204	-0.75244140625	-0.50244140625	0.5556640625	14.75	22.0625	-22.8125
18	12	12	15	34	33	0.777954882603	-0.377258679536	0.204712119587	-0.67333984375	-0.45556640625	0.578125	26.625	20.8125	-22.8125
18	12	12	15	34	33	0.780226525497	-0.376227513351	0.206790852568	-0.6689453125	-0.42236328125	0.61328125	21.125	11.125	-16.75
18	12	12	15	34	33	0.783599967044	-0.374343246447	0.209297732279	-0.7099609375	-0.4736328125	0.62841796875	32.1875	11.875	-23.5
18	12	12	15	34	33	0.786293499029	-0.371539243021	0.211741356011	-0.64697265625	-0.29296875	0.65185546875	23.6875	9.5	-18.3125
18	12	12	15	34	33	0.789750652171	-0.368171878344	0.212589962247	-0.63623046875	-0.37353515625	0.78955078125	24.0	7.5625	-20.0
18	12	12	15	34	33	0.794297552395	-0.364218358191	0.212903240049	-0.53662109375	-0.337890625	0.77978515625	28.1875	8.25	-28.25
18	12	12	15	34	33	0.798664274134	-0.360726470014	0.213750270387	-0.64208984375	-0.37158203125	0.7548828125	30.0625	6.5	-30.375
18	12	12	15	34	33	0.802901973268	-0.35719798902	0.214428662923	-0.6357421875	-0.3779296875	0.75341796875	29.6875	5.4375	-29.4375
18	12	12	15	34	33	0.806495358202	-0.354814010234	0.215281096524	-0.71142578125	-0.42138671875	0.72705078125	26.25	4.5625	-28.8125
18	12	12	15	34	33	0.810183160091	-0.351624618448	0.216431330848	-0.70751953125	-0.3994140625	0.73681640625	29.375	3.75	-27.0
18	12	12	15	34	33	0.812518609396	-0.3494953093	0.217534279138	-0.7314453125	-0.3798828125	0.70703125	19.6875	2.0	-19.3125
18	12	12	15	34	33	0.814848530837	-0.34766870649	0.217964352331	-0.73095703125	-0.39111328125	0.7294921875	16.5	-0.125	-19.9375
18	12	12	15	34	33	0.817114471333	-0.345169368446	0.217905330743	-0.58837890625	-0.24755859375	0.81005859375	8.5625	4.875	-18.4375
18	12	12	15	34	33	0.818713505395	-0.3446861377	0.215833218152	-0.4052734375	-0.1953125	0.708984375	-7.5	2.8125	-17.625
18	12	12	15	34	33	0.821241673749	-0.346075086596	0.21564079029	-0.64306640625	-0.51025390625	0.5947265625	13.0625	7.6875	-32.6875
18	12	12	15	34	33	0.823884783279	-0.344801092069	0.218880636601	-0.73583984375	-0.34716796875	0.43115234375	30.4375	5.9375	-32.125
18	12	12	15	34	33	0.824750335278	-0.344256356643	0.221691327541	-0.87646484375	-0.41650390625	0.57958984375	17.4375	1.5	-15.4375
18	12	12	15	34	33	0.826030529777	-0.3427907674	0.221019474494	-0.59912109375	-0.32421875	0.70068359375	5.1875	-2.9375	-9.4375
18	12	12	15	34	33	0.827418721701	-0.343089453724	0.21997765366	-0.60595703125	-0.3486328125	0.67431640625	-0.25	0.5625	-19.5625
18	12	12	15	34	33	0.827734384218	-0.34736644647	0.220590816648	-0.79833984375	-0.5009765625	0.466796875	-2.5	4.875	-28.5625
18	12	12	15	34	33	0.828962053228	-0.348895301985	0.222362768567	-0.77880859375	-0.49169921875	0.55908203125	12.125	9.375	-26.3125
18	12	12	15	34	33	0.829952419492	-0.349511477091	0.224563870803	-0.77734375	-0.5498046875	0.63427734375	15.8125	11.0625	-16.0
18	12	12	15	34	33	0.832406593304	-0.346744526804	0.227724666345	-0.67431640625	-0.49951171875	0.720703125	33.1875	16.375	-15.375
18	12	12	15	34	33	0.834040915806	-0.344810972877	0.230606453448	-0.537109375	-0.328125	0.63671875	20.375	18.8125	-13.6875
18	12	12	15	34	33	0.835234861861	-0.345715452907	0.232308088588	-0.62060546875	-0.427734375	0.5537109375	11.25	14.125	-21.5
18	12	12	15	34	33	0.836513481072	-0.347117998311	0.232368246803	-0.61962890625	-0.4658203125	0.599609375	5.5	8.3125	-22.9375
18	12	12	15	34	33	0.837985522347	-0.346998885173	0.232797493061	-0.64794921875	-0.4736328125	0.56005859375	14.625	2.3125	-17.5625
18	12	12	15	34	34	0.840466680378	-0.343205820172	0.232791570005	-0.642578125	-0.3916015625	0.75390625	22.0625	-2.4375	-12.0
18	12	12	15	34	34	0.842795523714	-0.339425398854	0.233099370297	-0.62353515625	-0.31884765625	0.71728515625	20.3125	-2.4375	-13.1875
18	12	12	15	34	34	0.845133641819	-0.335648555277	0.233348686456	-0.65185546875	-0.2958984375	0.78173828125	17.875	-1.125	-15.375
18	12	12	15	34	34	0.84734285533	-0.333150648638	0.23384025924	-0.6630859375	-0.3818359375	0.7080078125	19.1875	0.625	-18.4375
18	12	12	15	34	34	0.84998638992	-0.32947196128	0.235842841494	-0.69580078125	-0.404296875	0.689453125	32.5	4.75	-19.625
18	12	12	15	34	34	0.852200017839	-0.325999161673	0.238288846128	-0.67724609375	-0.35986328125	0.65625	29.6875	6.5	-17.6875
18	12	12	15	34	34	0.853506898404	-0.325032127155	0.240249099057	-0.6943359375	-0.3935546875	0.61767578125	17.5625	7.125	-18.375
18	12	12	15	34	34	0.854151663344	-0.32599857324	0.24188959853	-0.6875	-0.41455078125	0.56494140625	8.5	8.75	-19.375
18	12	12	15	34	34	0.854551155007	-0.327574891002	0.243895894251	-0.70068359375	-0.4599609375	0.5380859375	8.8125	10.6875	-19.1875
18	12	12	15	34	34	0.855250351501	-0.32758554357	0.24658945333	-0.7041015625	-0.42041015625	0.5771484375	14.6875	12.4375	-17.125
18	12	12	15	34	34	0.855694157415	-0.328080183758	0.248974710614	-0.65283203125	-0.4150390625	0.59375	10.25	14.6875	-14.9375
18	12	12	15	34	34	0.857024828869	-0.327892413694	0.250741257531	-0.63623046875	-0.4765625	0.642578125	17.4375	14.625	-19.875
18	12	12	15	34	34	0.858221940516	-0.32794441977	0.253053706378	-0.67431640625	-0.5107421875	0.56982421875	20.5625	13.8125	-20.8125
18	12	12	15	34	34	0.859756264425	-0.326421730949	0.255741782475	-0.65771484375	-0.44677734375	0.59375	25.75	13.75	-18.75
18	12	12	15	34	34	0.860916262201	-0.32501801462	0.258000215549	-0.67333984375	-0.41259765625	0.65625	18.5625	12.625	-15.4375
18	12	12	15	34	34	0.862397501476	-0.323498248837	0.259653122746	-0.63818359375	-0.40576171875	0.68359375	18.3125	12.125	-17.875
18	12	12	15	34	34	0.863971056637	-0.321906277125	0.261541220607	-0.67236328125	-0.42431640625	0.6669921875	21.3125	11.75	-19.9375
18	12	12	15	34	34	0.865515366888	-0.32002094983	0.263561026391	-0.6875	-0.416015625	0.67529296875	22.25	11.1875	-19.0
18	12	12	15	34	34	0.867161447856	-0.317151466394	0.266001941983	-0.68505859375	-0.32666015625	0.67822265625	23.1875	11.375	-19.1875
18	12	12	15	34	34	0.868556393411	-0.314401544797	0.268990022893	-0.72314453125	-0.3330078125	0.64306640625	24.4375	11.0625	-18.5625
18	12	12	15	34	34	0.870530972641	-0.311174232122	0.270888827414	-0.6494140625	-0.35888671875	0.646484375	28.125	8.5625	-19.25
18	12	12	15	34	34	0.872333655791	-0.30792914172	0.274053884306	-0.72509765625	-0.4130859375	0.58203125	35.6875	10.3125	-20.4375
18	12	12	15	34	34	0.874123854395	-0.305067455085	0.275891335931	-0.68115234375	-0.39990234375	0.6259765625	28.5625	6.5	-18.5
18	12	12	15	34	34	0.875493078879	-0.303407424366	0.278077695718	-0.75634765625	-0.48095703125	0.615234375	27.375	7.625	-20.375
18	12	12	15	34	34	0.877203869953	-0.300661443319	0.279848298339	-0.69970703125	-0.41552734375	0.70263671875	26.875	9.125	-18.6875
18	12	12	15	34	34	0.878429202984	-0.299198162384	0.281436704764	-0.65576171875	-0.462890625	0.64599609375	22.8125	10.0625	-15.6875
18	12	12	15	34	34	0.881046837541	-0.294312978914	0.282960383709	-0.525390625	-0.34130859375	0.7451171875	35.4375	14.625	-18.875
18	12	12	15	34	34	0.882216458029	-0.292363140581	0.285405019907	-0.640625	-0.41064453125	0.591796875	26.625	12.75	-17.5
18	12	12	15	34	34	0.884938654799	-0.286271367844	0.287247986583	-0.58349609375	-0.28759765625	0.72607421875	40.375	10.25	-18.875
18	12	12	15	34	34	0.885530095848	-0.285471757532	0.288828812624	-0.73193359375	-0.4189453125	0.61962890625	15.6875	4.625	-14.0
18	12	12	15	34	34	0.887736499782	-0.281263049436	0.289442139849	-0.68505859375	-0.380859375	0.70361328125	32.5625	0.125	-17.0625
18	12	12	15	34	34	0.888657030871	-0.280104891453	0.289504794108	-0.7734375	-0.44091796875	0.68896484375	14.125	-4.625	-11.5625
18	12	12	15	34	34	0.890774543718	-0.276253637445	0.288766230391	-0.6025390625	-0.3173828125	0.7451171875	22.6875	-3.6875	-12.625
18	12	12	15	34	34	0.891448307474	-0.274850512055	0.289255291278	-0.666015625	-0.3173828125	0.646484375	10.0	-0.4375	-9.3125
18	12	12	15	34	34	0.8930312074	-0.271309118782	0.289742269259	-0.64697265625	-0.27392578125	0.69970703125	21.0	-0.1875	-13.75
18	12	12	15	34	34	0.894204735857	-0.26972632954	0.289990901028	-0.63916015625	-0.33544921875	0.69775390625	14.1875	2.4375	-16.75
18	12	12	15	34	34	0.895506016055	-0.267211378019	0.291564356509	-0.6787109375	-0.388671875	0.642578125	26.875	5.625	-18.0625
18	12	12	15	34	34	0.896525033172	-0.264538364227	0.29389760585	-0.71337890625	-0.40771484375	0.58544921875	30.1875	5.6875	-15.75
18	12	12	15	34	34	0.897544813181	-0.261420226784	0.296760481583	-0.7060546875	-0.3818359375	0.54345703125	33.6875	6.6875	-16.6875
18	12	12	15	34	34	0.897760767781	-0.260758362793	0.298785624034	-0.697265625	-0.35009765625	0.5517578125	14.5	5.125	-14.1875
18	12	12	15	34	34	0.897504990426	-0.263257550579	0.299575251157	-0.68603515625	-0.47509765625	0.59033203125	1.6875	5.75	-16.8125
18	12	12	15	34	34	0.897306051764	-0.264717797871	0.300973820913	-0.716796875	-0.43505859375	0.59375	4.9375	6.8125	-16.5
18	12	12	15	34	34	0.897600655012	-0.2656302224	0.301519599875	-0.71435546875	-0.50244140625	0.68798828125	8.625	5.75	-15.8125
18	12	12	15	34	34	0.898251482229	-0.263322702795	0.30391370821	-0.6572265625	-0.35595703125	0.60205078125	23.4375	10.5	-14.0
18	12	12	15	34	34	0.898842349517	-0.260570283179	0.306470693802	-0.666015625	-0.28857421875	0.66943359375	20.3125	12.9375	-12.9375
18	12	12	15	34	34	0.899221047208	-0.258071313304	0.309648952789	-0.65673828125	-0.27001953125	0.59912109375	21.0625	15.0	-16.0625
18	12	12	15	34	34	0.899173918057	-0.255921547544	0.314088309959	-0.77685546875	-0.349609375	0.58349609375	25.375	17.625	-17.375
18	12	12	15	34	34	0.899332717383	-0.2543450138	0.317641337129	-0.7431640625	-0.46728515625	0.59814453125	28.375	16.6875	-16.75
18	12	12	15	34	34	0.899694354453	-0.251597023681	0.321912349076	-0.76220703125	-0.52392578125	0.57666015625	40.3125	18.9375	-16.75
18	12	12	15	34	34	0.899898522185	-0.248367841468	0.326253652654	-0.787109375	-0.4189453125	0.59814453125	35.125	17.8125	-14.5625
18	12	12	15	34	35	0.900003198998	-0.246226714463	0.32954338904	-0.71923828125	-0.36767578125	0.6376953125	23.5625	17.375	-14.6875
18	12	12	15	34	35	0.8999976011	-0.244027833788	0.332837363092	-0.6923828125	-0.2978515625	0.67431640625	18.5	20.25	-13.8125
18	12	12	15	34	35	0.899829629827	-0.241773515381	0.336932543525	-0.72216796875	-0.375	0.6328125	26.125	23.0	-14.875
18	12	12	15	34	35	0.900515194553	-0.236511886871	0.341553682304	-0.72705078125	-0.38427734375	0.58349609375	48.9375	22.25	-19.375
18	12	12	15	34	35	0.900831257711	-0.231021499454	0.346440695085	-0.7783203125	-0.3251953125	0.5830078125	44.125	20.0625	-13.6875
18	12	12	15	34	35	0.901965530536	-0.226818969444	0.347980340366	-0.71240234375	-0.37939453125	0.7333984375	34.625	11.75	-14.0
18	12	12	15	34	35	0.902823414323	-0.22352372005	0.349446558515	-0.681640625	-0.38134765625	0.67236328125	30.9375	10.4375	-13.5625
18	12	12	15	34	35	0.904691109892	-0.219550257879	0.348948797413	-0.728515625	-0.47119140625	0.796875	38.0625	2.6875	-17.75
18	12	12	15	34	35	0.90744653816	-0.211983710704	0.347670376092	-0.3798828125	-0.06982421875	0.7890625	35.75	7.75	-13.4375
18	12	12	15	34	35	0.90838289079	-0.207959985816	0.348899113275	-0.59765625	-0.21240234375	0.67529296875	26.375	11.25	-16.125
18	12	12	15	34	35	0.909594421404	-0.200694299931	0.351703332179	-0.642578125	-0.11865234375	0.517578125	47.9375	9.625	-23.1875
18	12	12	15	34	35	0.909191100071	-0.196474634206	0.356938074195	-0.998046875	-0.43603515625	0.435546875	50.5	8.375	-23.375
18	12	12	15	34	35	0.909701780466	-0.192023738684	0.359693544839	-0.97900390625	-0.5009765625	0.63232421875	50.125	3.25	-21.3125
18	12	12	15	34	35	0.909782509148	-0.189220112604	0.361776647549	-0.740234375	-0.2822265625	0.61669921875	23.75	8.875	-13.1875
18	12	12	15	34	35	0.908499319553	-0.189097748722	0.365865689425	-0.78125	-0.3994140625	0.4794921875	18.5	15.3125	-12.875
18	12	12	15	34	35	0.908111701618	-0.184454467152	0.370312790275	-0.76513671875	-0.42138671875	0.48486328125	47.9375	16.9375	-12.125
18	12	12	15	34	35	0.908418370045	-0.175177096152	0.375257417123	-0.763671875	-0.369140625	0.58251953125	72.0625	23.0625	-10.75
18	12	12	15	34	35	0.909009602543	-0.162905165459	0.380498614265	-0.77001953125	-0.23193359375	0.60791015625	83.625	24.8125	-14.625
18	12	12	15	34	35	0.909559972162	-0.152285071168	0.384649506413	-0.72119140625	-0.18212890625	0.5888671875	75.75	22.5625	-25.6875
18	12	12	15	34	35	0.909568875523	-0.14520630485	0.388193400102	-0.734375	-0.24072265625	0.59814453125	59.1875	21.125	-30.25
18	12	12	15	34	35	0.909546325366	-0.140380925268	0.390625183354	-0.7412109375	-0.37109375	0.6533203125	52.25	18.1875	-29.75
18	12	12	15	34	35	0.909708452091	-0.134283319552	0.392778709689	-0.77734375	-0.38671875	0.705078125	60.0625	17.5	-28.25
18	12	12	15	34	35	0.910672608177	-0.126712891057	0.393200599321	-0.78759765625	-0.20947265625	0.78076171875	54.4375	8.3125	-24.4375
18	12	12	15	34	35	0.912333253959	-0.120671896908	0.391252837217	-0.76611328125	-0.1650390625	0.8564453125	41.1875	-2.0	-24.25
18	12	12	15	34	35	0.914292374513	-0.115240269917	0.388203451626	-0.7314453125	-0.1357421875	0.900390625	37.1875	-5.25	-28.875
18	12	12	15	34	35	0.915916241715	-0.109866002605	0.385690705811	-0.72265625	-0.1220703125	0.8427734375	38.0625	-4.75	-31.5
18	12	12	15	34	35	0.918143760338	-0.103887826093	0.381674839343	-0.58056640625	-0.0751953125	0.95263671875	38.125	-2.1875	-29.9375
18	12	12	15	34	35	0.919833903897	-0.0975377955161	0.378615109879	-0.5556640625	-0.12646484375	0.8125	49.0	-1.125	-36.875
18	12	12	15	34	35	0.920615096262	-0.0913107593985	0.377389321765	-0.77685546875	-0.1630859375	0.72802734375	50.5625	-5.0625	-37.5625
18	12	12	15	34	35	0.921854135255	-0.0872840768996	0.374344925612	-0.728515625	-0.18603515625	0.79541015625	38.125	-11.75	-36.25
18	12	12	15	34	35	0.923322324552	-0.0854532461408	0.370134631856	-0.6123046875	-0.15478515625	0.8271484375	22.9375	-12.625	-36.0625
18	12	12	15	34	35	0.924006889872	-0.0849605383911	0.367246809985	-0.650390625	-0.2392578125	0.720703125	22.3125	-11.625	-39.6875
18	12	12	15	34	35	0.924432057891	-0.0828906394597	0.365133877207	-0.70556640625	-0.2431640625	0.6640625	31.5625	-12.125	-38.4375
18	12	12	15	34	35	0.92494799735	-0.0809344756821	0.362801299739	-0.6708984375	-0.208984375	0.6513671875	27.375	-13.125	-34.25
18	12	12	15	34	35	0.92527697394	-0.0781898412571	0.361101561965	-0.71337890625	-0.14306640625	0.66748046875	26.1875	-11.375	-32.75
18	12	12	15	34	35	0.924832188041	-0.0769065837468	0.361216795725	-0.798828125	-0.14111328125	0.59228515625	15.9375	-9.1875	-30.875
18	12	12	15	34	35	0.924251042148	-0.0764207043171	0.361655489679	-0.81298828125	-0.14111328125	0.611328125	9.375	-7.5	-28.25
18	12	12	15	34	35	0.922781496385	-0.0782514802464	0.363973148759	-0.8525390625	-0.2197265625	0.560546875	-1.0625	-1.625	-27.125
18	12	12	15	34	35	0.921253442915	-0.0822798410554	0.365742438875	-0.71533203125	-0.27001953125	0.64013671875	-10.6875	5.6875	-30.1875
18	12	12	15	34	35	0.919466920627	-0.0862458018353	0.367811183198	-0.6796875	-0.34716796875	0.59033203125	-4.5625	7.75	-31.3125
18	12	12	15	34	35	0.917578849021	-0.0867955247328	0.370071214103	-0.69384765625	-0.423828125	0.63037109375	20.75	13.625	-33.375
18	12	12	15	34	35	0.916042043424	-0.0843530186575	0.372142080141	-0.7099609375	-0.2802734375	0.63330078125	28.75	13.5625	-31.5
18	12	12	15	34	35	0.915538029363	-0.0841684628328	0.371708439921	-0.66162109375	-0.23486328125	0.775390625	9.9375	4.3125	-27.375
18	12	12	15	34	35	0.915333068884	-0.0858201050181	0.369954236497	-0.49755859375	-0.21826171875	0.81396484375	-0.0625	5.0625	-31.3125
18	12	12	15	34	35	0.91514797419	-0.0876510698951	0.367389825695	-0.4951171875	-0.22509765625	0.74462890625	4.625	-2.0	-40.875
18	12	12	15	34	35	0.914522699565	-0.0881989789009	0.365857909711	-0.69775390625	-0.29248046875	0.69384765625	15.375	-7.1875	-41.875
18	12	12	15	34	35	0.914688047339	-0.0858168553689	0.363348321487	-0.68310546875	-0.20458984375	0.740234375	24.375	-9.5625	-33.5
18	12	12	15	34	35	0.915631870119	-0.0836831740506	0.359086880335	-0.72802734375	-0.21630859375	0.87939453125	21.125	-18.0625	-29.5
18	12	12	15	34	35	0.916890398029	-0.080507151844	0.353645517653	-0.5908203125	-0.16455078125	0.93505859375	26.6875	-14.5625	-32.4375
18	12	12	15	34	35	0.91798871144	-0.0778215164286	0.348762466567	-0.62353515625	-0.12939453125	0.9033203125	20.0625	-16.375	-30.25
18	12	12	15	34	36	0.918670421275	-0.0770289064945	0.344737927005	-0.5966796875	-0.17236328125	0.85205078125	11.375	-14.8125	-28.5
18	12	12	15	34	36	0.919350158227	-0.0768464911172	0.340529447135	-0.55810546875	-0.20263671875	0.8525390625	9.6875	-15.0	-27.125
18	12	12	15	34	36	0.919529681157	-0.0760527037983	0.337842468317	-0.638671875	-0.24853515625	0.7861328125	13.875	-13.3125	-24.0
18	12	12	15	34	36	0.920096749058	-0.0737908437553	0.334652767833	-0.55517578125	-0.14892578125	0.7841796875	16.8125	-11.25	-20.6875
18	12	12	15	34	36	0.920359732694	-0.0729378526805	0.332645436911	-0.5625	-0.12548828125	0.7236328125	4.875	-9.625	-18.0
18	12	12	15	34	36	0.920072514279	-0.0753807585999	0.331614300788	-0.60791015625	-0.16943359375	0.72607421875	-12.25	-9.8125	-21.25
18	12	12	15	34	36	0.919523955025	-0.0800806789906	0.330882134762	-0.6396484375	-0.2255859375	0.72607421875	-22.375	-12.3125	-23.6875
18	12	12	15	34	36	0.918863145337	-0.0835607576702	0.330580762266	-0.65625	-0.28662109375	0.7265625	-13.5	-9.625	-20.4375
18	12	12	15	34	36	0.918397090349	-0.0830744676303	0.330222534812	-0.62939453125	-0.26416015625	0.7197265625	8.0	-3.9375	-17.25
18	12	12	15	34	36	0.917743172262	-0.0809952906086	0.330573092642	-0.64501953125	-0.27099609375	0.693359375	17.3125	0.125	-15.375
18	12	12	15	34	36	0.916844687734	-0.0799591599049	0.331372732155	-0.6650390625	-0.28466796875	0.68212890625	11.5	0.25	-17.25
18	12	12	15	34	36	0.915367111197	-0.0817891530976	0.333504427258	-0.70849609375	-0.3115234375	0.61083984375	-4.1875	-0.25	-18.625
18	12	12	15	34	36	0.913989253498	-0.0850875530504	0.335406100439	-0.6728515625	-0.39892578125	0.60546875	-8.1875	-2.3125	-13.5625
18	12	12	15	34	36	0.912973230437	-0.0869149538804	0.336856482069	-0.6416015625	-0.43310546875	0.65771484375	-0.4375	0.6875	-7.125
18	12	12	15	34	36	0.912198564715	-0.0872829673832	0.33838935047	-0.64697265625	-0.3203125	0.6611328125	0.125	1.875	-5.5
18	12	12	15	34	36	0.911337505311	-0.0886251461866	0.340279056467	-0.66845703125	-0.24560546875	0.64306640625	-10.625	0.8125	-7.75
18	12	12	15	34	36	0.909812735904	-0.0919822751246	0.343453392254	-0.68994140625	-0.33251953125	0.6162109375	-18.4375	4.5	-8.3125
18	12	12	15	34	36	0.907975149348	-0.0938127053339	0.347418294574	-0.69921875	-0.35888671875	0.57861328125	-8.3125	10.0625	-7.75
18	12	12	15	34	36	0.906713694672	-0.0934485807165	0.349928617405	-0.6572265625	-0.38525390625	0.59814453125	7.3125	7.5	-5.5625
18	12	12	15	34	36	0.905384700411	-0.0922902762099	0.352680698374	-0.7041015625	-0.375	0.5869140625	11.0625	7.625	-6.25
18	12	12	15	34	36	0.904398553092	-0.0916789246638	0.354874346202	-0.63232421875	-0.25390625	0.6015625	1.0	7.6875	-6.4375
18	12	12	15	34	36	0.902986910162	-0.0934482195118	0.356946562838	-0.6640625	-0.38427734375	0.64501953125	-4.1875	5.5625	-11.9375
18	12	12	15	34	36	0.901649331583	-0.0948526307392	0.358779770582	-0.65966796875	-0.36328125	0.7021484375	-4.1875	7.8125	-13.5
18	12	12	15	34	36	0.900181317196	-0.0945471155639	0.360792769592	-0.64111328125	-0.3623046875	0.68798828125	6.1875	12.1875	-14.25
18	12	12	15	34	36	0.898809178769	-0.0930181439932	0.362734140257	-0.671875	-0.33251953125	0.7021484375	11.0625	12.3125	-14.5
18	12	12	15	34	36	0.897378910498	-0.0919230471508	0.364884446127	-0.6748046875	-0.328125	0.6474609375	8.75	10.9375	-13.625
18	12	12	15	34	36	0.895792112514	-0.0919230663291	0.366837734819	-0.6826171875	-0.41015625	0.6201171875	8.875	7.25	-15.1875
18	12	12	15	34	36	0.894899451195	-0.0922243262007	0.367188316627	-0.61181640625	-0.3994140625	0.7041015625	6.5625	4.75	-12.9375
18	12	12	15	34	36	0.894304903336	-0.0933246107836	0.367133769695	-0.55859375	-0.39599609375	0.755859375	-0.125	5.0	-9.5
18	12	12	15	34	36	0.893352751883	-0.0942427335957	0.368059380558	-0.67138671875	-0.3681640625	0.76123046875	-2.875	5.625	-12.0625
18	12	12	15	34	36	0.892483068759	-0.094790466816	0.36915179865	-0.60302734375	-0.265625	0.7490234375	-7.125	9.5	-12.25
18	12	12	15	34	36	0.89102078981	-0.0951569674828	0.371899552837	-0.689453125	-0.27392578125	0.60107421875	-5.5625	9.125	-11.625
18	12	12	15	34	36	0.889854385035	-0.093752406572	0.373727855104	-0.673828125	-0.25634765625	0.65771484375	4.875	10.0625	-13.125
18	12	12	15	34	36	0.888086498749	-0.092715009732	0.376536468095	-0.71044921875	-0.36328125	0.595703125	9.0	12.0	-13.4375
18	12	12	15	34	36	0.886499799316	-0.0896631923158	0.378428721823	-0.6904296875	-0.39990234375	0.662109375	23.5	14.625	-13.875
18	12	12	15	34	36	0.884423317678	-0.0866112275904	0.381296926538	-0.76123046875	-0.48095703125	0.6591796875	26.3125	17.625	-12.75
18	12	12	15	34	36	0.8825640277	-0.0817256731044	0.38433649256	-0.69140625	-0.37890625	0.60107421875	31.0	21.5625	-7.8125
18	12	12	15	34	36	0.880138983026	-0.0776988159079	0.388066827606	-0.71923828125	-0.40478515625	0.55078125	28.625	22.375	-11.625
18	12	12	15	34	36	0.87775106341	-0.073974987056	0.392274951988	-0.69189453125	-0.3056640625	0.53857421875	19.5625	24.625	-10.25
18	12	12	15	34	36	0.875281825102	-0.0721466608975	0.395952105958	-0.7001953125	-0.40380859375	0.58203125	14.8125	21.4375	-12.3125
18	12	12	15	34	36	0.872531566916	-0.0693996776204	0.400162081336	-0.7001953125	-0.3857421875	0.52978515625	19.4375	24.75	-12.125
18	12	12	15	34	36	0.869855287565	-0.0649446372864	0.404378028217	-0.77880859375	-0.3642578125	0.52880859375	26.9375	24.0625	-10.75
18	12	12	15	34	36	0.8671991802	-0.0599373307261	0.408086551155	-0.73974609375	-0.35498046875	0.51513671875	31.75	24.0	-11.875
18	12	12	15	34	36	0.863973604233	-0.0545057173141	0.412424559788	-0.82177734375	-0.40771484375	0.48388671875	37.75	24.625	-13.875
18	12	12	15	34	36	0.86209827397	-0.0476705431868	0.4141416588	-0.705078125	-0.26611328125	0.6337890625	38.5625	23.875	-11.0625
18	12	12	15	34	36	0.859705390631	-0.0391857196156	0.417431676715	-0.55859375	-0.15478515625	0.50146484375	40.625	36.0625	-5.9375
18	12	12	15	34	36	0.854909878892	-0.0332051245264	0.422144561075	-0.982421875	-0.58349609375	0.49658203125	55.0625	26.375	-24.5625
18	12	12	15	34	36	0.851875803114	-0.0248415455949	0.422977668237	-0.67626953125	-0.3408203125	0.5966796875	61.1875	26.4375	-22.4375
18	12	12	15	34	36	0.847415357799	-0.0177612985537	0.428407403946	-1.03125	-0.49462890625	0.4990234375	48.625	29.5	-12.5625
18	12	12	15	34	36	0.846095204389	-0.00885036824674	0.42805263803	-0.740234375	-0.228515625	0.74267578125	49.75	22.5625	-5.0625
18	12	12	15	34	37	0.844113148135	-0.00122069869578	0.427122473655	-0.6484375	-0.3115234375	0.76904296875	53.3125	24.625	-13.75
18	12	12	15	34	37	0.841023026422	0.00878926742178	0.427927457598	-0.79541015625	-0.17236328125	0.65625	59.0625	28.0625	-20.375
18	12	12	15	34	37	0.838699835406	0.0153201119778	0.427925518232	-0.794921875	-0.22265625	0.75830078125	40.875	21.4375	-18.75
18	12	12	15	34	37	0.835845495207	0.0197150646233	0.428238060053	-0.72802734375	-0.31640625	0.75048828125	37.0	22.3125	-22.5
18	12	12	15	34	37	0.833501914161	0.0238649127444	0.427920468672	-0.76123046875	-0.31298828125	0.7451171875	35.25	16.1875	-20.0
18	12	12	15	34	37	0.83138876962	0.0277109244114	0.426772650847	-0.7216796875	-0.2978515625	0.76220703125	35.3125	13.5	-21.625
18	12	12	15	34	37	0.829803010693	0.0302134968954	0.425186301764	-0.62841796875	-0.22998046875	0.75390625	25.625	11.0	-22.0
18	12	12	15	34	37	0.828409370007	0.0308852889201	0.423421441183	-0.673828125	-0.25439453125	0.783203125	16.8125	5.25	-24.8125
18	12	12	15	34	37	0.826451873334	0.0303357888513	0.42256472076	-0.7353515625	-0.3173828125	0.7275390625	13.5625	2.1875	-28.8125
18	12	12	15	34	37	0.824907619317	0.031189625858	0.420174920561	-0.732421875	-0.27099609375	0.7841796875	21.6875	-0.25	-29.375
18	12	12	15	34	37	0.823398506029	0.0335096945745	0.417253683263	-0.70849609375	-0.24267578125	0.74267578125	29.8125	-1.5	-27.75
18	12	12	15	34	37	0.821364469762	0.0368048432241	0.415168397363	-0.75146484375	-0.22314453125	0.689453125	33.0	1.0	-28.75
18	12	12	15	34	37	0.818811710289	0.0413831039564	0.413770002538	-0.79296875	-0.18701171875	0.63037109375	37.3125	3.3125	-29.3125
18	12	12	15	34	37	0.816650894119	0.0454712194409	0.411377206754	-0.74853515625	-0.20947265625	0.65625	38.0625	-0.1875	-28.375
18	12	12	15	34	37	0.814628740305	0.0487702954821	0.408718271024	-0.6533203125	-0.208984375	0.654296875	35.125	0.5	-27.375
18	12	12	15	34	37	0.811989267056	0.0510278153242	0.407429027858	-0.68603515625	-0.2314453125	0.57958984375	29.375	0.375	-30.4375
18	12	12	15	34	37	0.808241497874	0.0532235754528	0.40772188535	-0.76416015625	-0.3037109375	0.51171875	31.0	3.25	-33.9375
18	12	12	15	34	37	0.805150964918	0.0558496803047	0.40724488196	-0.71923828125	-0.26171875	0.54638671875	30.5	2.9375	-28.9375
18	12	12	15	34	37	0.801551383103	0.0584133927527	0.407856102794	-0.78662109375	-0.29833984375	0.5341796875	28.75	5.5625	-29.5
18	12	12	15	34	37	0.797720269508	0.0615884728696	0.408229639794	-0.79541015625	-0.2802734375	0.587890625	31.8125	8.8125	-31.6875
18	12	12	15	34	37	0.793666891801	0.0637228512682	0.409132444493	-0.80859375	-0.32763671875	0.55126953125	28.0	6.625	-32.4375
18	12	12	15	34	37	0.789436702822	0.0659186360791	0.409611080303	-0.7578125	-0.35546875	0.6015625	31.125	10.125	-32.875
18	12	12	15	34	37	0.784816421233	0.0691551567318	0.40992588933	-0.78515625	-0.33154296875	0.62744140625	35.9375	12.9375	-35.6875
18	12	12	15	34	37	0.779609488656	0.0737311721833	0.411075699217	-0.85693359375	-0.3017578125	0.58642578125	38.8125	16.625	-36.5625
18	12	12	15	34	37	0.775117785996	0.0798983527734	0.410722701155	-0.7333984375	-0.17919921875	0.67529296875	41.875	23.125	-31.75
18	12	12	15	34	37	0.771123820351	0.0837408486245	0.410342365381	-0.62646484375	-0.169921875	0.66455078125	29.625	20.0	-32.1875
18	12	12	15	34	37	0.764738037397	0.0857575977766	0.411636469327	-0.70263671875	-0.37109375	0.5712890625	34.9375	18.875	-46.625
18	12	12	15	34	37	0.757712240989	0.0887476718542	0.41303679191	-0.8349609375	-0.39697265625	0.48193359375	42.6875	12.8125	-49.875
18	12	12	15	34	37	0.751183276837	0.0923490938372	0.414685884686	-0.8935546875	-0.42333984375	0.50634765625	41.5625	14.125	-41.125
18	12	12	15	34	37	0.746415955859	0.0960715278863	0.413766764639	-0.78564453125	-0.40380859375	0.59619140625	44.375	8.875	-30.25
18	12	12	15	34	37	0.743644873692	0.0994863053282	0.409969026313	-0.62255859375	-0.31640625	0.73486328125	42.375	5.5625	-21.4375
18	12	12	15	34	37	0.739652016264	0.103641617727	0.407180937489	-0.67333984375	-0.26708984375	0.71044921875	43.1875	10.875	-30.4375
18	12	12	15	34	37	0.735487944851	0.108156401517	0.404670960528	-0.73388671875	-0.15380859375	0.7158203125	38.3125	11.0625	-35.5625
18	12	12	15	34	37	0.731286577259	0.111331835149	0.403577902415	-0.83544921875	-0.23486328125	0.67578125	30.875	6.5	-34.375
18	12	12	15	34	37	0.726513499279	0.114931103011	0.401190727611	-0.79736328125	-0.3408203125	0.7236328125	44.4375	7.25	-34.125
18	12	12	15	34	37	0.722171109679	0.118164576432	0.397035418227	-0.66455078125	-0.2900390625	0.72412109375	47.5625	2.4375	-35.125
18	12	12	15	34	37	0.717954554414	0.119445469947	0.393919807378	-0.68408203125	-0.330078125	0.7001953125	36.8125	-1.625	-35.6875
18	12	12	15	34	37	0.714428887764	0.118715436711	0.390631771182	-0.65185546875	-0.3671875	0.7236328125	28.5625	-7.9375	-33.875
18	12	12	15	34	37	0.711983721812	0.11804342203	0.385991003578	-0.6064453125	-0.2900390625	0.78173828125	26.9375	-11.25	-30.125
18	12	12	15	34	37	0.709242067253	0.119020828842	0.381293906551	-0.701171875	-0.24462890625	0.74365234375	32.625	-12.125	-31.0625
18	12	12	15	34	37	0.706808171581	0.120548025809	0.376415025401	-0.6611328125	-0.14208984375	0.71533203125	29.6875	-11.4375	-30.875
18	12	12	15	34	37	0.704120902548	0.120425671006	0.37287401124	-0.7431640625	-0.21142578125	0.71630859375	21.625	-15.1875	-33.4375
18	12	12	15	34	37	0.701362987381	0.119996487093	0.369938305327	-0.71435546875	-0.2119140625	0.6962890625	18.4375	-13.6875	-33.375
18	12	12	15	34	37	0.698478823892	0.118895207003	0.367549762101	-0.72314453125	-0.2529296875	0.69921875	15.1875	-13.9375	-33.25
18	12	12	15	34	37	0.695146437044	0.118838362712	0.364999182854	-0.7119140625	-0.2587890625	0.66845703125	22.0	-11.75	-33.5
18	12	12	15	34	37	0.691353164143	0.119569245922	0.362369889249	-0.69287109375	-0.25537109375	0.6689453125	26.125	-8.0	-34.5
18	12	12	15	34	37	0.68738044045	0.121399369211	0.360291843365	-0.69677734375	-0.20849609375	0.6416015625	26.0	-2.875	-34.125
18	12	12	15	34	37	0.683418228903	0.122804097218	0.359134844946	-0.6845703125	-0.22119140625	0.63330078125	20.5625	-0.25	-32.75
18	12	12	15	34	37	0.677977326039	0.125854271362	0.358825053996	-0.7490234375	-0.27099609375	0.5947265625	30.0	6.6875	-37.0
18	12	12	15	34	37	0.672152529301	0.131110028418	0.357195477794	-0.72314453125	-0.24267578125	0.53955078125	44.3125	8.5625	-35.8125
18	12	12	15	34	38	0.665740496025	0.135870390039	0.357071779751	-0.775390625	-0.328125	0.4794921875	42.375	8.75	-36.125
18	12	12	15	34	38	0.658282455744	0.142032756098	0.356516256282	-0.81689453125	-0.40185546875	0.4736328125	55.5	11.875	-37.375
18	12	12	15	34	38	0.651438292727	0.148683939013	0.356817039191	-0.83544921875	-0.3359375	0.3994140625	49.0	12.5	-32.5625
18	12	12	15	34	38	0.645212104578	0.154054994982	0.357671264102	-0.81640625	-0.41796875	0.46728515625	42.875	14.125	-25.8125
18	12	12	15	34	38	0.640272965671	0.158878029518	0.356209058881	-0.71435546875	-0.36279296875	0.59326171875	43.25	11.625	-20.375
18	12	12	15	34	38	0.635512449532	0.162052012438	0.355110586955	-0.703125	-0.431640625	0.65869140625	37.9375	10.125	-19.6875
18	12	12	15	34	38	0.630130767694	0.167908731299	0.351869805866	-0.8115234375	-0.38330078125	0.7060546875	55.1875	9.9375	-22.1875
18	12	12	15	34	38	0.626115454753	0.174809384131	0.348153885154	-0.794921875	-0.16796875	0.71875	46.3125	12.5	-18.3125
18	12	12	15	34	38	0.622628912668	0.180361576015	0.345647243647	-0.81298828125	-0.1572265625	0.74169921875	34.1875	11.75	-17.5625
18	12	12	15	34	38	0.61926978118	0.185365890542	0.343509789915	-0.7265625	-0.11962890625	0.70556640625	29.1875	14.125	-17.4375
18	12	12	15	34	38	0.615058310647	0.189455293862	0.341434572765	-0.73779296875	-0.21923828125	0.6923828125	33.5625	10.0625	-21.1875
18	12	12	15	34	38	0.609612815965	0.196592198661	0.337215739709	-0.72998046875	-0.1923828125	0.60888671875	57.0	11.6875	-22.6875
18	12	12	15	34	38	0.60402007492	0.204351173285	0.331918064614	-0.74267578125	-0.18017578125	0.6044921875	64.0	9.875	-22.0
18	12	12	15	34	38	0.598340352136	0.211796493105	0.326728134753	-0.7529296875	-0.17529296875	0.6201171875	62.4375	9.6875	-22.625
18	12	12	15	34	38	0.593262840365	0.216919355417	0.322388304816	-0.7216796875	-0.212890625	0.68017578125	50.6875	6.875	-21.375
18	12	12	15	34	38	0.588989676897	0.218933261246	0.319885481515	-0.71142578125	-0.25830078125	0.740234375	32.6875	3.125	-21.9375
18	12	12	15	34	38	0.584972611552	0.218571256466	0.317694328373	-0.5859375	-0.28369140625	0.7919921875	23.4375	2.1875	-23.25
18	12	12	15	34	38	0.581443822165	0.218087211484	0.315808349347	-0.63037109375	-0.2666015625	0.77880859375	20.0625	-0.75	-22.1875
18	12	12	15	34	38	0.578249870713	0.21753035035	0.31250151341	-0.66357421875	-0.24609375	0.83935546875	23.8125	-5.875	-21.5
18	12	12	15	34	38	0.575264094747	0.218142586167	0.307926510132	-0.6943359375	-0.13671875	0.822265625	27.5	-8.4375	-22.5625
18	12	12	15	34	38	0.572766758871	0.218632835707	0.303534643208	-0.73828125	-0.06298828125	0.83056640625	21.4375	-11.25	-23.3125
18	12	12	15	34	38	0.569778662798	0.218878016582	0.299385574829	-0.677734375	-0.0654296875	0.79736328125	21.4375	-9.625	-25.875
18	12	12	15	34	38	0.565731635632	0.220579796221	0.294737087978	-0.70458984375	-0.13232421875	0.75927734375	34.5	-7.4375	-25.875
18	12	12	15	34	38	0.561053765658	0.223090895723	0.289560385584	-0.64404296875	-0.1484375	0.74267578125	42.4375	-3.3125	-26.0625
18	12	12	15	34	38	0.555343275661	0.226250964158	0.284843067096	-0.6845703125	-0.1826171875	0.68408203125	47.125	-2.9375	-29.625
18	12	12	15	34	38	0.550803825512	0.228647066752	0.281139452605	-0.66796875	-0.07861328125	0.638671875	32.1875	-4.625	-28.0
18	12	12	15	34	38	0.54609892598	0.22919430726	0.280892730229	-0.7470703125	-0.18701171875	0.5869140625	16.9375	-6.9375	-30.25
18	12	12	15	34	38	0.541684865651	0.22918610372	0.280638536593	-0.7041015625	-0.2119140625	0.611328125	15.125	-6.5625	-28.0625
18	12	12	15	34	38	0.537847873948	0.229860995607	0.280825926922	-0.73046875	-0.20068359375	0.58984375	13.25	-4.1875	-23.875
18	12	12	15	34	38	0.533032877108	0.230840529168	0.280890564577	-0.7392578125	-0.24365234375	0.6025390625	18.8125	-2.6875	-27.125
18	12	12	15	34	38	0.52822215717	0.231883056978	0.280591316907	-0.7421875	-0.21630859375	0.658203125	18.25	-0.75	-28.3125
18	12	12	15	34	38	0.523729644914	0.232965395017	0.28124300242	-0.72998046875	-0.17578125	0.66455078125	10.375	3.375	-28.25
18	12	12	15	34	38	0.519159239939	0.232785485672	0.283138927119	-0.751953125	-0.2705078125	0.7099609375	5.375	2.8125	-28.1875
18	12	12	15	34	38	0.514218907041	0.233885679737	0.282225308743	-0.67578125	-0.2412109375	0.7568359375	21.25	5.8125	-27.125
18	12	12	15	34	38	0.509461693289	0.236328702098	0.280396192521	-0.7275390625	-0.15576171875	0.72119140625	24.3125	5.0	-26.5
18	12	12	15	34	38	0.504834924245	0.237616051274	0.279304148633	-0.7109375	-0.181640625	0.765625	18.5	4.4375	-27.5
18	12	12	15	34	38	0.50036086318	0.236752840727	0.278927682939	-0.6328125	-0.208984375	0.8193359375	9.6875	2.8125	-29.75
18	12	12	15	34	38	0.496271801919	0.235532269537	0.278317478385	-0.66015625	-0.22216796875	0.81787109375	9.625	-2.0	-28.25
18	12	12	15	34	38	0.4926767595	0.23370407732	0.277039124303	-0.64453125	-0.19873046875	0.81201171875	8.8125	-7.1875	-27.125
18	12	12	15	34	38	0.49016592082	0.231563877922	0.274409909103	-0.5693359375	-0.1015625	0.83056640625	7.5	-9.8125	-23.8125
18	12	12	15	34	38	0.488403182035	0.22924798197	0.271484298137	-0.51904296875	0.0107421875	0.81787109375	0.8125	-10.5	-23.5
18	12	12	15	34	38	0.485719408275	0.227661899078	0.270264581533	-0.666015625	-0.07763671875	0.7451171875	1.375	-12.0625	-26.8125
18	12	12	15	34	38	0.48286740286	0.226265890836	0.267588256117	-0.58984375	-0.0908203125	0.791015625	9.9375	-10.0	-24.9375
18	12	12	15	34	38	0.479806340672	0.225590158392	0.265080643371	-0.5849609375	-0.16552734375	0.69580078125	16.5625	-9.9375	-21.4375
18	12	12	15	34	38	0.47533801275	0.226011384337	0.263730810618	-0.80517578125	-0.34375	0.66748046875	26.0625	-12.8125	-23.3125
18	12	12	15	34	38	0.471372771526	0.225646139626	0.26025294546	-0.65673828125	-0.2724609375	0.80859375	27.9375	-10.375	-22.0
18	12	12	15	34	38	0.469893744026	0.223747300376	0.259878888435	-0.5341796875	-0.15478515625	0.685546875	-0.875	-8.875	-14.8125
18	12	12	15	34	38	0.468205809833	0.219851039893	0.263247511121	-0.76611328125	-0.37158203125	0.7861328125	-15.0	-15.5	-16.875
18	12	12	15	34	38	0.466136568981	0.21936556618	0.262945703702	-0.49560546875	-0.0947265625	0.67431640625	-0.875	-0.0625	-17.625
18	12	12	15	34	39	0.464731287408	0.218449340378	0.265996710077	-0.8017578125	-0.203125	0.642578125	-14.5	-9.875	-16.1875
18	12	12	15	34	39	0.463810438242	0.217592342721	0.26477295448	-0.529296875	-0.08984375	0.79443359375	-1.75	-2.0	-12.0
18	12	12	15	34	39	0.461546551702	0.21618591459	0.267821511355	-0.68505859375	-0.26611328125	0.67578125	-11.375	-4.125	-18.625
18	12	12	15	34	39	0.459476190887	0.215516794636	0.266481542164	-0.64990234375	-0.19970703125	0.82861328125	6.625	-5.8125	-16.3125
18	12	12	15	34	39	0.457956244999	0.213261244839	0.26880438531	-0.64794921875	-0.2646484375	0.7373046875	-12.375	-6.875	-15.4375
18	12	12	15	34	39	0.455386250062	0.212464754921	0.268617462341	-0.611328125	-0.23681640625	0.7578125	3.875	-3.625	-18.3125
18	12	12	15	34	39	0.453925732639	0.210513628059	0.268864172687	-0.4697265625	-0.14697265625	0.74072265625	-7.8125	-2.4375	-15.375
18	12	12	15	34	39	0.450752619376	0.208927043483	0.270939861531	-0.7578125	-0.40673828125	0.7197265625	1.1875	-10.0625	-20.625
18	12	12	15	34	39	0.448907321495	0.206662160514	0.268367843999	-0.5263671875	-0.1875	0.87841796875	6.125	-9.6875	-17.625
18	12	12	15	34	39	0.448413477887	0.203241715172	0.269951383244	-0.63330078125	-0.248046875	0.783203125	-15.8125	-14.875	-12.625
18	12	12	15	34	39	0.447570849134	0.199523947337	0.268432646187	-0.5166015625	-0.2158203125	0.91015625	-3.8125	-13.9375	-13.5625
18	12	12	15	34	39	0.448065348987	0.196780096054	0.267520831577	-0.43798828125	0.00048828125	0.77490234375	-16.8125	-10.0625	-11.125
18	12	12	15	34	39	0.447082087331	0.19439678473	0.268859603371	-0.67919921875	-0.1787109375	0.81201171875	-16.1875	-12.25	-17.5625
18	12	12	15	34	39	0.446767570027	0.190791724577	0.268243643479	-0.5205078125	-0.13134765625	0.87890625	-14.0625	-13.8125	-14.5
18	12	12	15	34	39	0.446163623146	0.186766167828	0.269956457616	-0.60302734375	-0.3349609375	0.8046875	-14.5625	-16.625	-11.625
18	12	12	15	34	39	0.444704201863	0.184265987568	0.267823502302	-0.615234375	-0.30810546875	0.87841796875	8.3125	-17.625	-14.25
18	12	12	15	34	39	0.44555434842	0.180907272427	0.267393643895	-0.49609375	-0.11083984375	0.77001953125	-16.0625	-17.375	-7.375
18	12	12	15	34	39	0.446481546434	0.176578416109	0.269048620189	-0.5068359375	-0.19970703125	0.8076171875	-25.6875	-15.5625	-6.9375
18	12	12	15	34	39	0.447207863505	0.172730756615	0.270937041913	-0.4599609375	-0.16455078125	0.73583984375	-26.3125	-12.75	-7.25
18	12	12	15	34	39	0.447380038923	0.169186557694	0.272944547621	-0.4638671875	-0.2119140625	0.80810546875	-24.0625	-7.875	-8.8125
18	12	12	15	34	39	0.447454849698	0.16729965121	0.276126823084	-0.72021484375	-0.2744140625	0.67578125	-20.9375	-15.375	-9.3125
18	12	12	15	34	39	0.447457385976	0.163882564636	0.279973677462	-0.76123046875	-0.3642578125	0.84130859375	-26.875	-17.375	-11.5
18	12	12	15	34	39	0.447560294464	0.162349704524	0.283867848023	-0.61865234375	-0.33544921875	0.65234375	-21.0625	-6.6875	-4.75
18	12	12	15	34	39	0.448167881244	0.162959041662	0.286673639957	-0.669921875	-0.29638671875	0.64892578125	-13.375	-2.3125	0.4375
18	12	12	15	34	39	0.447870026924	0.164304457956	0.288448316604	-0.71240234375	-0.34814453125	0.60595703125	-1.1875	-4.3125	-2.625
18	12	12	15	34	39	0.446952334782	0.166256747228	0.290338967166	-0.61962890625	-0.3916015625	0.59130859375	3.625	4.5	-1.25
18	12	12	15	34	39	0.445494210581	0.167479944353	0.292357483037	-0.61474609375	-0.513671875	0.59765625	8.5	2.875	-1.5
18	12	12	15	34	39	0.443837558906	0.168392165157	0.292840017551	-0.55810546875	-0.50390625	0.6943359375	13.25	3.8125	-2.5625
18	12	12	15	34	39	0.441893700752	0.16918913515	0.296630301886	-0.67138671875	-0.55126953125	0.62841796875	-0.25	4.875	-5.5625
18	12	12	15	34	39	0.441646342479	0.169004798552	0.297970901601	-0.59912109375	-0.36376953125	0.79443359375	-6.875	1.625	-2.5625
18	12	12	15	34	39	0.442700200678	0.16717990482	0.302742726508	-0.56884765625	-0.33544921875	0.82470703125	-34.3125	4.375	0.875
18	12	12	15	34	39	0.442867123503	0.165525859832	0.305478218458	-0.53564453125	-0.3427734375	0.8671875	-22.125	4.1875	-3.0
18	12	12	15	34	39	0.444589685994	0.164920556227	0.304388902259	-0.41845703125	-0.09326171875	0.92529296875	-17.0625	4.625	1.875
18	12	12	15	34	39	0.445996590475	0.163884062601	0.303536477957	-0.41015625	-0.1640625	0.91162109375	-14.5	3.375	2.3125
18	12	12	15	34	39	0.446951015302	0.164120071029	0.300103528914	-0.43603515625	-0.1474609375	0.7900390625	5.75	-3.125	1.25
18	12	12	15	34	39	0.447693830908	0.16333042829	0.297852201067	-0.6416015625	-0.287109375	0.828125	4.3125	-15.0	-1.875
18	12	12	15	34	39	0.44867949674	0.16223508398	0.294012941885	-0.47021484375	-0.27685546875	0.7978515625	12.0	-13.375	2.5625
18	12	12	15	34	39	0.450501852701	0.159424310968	0.292115142532	-0.587890625	-0.3212890625	0.88720703125	-3.0625	-20.875	2.875
18	12	12	15	34	39	0.453185310055	0.15704320576	0.288024441502	-0.32177734375	-0.09375	0.94091796875	-5.5625	-9.875	7.1875
18	12	12	15	34	39	0.454722569281	0.151004514953	0.290167932129	-0.37939453125	-0.27685546875	0.853515625	-33.375	-15.3125	-2.5
18	12	12	15	34	39	0.45385741004	0.147521968809	0.290405265865	-0.5771484375	-0.4453125	0.9404296875	-6.3125	-13.8125	-10.9375
18	12	12	15	34	39	0.455193662565	0.1447733129	0.290950414246	-0.4375	-0.20361328125	0.734375	-18.3125	-11.5	-1.3125
18	12	12	15	34	39	0.455872584004	0.14154083844	0.294373205604	-0.64794921875	-0.46826171875	0.8447265625	-22.4375	-12.875	-2.25
18	12	12	15	34	39	0.457585381183	0.139344727923	0.294802906644	-0.462890625	-0.18994140625	0.712890625	-18.125	-11.9375	1.125
18	12	12	15	34	39	0.460638382638	0.13421807386	0.299564486814	-0.52685546875	-0.2822265625	0.810546875	-48.3125	-15.9375	4.8125
18	12	12	15	34	39	0.462400075125	0.129943210129	0.304441865724	-0.52978515625	-0.3349609375	0.7099609375	-39.875	-13.0	0.125
18	12	12	15	34	39	0.465092688234	0.125062325222	0.309390398511	-0.515625	-0.326171875	0.71337890625	-44.5625	-16.1875	4.5
18	12	12	15	34	39	0.467099358014	0.120421669066	0.314817521055	-0.541015625	-0.4775390625	0.68603515625	-37.25	-14.875	5.3125
18	12	12	15	34	39	0.469681996701	0.115421527714	0.319530247268	-0.54541015625	-0.49267578125	0.68798828125	-35.4375	-19.5625	8.0625
18	12	12	15	34	39	0.472910873917	0.109804680198	0.323432462686	-0.47802734375	-0.51611328125	0.72412109375	-33.8125	-20.75	12.625
18	12	12	15	34	39	0.476631200438	0.104921120957	0.32556675927	-0.4091796875	-0.39306640625	0.75341796875	-31.4375	-18.9375	14.4375
18	12	12	15	34	40	0.48053014855	0.100830154376	0.327820072128	-0.4775390625	-0.3388671875	0.703125	-32.3125	-20.625	13.375
