18	12	03	12	36	27	-0.67449058425	0.56371324189	0.0358881968635	-0.63330078125	-0.7734375	0.30810546875	-34.8125	-56.75	17.625
18	12	03	12	36	27	-0.667352116142	0.564691949748	0.042419034271	-0.54150390625	-0.74169921875	0.265625	-39.125	-55.375	26.125
18	12	03	12	36	27	-0.662470572427	0.562556777784	0.0473018881179	-0.76708984375	-0.95849609375	0.48193359375	-21.5625	-56.875	20.5625
18	12	03	12	36	27	-0.657821840734	0.560717132197	0.0536486730382	-0.50390625	-0.8525390625	0.40966796875	-24.75	-53.875	22.25
18	12	03	12	36	27	-0.654697939598	0.556862496587	0.0557839020036	-0.58154296875	-0.806640625	0.44287109375	-2.5	-45.8125	27.3125
18	12	03	12	36	27	-0.653293721122	0.552101550941	0.057431744355	-0.49462890625	-0.73388671875	0.40771484375	8.125	-41.625	21.125
18	12	03	12	36	27	-0.650094770762	0.549568426997	0.0577400857329	-0.435546875	-0.58642578125	0.2177734375	4.6875	-34.9375	29.25
18	12	03	12	36	27	-0.64873805137	0.546321789239	0.0573726379046	-0.68359375	-0.83544921875	0.30859375	17.375	-33.0	15.5625
18	12	03	12	36	27	-0.64635803675	0.54577276342	0.0585323283516	-0.63623046875	-0.88916015625	0.10595703125	11.4375	-31.375	13.25
18	12	03	12	36	27	-0.644100753843	0.544186707217	0.059325872523	-0.6259765625	-0.9296875	0.19140625	13.6875	-32.8125	19.0
18	12	03	12	36	27	-0.640122550554	0.543872239511	0.0606065687167	-0.59423828125	-0.82470703125	0.0927734375	4.875	-35.6875	24.25
18	12	03	12	36	27	-0.634385123537	0.543994093332	0.0629868623716	-0.60400390625	-0.7333984375	0.23974609375	-15.875	-38.375	27.5625
18	12	03	12	36	27	-0.628039375448	0.545277335302	0.0659777030962	-0.57080078125	-0.701171875	0.26123046875	-25.625	-33.3125	27.0
18	12	03	12	36	27	-0.624232055628	0.544036423922	0.0664024713066	-0.59375	-0.71435546875	0.396484375	-7.875	-26.125	24.6875
18	12	03	12	36	27	-0.624389290229	0.539062190743	0.062988245114	-0.583984375	-0.744140625	0.44091796875	29.625	-19.875	23.3125
18	12	03	12	36	27	-0.628158195471	0.530870577556	0.0560288790752	-0.4853515625	-0.76416015625	0.33935546875	70.4375	-15.375	25.125
18	12	03	12	36	27	-0.634137083644	0.521835617436	0.0476060563275	-0.52490234375	-0.8330078125	0.35205078125	87.4375	-8.375	17.4375
18	12	03	12	36	27	-0.639128160816	0.514378546539	0.0386943519822	-0.53662109375	-0.73388671875	0.2119140625	85.1875	-5.625	16.125
18	12	03	12	36	27	-0.642378767355	0.509813761874	0.0318595455163	-0.607421875	-0.8046875	0.23779296875	64.3125	-3.4375	12.625
18	12	03	12	36	27	-0.644477198997	0.505437606297	0.0266116165132	-0.54052734375	-0.7978515625	0.29052734375	53.1875	-7.0	18.875
18	12	03	12	36	27	-0.645303509411	0.501753537394	0.0225212328547	-0.6005859375	-0.81396484375	0.3515625	41.4375	-11.4375	20.625
18	12	03	12	36	27	-0.644574817658	0.498765780693	0.020385189764	-0.59423828125	-0.765625	0.41650390625	24.0	-17.0	22.8125
18	12	03	12	36	27	-0.642876587906	0.496698915065	0.0198362186528	-0.57568359375	-0.74072265625	0.4921875	8.625	-16.5625	22.4375
18	12	03	12	36	27	-0.64050886032	0.495304879121	0.0194093594036	-0.5283203125	-0.64794921875	0.49951171875	0.0625	-13.625	23.8125
18	12	03	12	36	27	-0.637506451495	0.494502371471	0.0187376238017	-0.60302734375	-0.6044921875	0.52490234375	-5.25	-12.9375	22.5
18	12	03	12	36	27	-0.635303077308	0.492361410764	0.0168453885423	-0.65185546875	-0.59326171875	0.5634765625	4.0625	-13.75	21.9375
18	12	03	12	36	27	-0.635051450416	0.488815671925	0.015258324133	-0.59619140625	-0.677734375	0.626953125	14.625	-12.25	16.75
18	12	03	12	36	27	-0.635920172423	0.484310065091	0.0114745169801	-0.59619140625	-0.64892578125	0.58203125	30.4375	-8.625	16.875
18	12	03	12	36	27	-0.637630435213	0.47869584602	0.00714107025174	-0.5634765625	-0.61865234375	0.5947265625	37.75	-8.6875	16.0625
18	12	03	12	36	27	-0.638778589708	0.473560393421	0.00427235823424	-0.53955078125	-0.609375	0.59716796875	30.0625	-11.8125	15.3125
18	12	03	12	36	27	-0.639442851261	0.469771082004	0.00286855149463	-0.546875	-0.583984375	0.6494140625	15.8125	-10.0	9.6875
18	12	03	12	36	28	-0.640176095139	0.465987652435	0.00213615819715	-0.49658203125	-0.505859375	0.65087890625	11.125	-10.0625	6.6875
18	12	03	12	36	28	-0.639339185411	0.464291473358	0.00433346846436	-0.5400390625	-0.556640625	0.69970703125	-11.125	-13.625	3.875
18	12	03	12	36	28	-0.63778526454	0.463355572095	0.00750694617593	-0.51220703125	-0.59619140625	0.74072265625	-19.0	-12.25	7.375
18	12	03	12	36	28	-0.636090021115	0.462938285373	0.0101925766193	-0.53466796875	-0.564453125	0.677734375	-18.5625	-11.75	5.6875
18	12	03	12	36	28	-0.634201293369	0.462086227707	0.0138546524487	-0.615234375	-0.6123046875	0.77685546875	-23.1875	-17.375	3.9375
18	12	03	12	36	28	-0.632248464261	0.460621600519	0.0173335808331	-0.4931640625	-0.5498046875	0.7275390625	-20.8125	-17.5625	8.625
18	12	03	12	36	28	-0.629737568095	0.459577814281	0.0218497818742	-0.50146484375	-0.53076171875	0.75634765625	-29.25	-20.0	7.5
18	12	03	12	36	28	-0.627006725406	0.458734794914	0.0275265290721	-0.52001953125	-0.56005859375	0.77490234375	-34.6875	-23.875	4.625
18	12	03	12	36	28	-0.623893484766	0.457574785296	0.0342402900561	-0.5322265625	-0.57568359375	0.82373046875	-39.9375	-28.5	4.875
18	12	03	12	36	28	-0.620466967929	0.456530879413	0.0409535053591	-0.560546875	-0.61376953125	0.728515625	-35.5625	-34.0	6.25
18	12	03	12	36	28	-0.617294066607	0.455432897471	0.047362091723	-0.73486328125	-0.74853515625	0.73681640625	-28.75	-39.375	2.375
18	12	03	12	36	28	-0.613346888095	0.454410148459	0.0524906282975	-0.52392578125	-0.55078125	0.595703125	-28.1875	-33.25	12.125
18	12	03	12	36	28	-0.607099828876	0.45476031215	0.0581648875961	-0.59375	-0.46533203125	0.59326171875	-44.1875	-36.625	17.1875
18	12	03	12	36	28	-0.60003720004	0.454895458437	0.0654297506299	-0.68359375	-0.53076171875	0.68994140625	-53.0	-45.0	16.5
18	12	03	12	36	28	-0.592171176533	0.455084342633	0.0726938642806	-0.4140625	-0.3125	0.59423828125	-59.8125	-38.875	24.75
18	12	03	12	36	28	-0.585687598212	0.45464640674	0.0798331990893	-0.5400390625	-0.451171875	0.72607421875	-55.0	-38.0625	15.3125
18	12	03	12	36	28	-0.581652669873	0.453481567383	0.0847149953603	-0.525390625	-0.59716796875	0.5927734375	-26.3125	-32.25	12.1875
18	12	03	12	36	28	-0.578967249122	0.451894740934	0.0878277326045	-0.57177734375	-0.6328125	0.56298828125	-11.625	-28.8125	8.1875
18	12	03	12	36	28	-0.575473949628	0.45072384325	0.0906330273833	-0.57958984375	-0.56982421875	0.58203125	-17.6875	-27.1875	10.8125
18	12	03	12	36	28	-0.569583605735	0.451723989075	0.0955206111204	-0.626953125	-0.5771484375	0.48583984375	-34.0625	-32.8125	14.875
18	12	03	12	36	28	-0.562445592232	0.452947231682	0.102540270749	-0.60498046875	-0.60986328125	0.509765625	-46.625	-38.6875	17.6875
18	12	03	12	36	28	-0.554137236071	0.455687697379	0.112365530522	-0.58056640625	-0.64208984375	0.5009765625	-65.0	-39.9375	15.5625
18	12	03	12	36	28	-0.545226536906	0.458861872211	0.122375372943	-0.62060546875	-0.6611328125	0.501953125	-68.4375	-40.0	15.5625
18	12	03	12	36	28	-0.536112409755	0.461896484179	0.1323191831	-0.654296875	-0.73876953125	0.50732421875	-67.0625	-40.9375	17.0
18	12	03	12	36	28	-0.526907770124	0.46562948897	0.142880932452	-0.603515625	-0.73828125	0.49853515625	-72.875	-36.0625	15.4375
18	12	03	12	36	28	-0.517525183364	0.470405305836	0.153017529743	-0.6923828125	-0.78662109375	0.48779296875	-74.25	-31.6875	12.9375
18	12	03	12	36	28	-0.508542615364	0.47405790849	0.162169674631	-0.5361328125	-0.71240234375	0.4873046875	-69.125	-27.375	18.875
18	12	03	12	36	28	-0.499207625311	0.479188050657	0.167541867157	-0.67724609375	-0.6728515625	0.3203125	-53.3125	-20.9375	23.3125
18	12	03	12	36	28	-0.491623716338	0.481980445428	0.171747875577	-0.7314453125	-0.78857421875	0.39453125	-36.9375	-25.25	20.0
18	12	03	12	36	28	-0.483808694249	0.485212453548	0.175042681356	-0.63525390625	-0.705078125	0.302734375	-33.5	-20.375	26.0625
18	12	03	12	36	28	-0.476359027274	0.487711080967	0.177665743549	-0.67431640625	-0.72119140625	0.34619140625	-29.625	-21.375	25.3125
18	12	03	12	36	28	-0.469591555812	0.489793636001	0.181086320002	-0.6181640625	-0.791015625	0.2822265625	-25.25	-23.25	24.4375
18	12	03	12	36	28	-0.464219841367	0.490769358984	0.182917021375	-0.6201171875	-0.80078125	0.29541015625	-12.3125	-21.75	22.625
18	12	03	12	36	28	-0.459292600646	0.491275234897	0.184815680366	-0.5283203125	-0.75244140625	0.29931640625	-11.625	-19.9375	23.375
18	12	03	12	36	28	-0.453723715168	0.492113843879	0.188105527327	-0.52978515625	-0.71337890625	0.36279296875	-25.25	-20.125	20.375
18	12	03	12	36	28	-0.446458717136	0.494003671428	0.194146982804	-0.58837890625	-0.7294921875	0.41162109375	-46.875	-22.8125	16.875
18	12	03	12	36	28	-0.438463945441	0.49705600942	0.202142620727	-0.58740234375	-0.75390625	0.3564453125	-58.5	-22.4375	13.875
18	12	03	12	36	28	-0.431696189116	0.498711941364	0.209408967179	-0.544921875	-0.744140625	0.4072265625	-52.0625	-22.375	11.625
18	12	03	12	36	28	-0.426070163281	0.500164014911	0.212455269787	-0.62060546875	-0.6611328125	0.30615234375	-27.125	-18.4375	13.0625
18	12	03	12	36	28	-0.420143157155	0.501681689688	0.216113730314	-0.6611328125	-0.6572265625	0.361328125	-34.4375	-18.75	10.25
18	12	03	12	36	28	-0.414426057055	0.502255084463	0.221739302692	-0.68603515625	-0.728515625	0.4814453125	-44.3125	-22.3125	3.5
18	12	03	12	36	28	-0.408933470492	0.502621959627	0.228209290473	-0.65087890625	-0.828125	0.49658203125	-45.75	-22.5	4.0625
18	12	03	12	36	28	-0.40472158288	0.502255150885	0.232786626015	-0.6513671875	-0.84326171875	0.4736328125	-30.6875	-20.75	4.625
18	12	03	12	36	28	-0.401666111693	0.501884278446	0.234310318005	-0.62109375	-0.74267578125	0.419921875	-14.125	-14.0625	7.0625
18	12	03	12	36	28	-0.396848708404	0.501828680482	0.236327006912	-0.548828125	-0.56396484375	0.4091796875	-25.75	-16.3125	12.0625
18	12	03	12	36	28	-0.393126129941	0.499143842673	0.239318049293	-0.5048828125	-0.638671875	0.5361328125	-24.0625	-24.375	7.75
18	12	03	12	36	28	-0.390553135996	0.496568262926	0.242546985849	-0.419921875	-0.595703125	0.4619140625	-20.125	-21.625	3.0
18	12	03	12	36	28	-0.389094704521	0.493890878271	0.245297508622	-0.44970703125	-0.626953125	0.39990234375	-11.25	-21.3125	-1.4375
18	12	03	12	36	28	-0.387448757143	0.49151304998	0.249327059377	-0.46240234375	-0.70751953125	0.3427734375	-13.5625	-24.4375	-3.3125
18	12	03	12	36	28	-0.385560203084	0.48980855307	0.254273200261	-0.58203125	-0.8173828125	0.3173828125	-16.25	-26.375	-7.8125
18	12	03	12	36	28	-0.381469006074	0.488280327775	0.261168940319	-0.69873046875	-0.89453125	0.31591796875	-28.75	-37.0625	-6.9375
18	12	03	12	36	29	-0.37433515009	0.486458690073	0.270024246535	-0.65087890625	-0.87890625	0.3212890625	-44.9375	-48.3125	3.5625
18	12	03	12	36	29	-0.364923247617	0.485160544457	0.280574037347	-0.64111328125	-0.81103515625	0.3310546875	-62.5625	-52.375	6.8125
18	12	03	12	36	29	-0.352715102187	0.484365296929	0.293390118742	-0.64794921875	-0.71533203125	0.4755859375	-92.375	-53.0625	8.375
18	12	03	12	36	29	-0.340203902385	0.484000169701	0.308527220408	-0.5908203125	-0.74951171875	0.533203125	-101.6875	-51.5625	9.375
18	12	03	12	36	29	-0.329651431528	0.481873366398	0.319397508088	-0.65576171875	-0.86328125	0.62109375	-83.625	-46.375	7.6875
18	12	03	12	36	29	-0.322018094892	0.479426106023	0.327083959539	-0.55029296875	-0.8515625	0.55712890625	-58.25	-36.1875	9.5
18	12	03	12	36	29	-0.317024263441	0.476390908	0.329475736244	-0.59619140625	-0.8369140625	0.42626953125	-17.375	-33.6875	10.9375
18	12	03	12	36	29	-0.31371710242	0.473566341961	0.329525026453	-0.6201171875	-0.81396484375	0.32958984375	2.625	-29.6875	8.75
18	12	03	12	36	29	-0.309944489354	0.471874920677	0.329720388242	-0.59130859375	-0.72607421875	0.23583984375	0.8125	-27.375	10.1875
18	12	03	12	36	29	-0.303941110211	0.471169753179	0.332504250689	-0.64208984375	-0.76416015625	0.2099609375	-17.5	-31.5	12.0625
18	12	03	12	36	29	-0.296861311553	0.469949033502	0.338485368806	-0.59765625	-0.8251953125	0.19970703125	-33.3125	-38.3125	10.375
18	12	03	12	36	29	-0.289616286343	0.467414440635	0.344548774796	-0.56298828125	-0.8193359375	0.23095703125	-32.625	-44.5625	11.125
18	12	03	12	36	29	-0.282658539169	0.463752878559	0.34943211763	-0.51220703125	-0.76513671875	0.2646484375	-25.9375	-47.0	13.0625
18	12	03	12	36	29	-0.276610392474	0.46008145156	0.353392359317	-0.51513671875	-0.76025390625	0.22607421875	-17.4375	-45.375	11.375
18	12	03	12	36	29	-0.271605835697	0.454893998529	0.356810722581	-0.513671875	-0.76806640625	0.31298828125	-12.9375	-47.6875	6.1875
18	12	03	12	36	29	-0.266606030876	0.449653532387	0.359136878589	-0.5068359375	-0.7490234375	0.28173828125	-5.5	-48.75	9.4375
18	12	03	12	36	29	-0.262201400195	0.443655022816	0.360282789886	-0.5244140625	-0.76513671875	0.37744140625	-0.8125	-48.5	8.5
18	12	03	12	36	29	-0.257508251377	0.438539176616	0.362489098111	-0.50439453125	-0.75732421875	0.37353515625	-8.875	-43.75	8.3125
18	12	03	12	36	29	-0.251469575557	0.434029163055	0.366706118919	-0.55224609375	-0.85107421875	0.4033203125	-23.375	-45.0625	9.5
18	12	03	12	36	29	-0.246210259822	0.429067458242	0.371451571957	-0.53662109375	-0.9873046875	0.4306640625	-22.125	-44.1875	8.8125
18	12	03	12	36	29	-0.240910133287	0.425056541224	0.374030224673	-0.53173828125	-0.90625	0.369140625	-11.5	-39.8125	14.0625
18	12	03	12	36	29	-0.234927551944	0.421758738357	0.37628692069	-0.55810546875	-0.8515625	0.36328125	-13.5	-38.9375	16.0625
18	12	03	12	36	29	-0.228268195186	0.418328933102	0.379877338726	-0.51708984375	-0.849609375	0.36328125	-22.0625	-40.125	17.4375
18	12	03	12	36	29	-0.221497509906	0.415101836558	0.383424457765	-0.52685546875	-0.86474609375	0.35693359375	-22.0	-39.5625	17.875
18	12	03	12	36	29	-0.214718476957	0.412347365072	0.386346776333	-0.56201171875	-0.84375	0.333984375	-19.125	-38.375	18.25
18	12	03	12	36	29	-0.207395523244	0.409664141264	0.389400658711	-0.552734375	-0.814453125	0.3486328125	-22.375	-38.75	19.9375
18	12	03	12	36	29	-0.200624704348	0.406986774747	0.392826467048	-0.541015625	-0.80517578125	0.34765625	-24.25	-36.4375	16.4375
18	12	03	12	36	29	-0.193478650209	0.404779308577	0.396600715792	-0.53076171875	-0.72021484375	0.30810546875	-28.1875	-35.375	15.5625
18	12	03	12	36	29	-0.187316343613	0.403258091316	0.398863572991	-0.61083984375	-0.76953125	0.25146484375	-15.25	-32.75	13.8125
18	12	03	12	36	29	-0.181517143117	0.402401655874	0.400082337973	-0.6455078125	-0.77197265625	0.19970703125	-6.9375	-30.0625	14.5
18	12	03	12	36	29	-0.175660842167	0.401920307738	0.40069959306	-0.6259765625	-0.73486328125	0.19287109375	-5.4375	-28.0625	17.3125
18	12	03	12	36	29	-0.170407486547	0.400933660145	0.401544002145	-0.64208984375	-0.79150390625	0.2294921875	-5.0625	-28.25	14.125
18	12	03	12	36	29	-0.166075593865	0.398801150428	0.402280131997	-0.57568359375	-0.8271484375	0.22607421875	0.6875	-30.4375	12.9375
18	12	03	12	36	29	-0.163029056841	0.396128258667	0.399973571502	-0.57763671875	-0.89404296875	0.2587890625	22.3125	-29.75	16.6875
18	12	03	12	36	29	-0.159785495902	0.39238386293	0.39574070108	-0.439453125	-0.76220703125	0.26953125	31.75	-33.0625	24.25
18	12	03	12	36	29	-0.157778266739	0.388433612971	0.38934915417	-0.51318359375	-0.7587890625	0.29052734375	46.5625	-32.8125	19.5
18	12	03	12	36	29	-0.156248806757	0.384152339737	0.384030270357	-0.572265625	-0.7861328125	0.3369140625	41.0625	-33.75	11.875
18	12	03	12	36	29	-0.154115340918	0.381229473019	0.378665970318	-0.5537109375	-0.748046875	0.28955078125	39.4375	-29.125	17.5
18	12	03	12	36	29	-0.151365687584	0.378414218959	0.373897662152	-0.609375	-0.765625	0.37255859375	31.625	-28.8125	17.0
18	12	03	12	36	29	-0.147397143156	0.375054014367	0.3698661232	-0.5517578125	-0.78369140625	0.4345703125	24.4375	-31.1875	24.125
18	12	03	12	36	29	-0.143858362461	0.370967809521	0.366207117	-0.54150390625	-0.80712890625	0.5107421875	21.9375	-31.5	21.6875
18	12	03	12	36	29	-0.139216169952	0.367418388037	0.361193026645	-0.51025390625	-0.6748046875	0.51318359375	23.125	-30.25	28.1875
18	12	03	12	36	29	-0.134951953291	0.364266511643	0.357125227819	-0.57470703125	-0.7421875	0.54150390625	19.1875	-28.25	24.5625
18	12	03	12	36	29	-0.130918807793	0.361628874673	0.354976124067	-0.53173828125	-0.7236328125	0.486328125	10.1875	-25.4375	21.0625
18	12	03	12	36	29	-0.126947045119	0.35935778926	0.353071469237	-0.61767578125	-0.7705078125	0.47216796875	11.25	-26.5	18.75
18	12	03	12	36	29	-0.122127653657	0.356556598032	0.352101166389	-0.57177734375	-0.72509765625	0.52734375	1.0	-28.0	20.5625
18	12	03	12	36	29	-0.115722174498	0.354307607048	0.353208978809	-0.576171875	-0.67626953125	0.521484375	-15.625	-28.625	22.8125
18	12	03	12	36	29	-0.108701342581	0.351188952955	0.357963713778	-0.5791015625	-0.69921875	0.56005859375	-37.875	-32.375	16.3125
18	12	03	12	36	29	-0.101257755187	0.347596694269	0.364564539924	-0.53759765625	-0.62939453125	0.5830078125	-52.9375	-33.5625	12.25
18	12	03	12	36	30	-0.0939335586289	0.343324410193	0.370241043953	-0.490234375	-0.63671875	0.578125	-46.25	-35.75	15.0
18	12	03	12	36	30	-0.0864241326952	0.338494519723	0.374138371061	-0.4873046875	-0.609375	0.5947265625	-37.625	-39.125	17.625
18	12	03	12	36	30	-0.0797715407838	0.333307103459	0.3763361289	-0.48388671875	-0.59619140625	0.62548828125	-27.625	-38.25	15.5625
18	12	03	12	36	30	-0.0744010482286	0.327999370944	0.377193173136	-0.51708984375	-0.63916015625	0.6552734375	-17.25	-36.9375	12.0
18	12	03	12	36	30	-0.0694585765547	0.32202412118	0.377932782097	-0.46044921875	-0.70654296875	0.7021484375	-14.8125	-36.5625	13.375
18	12	03	12	36	30	-0.0651865903624	0.316289242751	0.379461640715	-0.46337890625	-0.78955078125	0.6279296875	-11.8125	-36.125	11.625
18	12	03	12	36	30	-0.0613384415367	0.310842470394	0.379810071326	-0.45361328125	-0.779296875	0.587890625	-2.8125	-35.375	12.3125
18	12	03	12	36	30	-0.0562124721779	0.30694084971	0.381646675927	-0.537109375	-0.7158203125	0.54345703125	-15.6875	-33.9375	12.25
18	12	03	12	36	30	-0.0495610751025	0.303103816452	0.386661835929	-0.4912109375	-0.6796875	0.541015625	-38.25	-33.6875	14.75
18	12	03	12	36	30	-0.0424190773315	0.299680100285	0.391964481472	-0.48974609375	-0.66015625	0.52099609375	-41.875	-32.8125	17.0
18	12	03	12	36	30	-0.0354611070183	0.296200950706	0.396358741785	-0.55712890625	-0.66650390625	0.53173828125	-36.6875	-35.1875	14.0625
18	12	03	12	36	30	-0.0285641363451	0.293392742331	0.400325150187	-0.58349609375	-0.6689453125	0.49609375	-33.25	-32.9375	14.5625
18	12	03	12	36	30	-0.0216065132466	0.291382752089	0.404298146174	-0.607421875	-0.65625	0.47802734375	-34.0625	-30.4375	15.125
18	12	03	12	36	30	-0.0148312337341	0.288934405338	0.407828410745	-0.62255859375	-0.73486328125	0.49951171875	-29.5625	-31.8125	16.0
18	12	03	12	36	30	-0.00866702324782	0.286011767178	0.410401861397	-0.58251953125	-0.78515625	0.46484375	-18.8125	-33.25	17.0
18	12	03	12	36	30	-0.00341799882557	0.283815973909	0.411990929868	-0.59326171875	-0.74658203125	0.4423828125	-12.375	-29.125	14.1875
18	12	03	12	36	30	0.00256348219206	0.28271546461	0.416077573888	-0.5615234375	-0.67919921875	0.4140625	-31.125	-22.3125	15.5625
18	12	03	12	36	30	0.00860589760923	0.282407717999	0.421627948118	-0.55322265625	-0.70361328125	0.38525390625	-39.1875	-17.1875	16.5
18	12	03	12	36	30	0.0140989160734	0.281856252931	0.426812641133	-0.57958984375	-0.76171875	0.39111328125	-34.75	-17.625	14.5625
18	12	03	12	36	30	0.019592189617	0.281370698238	0.433469565919	-0.52490234375	-0.73779296875	0.36669921875	-44.625	-14.375	14.375
18	12	03	12	36	30	0.0254511188283	0.28191539057	0.440359286202	-0.5869140625	-0.732421875	0.3388671875	-46.875	-11.375	14.75
18	12	03	12	36	30	0.0318590979833	0.282947851055	0.448651780221	-0.6474609375	-0.75	0.28515625	-54.8125	-11.8125	14.375
18	12	03	12	36	30	0.0391834973024	0.284843274004	0.456774600952	-0.6865234375	-0.7412109375	0.2548828125	-56.0625	-10.5625	19.125
18	12	03	12	36	30	0.0474861357651	0.288334839787	0.463325522613	-0.751953125	-0.69482421875	0.2431640625	-51.125	-7.625	26.0625
18	12	03	12	36	30	0.0552987750861	0.292119136382	0.467109851803	-0.76123046875	-0.7607421875	0.22705078125	-31.25	-7.75	31.0625
18	12	03	12	36	30	0.0625007086321	0.297122509396	0.46631388081	-0.7646484375	-0.75439453125	0.18994140625	-0.75	-6.125	39.25
18	12	03	12	36	30	0.0687273400166	0.303108321956	0.465038724322	-0.751953125	-0.744140625	0.02392578125	11.5	-4.125	39.5
18	12	03	12	36	30	0.0698876862864	0.306651297732	0.464920966326	-0.4873046875	-1.03515625	0.05810546875	21.0625	5.1875	32.625
18	12	03	12	36	30	0.0676289925909	0.311227647311	0.466017471508	-0.3828125	-1.029296875	-0.01220703125	22.5625	21.3125	22.1875
18	12	03	12	36	30	0.0660388198295	0.31835349744	0.464957236101	-0.48046875	-0.89794921875	0.05224609375	25.6875	31.125	26.75
18	12	03	12	36	30	0.0647577880243	0.326657569751	0.462703855808	-0.533203125	-0.87353515625	0.1552734375	25.3125	38.3125	30.5
18	12	03	12	36	30	0.0621963373502	0.334724940165	0.459178651507	-0.55810546875	-0.77294921875	0.2099609375	30.5	40.5	21.125
18	12	03	12	36	30	0.0604240578198	0.343867819956	0.457391807375	-0.60986328125	-0.65673828125	0.18701171875	14.75	45.4375	18.3125
18	12	03	12	36	30	0.0581664980557	0.35205074584	0.455688430728	-0.61376953125	-0.7216796875	0.27099609375	12.75	45.5625	16.5
18	12	03	12	36	30	0.0568245177412	0.358525474986	0.454168889917	-0.61083984375	-0.8271484375	0.38037109375	7.3125	39.75	21.1875
18	12	03	12	36	30	0.0528565486882	0.362244360814	0.44928066385	-0.6064453125	-1.01123046875	0.4453125	37.9375	29.0	16.6875
18	12	03	12	36	30	0.0463859605047	0.364251858279	0.440544556477	-0.53173828125	-0.9833984375	0.44091796875	68.125	21.375	10.25
18	12	03	12	36	30	0.0394293073711	0.36762030696	0.428534314322	-0.56103515625	-0.7177734375	0.38671875	85.0	22.125	5.25
18	12	03	12	36	30	0.0336309730942	0.370184849032	0.417610014357	-0.6025390625	-0.59326171875	0.46826171875	69.6875	19.4375	-0.75
18	12	03	12	36	30	0.0305186746937	0.372144719214	0.409316464991	-0.66943359375	-0.5732421875	0.51416015625	46.0	13.0	1.9375
18	12	03	12	36	30	0.0294188064577	0.372862009648	0.402158746369	-0.7099609375	-0.58251953125	0.568359375	34.5625	4.0625	5.125
18	12	03	12	36	30	0.0275269902658	0.371766957227	0.395998032915	-0.69091796875	-0.6806640625	0.6376953125	31.75	-0.4375	0.75
18	12	03	12	36	30	0.0258177318757	0.370420365848	0.391538416034	-0.654296875	-0.62939453125	0.62744140625	21.375	0.0	-3.5
18	12	03	12	36	30	0.0235599255544	0.368535830304	0.387884266575	-0.68505859375	-0.7236328125	0.60595703125	22.4375	-3.375	-5.5625
18	12	03	12	36	30	0.0203238064939	0.365340257274	0.384260317374	-0.62841796875	-0.75537109375	0.59521484375	27.5	-8.0625	-9.875
18	12	03	12	36	30	0.0172115729255	0.362907846153	0.379081841987	-0.58154296875	-0.61181640625	0.5927734375	31.6875	-4.625	-8.875
18	12	03	12	36	30	0.0151979336654	0.360966183522	0.376286188944	-0.615234375	-0.51708984375	0.5732421875	13.25	-4.3125	-12.875
18	12	03	12	36	30	0.0133669918726	0.358894576306	0.376656195643	-0.63720703125	-0.6201171875	0.560546875	-1.375	-3.5625	-15.5625
18	12	03	12	36	30	0.0112916047984	0.356265390315	0.377444778775	-0.587890625	-0.64013671875	0.51708984375	-0.5625	-6.4375	-16.0
18	12	03	12	36	30	0.0101930033697	0.353398140782	0.377812520111	-0.5576171875	-0.59130859375	0.52783203125	-2.0	-9.3125	-12.25
18	12	03	12	36	30	0.0103758044426	0.351251497455	0.379998579176	-0.65283203125	-0.56982421875	0.4609375	-13.875	-12.0625	-13.0
18	12	03	12	36	31	0.0117798305536	0.347108271287	0.384522966257	-0.5888671875	-0.5927734375	0.54345703125	-31.5625	-18.625	-13.4375
18	12	03	12	36	31	0.0134277513826	0.342773871657	0.389282719628	-0.5751953125	-0.6513671875	0.52978515625	-31.0625	-20.25	-10.0625
18	12	03	12	36	31	0.0145874939929	0.338381032204	0.393984408888	-0.6455078125	-0.7353515625	0.546875	-28.4375	-21.25	-13.0625
18	12	03	12	36	31	0.0158080175176	0.333555273103	0.39739769134	-0.619140625	-0.7119140625	0.57763671875	-22.875	-22.8125	-11.3125
18	12	03	12	36	31	0.0174562419086	0.329471307073	0.400822169979	-0.59716796875	-0.65478515625	0.51904296875	-23.75	-21.9375	-9.8125
18	12	03	12	36	31	0.0192258226489	0.325435194807	0.40368124127	-0.5537109375	-0.63623046875	0.447265625	-18.125	-23.75	-6.75
18	12	03	12	36	31	0.0216061221915	0.321528394647	0.406427027326	-0.630859375	-0.62451171875	0.4658203125	-20.0625	-26.4375	-7.875
18	12	03	12	36	31	0.0249026994319	0.318241850093	0.410040036234	-0.65576171875	-0.59765625	0.4228515625	-26.625	-26.875	-6.125
18	12	03	12	36	31	0.0294197659327	0.315316412466	0.414745455421	-0.71484375	-0.5888671875	0.43994140625	-37.1875	-27.4375	-4.1875
18	12	03	12	36	31	0.0350336134728	0.31054185601	0.420952669202	-0.6669921875	-0.67431640625	0.54541015625	-50.1875	-32.8125	-1.375
18	12	03	12	36	31	0.040221635975	0.304439332691	0.426874236737	-0.56591796875	-0.6923828125	0.54931640625	-46.875	-36.0	-0.875
18	12	03	12	36	31	0.0447984475812	0.298819072694	0.430162750071	-0.625	-0.6953125	0.55859375	-30.5625	-36.25	-1.25
18	12	03	12	36	31	0.0494382799593	0.294005178474	0.432798571842	-0.58349609375	-0.6044921875	0.50439453125	-27.6875	-34.0625	0.25
18	12	03	12	36	31	0.0531005069105	0.289611385391	0.432921718984	-0.61572265625	-0.6455078125	0.47998046875	-8.4375	-33.9375	0.1875
18	12	03	12	36	31	0.0568844072847	0.285276523228	0.433163775214	-0.6298828125	-0.65576171875	0.4462890625	-6.6875	-35.875	0.375
18	12	03	12	36	31	0.061157018898	0.280089380961	0.434996081523	-0.66455078125	-0.7431640625	0.48046875	-16.0625	-40.125	-0.625
18	12	03	12	36	31	0.066467782115	0.274294042998	0.438357769651	-0.595703125	-0.70751953125	0.45654296875	-27.375	-42.5	2.8125
18	12	03	12	36	31	0.0725708303843	0.269409289585	0.440307796798	-0.6455078125	-0.669921875	0.44677734375	-21.4375	-43.1875	6.6875
18	12	03	12	36	31	0.0780641260989	0.264343807767	0.440186456157	-0.5771484375	-0.6259765625	0.4912109375	-10.75	-41.75	7.5
18	12	03	12	36	31	0.0827651177735	0.260136380494	0.438484222776	-0.53466796875	-0.6083984375	0.53515625	-2.5	-34.375	9.8125
18	12	03	12	36	31	0.0870369383852	0.257509707607	0.436832656398	-0.55859375	-0.59619140625	0.484375	0.125	-27.9375	10.375
18	12	03	12	36	31	0.0900274648534	0.255739035753	0.434023933948	-0.72412109375	-0.73583984375	0.482421875	14.1875	-27.5	4.625
18	12	03	12	36	31	0.0928960987203	0.25464029163	0.43078887304	-0.66162109375	-0.69970703125	0.404296875	19.9375	-24.875	8.4375
18	12	03	12	36	31	0.0967380009462	0.254143240341	0.427722341092	-0.615234375	-0.64794921875	0.39111328125	16.6875	-23.0625	15.4375
18	12	03	12	36	31	0.101563845817	0.252505787347	0.426885539449	-0.63720703125	-0.708984375	0.42138671875	2.1875	-28.0625	16.125
18	12	03	12	36	31	0.107177473454	0.249083866268	0.427550228671	-0.5908203125	-0.70947265625	0.47900390625	-11.4375	-33.875	16.1875
18	12	03	12	36	31	0.112918852369	0.245125465467	0.428542304045	-0.55908203125	-0.6923828125	0.5478515625	-17.0625	-33.125	15.4375
18	12	03	12	36	31	0.118834285165	0.240415125458	0.429195014526	-0.45166015625	-0.61865234375	0.59423828125	-20.1875	-32.5625	17.5
18	12	03	12	36	31	0.125368748364	0.235173216868	0.429452051359	-0.4599609375	-0.5517578125	0.69580078125	-26.125	-34.0	16.4375
18	12	03	12	36	31	0.132202379417	0.230225011616	0.430115497575	-0.47119140625	-0.48583984375	0.6943359375	-31.8125	-33.1875	15.5625
18	12	03	12	36	31	0.138303686399	0.226437191766	0.429132047252	-0.56005859375	-0.51513671875	0.666015625	-17.25	-32.4375	13.25
18	12	03	12	36	31	0.143619567662	0.222662211148	0.427196495565	-0.57861328125	-0.56298828125	0.6396484375	-6.8125	-33.5	11.0
18	12	03	12	36	31	0.148864156318	0.218810168266	0.426084737702	-0.64404296875	-0.6728515625	0.60546875	-5.75	-36.8125	10.875
18	12	03	12	36	31	0.155701761591	0.213441419163	0.42560109117	-0.69287109375	-0.666015625	0.64404296875	-14.5	-47.9375	12.125
18	12	03	12	36	31	0.165037742501	0.20617510879	0.427547849932	-0.57177734375	-0.63037109375	0.59716796875	-33.875	-57.0	21.8125
18	12	03	12	36	31	0.175169809321	0.199522685251	0.429501724108	-0.6708984375	-0.662109375	0.59423828125	-33.5625	-60.0	24.1875
18	12	03	12	36	32	0.184327915008	0.194032596626	0.430485027996	-0.66357421875	-0.64697265625	0.54638671875	-24.25	-54.1875	23.0625
18	12	03	12	36	32	0.193358822517	0.190001898515	0.430052482151	-0.56689453125	-0.53173828125	0.53076171875	-18.125	-45.625	27.75
18	12	03	12	36	32	0.201723722781	0.186586814082	0.429021496952	-0.6083984375	-0.5634765625	0.546875	-12.8125	-42.9375	25.8125
18	12	03	12	36	32	0.208806012994	0.182926518837	0.428537567153	-0.640625	-0.68408203125	0.5283203125	-8.375	-42.5	21.4375
18	12	03	12	36	32	0.215634657768	0.179868479039	0.426996905108	-0.6328125	-0.68212890625	0.5	0.1875	-41.4375	22.5
18	12	03	12	36	32	0.222474766466	0.176514958743	0.42743231538	-0.59912109375	-0.681640625	0.49755859375	-11.6875	-38.375	22.3125
18	12	03	12	36	32	0.229125479365	0.173217397559	0.429076217351	-0.55517578125	-0.65771484375	0.4970703125	-20.0625	-33.375	22.8125
18	12	03	12	36	32	0.23669982814	0.169620634967	0.430735092106	-0.5888671875	-0.61328125	0.5205078125	-25.1875	-37.75	23.75
18	12	03	12	36	32	0.244928615723	0.164180906129	0.432546498786	-0.578125	-0.64599609375	0.615234375	-32.125	-44.375	23.375
18	12	03	12	36	32	0.253230288988	0.159176812167	0.433830054019	-0.58447265625	-0.59326171875	0.62060546875	-31.0	-43.3125	23.5
18	12	03	12	36	32	0.261963596683	0.154053149587	0.434876660383	-0.52880859375	-0.53515625	0.67041015625	-35.5	-41.5	25.8125
18	12	03	12	36	32	0.270080624762	0.149719270631	0.434875582243	-0.56982421875	-0.58544921875	0.650390625	-24.5	-40.5	25.375
18	12	03	12	36	32	0.277396694917	0.145869769164	0.433642138039	-0.65478515625	-0.66650390625	0.6806640625	-12.75	-41.3125	21.125
18	12	03	12	36	32	0.28441575779	0.142329945744	0.43181147776	-0.546875	-0.60595703125	0.62939453125	-8.375	-38.0	23.75
18	12	03	12	36	32	0.290893287023	0.139648309003	0.429992280125	-0.64013671875	-0.64111328125	0.62548828125	-4.625	-36.6875	20.4375
18	12	03	12	36	32	0.298216195349	0.135985608522	0.429624191375	-0.57275390625	-0.56982421875	0.61767578125	-18.8125	-37.875	23.0625
18	12	03	12	36	32	0.307072019593	0.131532538704	0.429754341076	-0.50341796875	-0.49658203125	0.62060546875	-28.3125	-40.75	30.0625
18	12	03	12	36	32	0.316767340741	0.126462799617	0.430351930551	-0.583984375	-0.50830078125	0.671875	-35.5625	-46.9375	30.0
18	12	03	12	36	32	0.326299356422	0.119630890121	0.43128156612	-0.546875	-0.5546875	0.75732421875	-42.375	-49.6875	28.0
18	12	03	12	36	32	0.334718963415	0.113465089896	0.432742058828	-0.58154296875	-0.64697265625	0.701171875	-36.5625	-46.25	25.3125
18	12	03	12	36	32	0.343757656775	0.108095669416	0.433542371462	-0.65966796875	-0.6455078125	0.65185546875	-30.6875	-50.375	27.5
18	12	03	12	36	32	0.354551907794	0.102477647303	0.435179050192	-0.6767578125	-0.599609375	0.5654296875	-37.4375	-56.8125	34.8125
18	12	03	12	36	32	0.365959502582	0.0954570817276	0.438589890853	-0.677734375	-0.5751953125	0.5517578125	-52.625	-61.0	35.1875
18	12	03	12	36	32	0.37779566223	0.0881319767787	0.444627043513	-0.658203125	-0.52001953125	0.48583984375	-70.4375	-58.3125	37.5
18	12	03	12	36	32	0.38861023254	0.0802000699792	0.449645293407	-0.705078125	-0.65771484375	0.5341796875	-61.5625	-61.0	32.3125
18	12	03	12	36	32	0.398442943765	0.073975620074	0.451178039263	-0.611328125	-0.654296875	0.458984375	-33.0	-57.5	33.375
18	12	03	12	36	32	0.407459766001	0.0702495791892	0.450000128029	-0.66455078125	-0.64453125	0.46728515625	-11.0	-53.0	31.1875
18	12	03	12	36	32	0.415660192222	0.0657365678449	0.449535582337	-0.56640625	-0.6337890625	0.4814453125	-17.25	-48.6875	29.4375
18	12	03	12	36	32	0.422544288448	0.0612789925758	0.450193076931	-0.57861328125	-0.7509765625	0.4716796875	-16.0625	-42.8125	26.625
18	12	03	12	36	32	0.428835801915	0.0571292784789	0.450503423561	-0.5986328125	-0.76123046875	0.46484375	-12.125	-42.25	23.625
18	12	03	12	36	32	0.435492454968	0.0532234647137	0.450812511898	-0.5830078125	-0.7041015625	0.44921875	-14.125	-41.6875	25.0
18	12	03	12	36	32	0.442682607231	0.0485833938172	0.451715700554	-0.60302734375	-0.7041015625	0.51611328125	-23.5625	-43.4375	26.375
18	12	03	12	36	32	0.450199967386	0.0427250511348	0.454106257776	-0.51806640625	-0.63623046875	0.583984375	-42.375	-39.75	28.375
18	12	03	12	36	32	0.457213164046	0.03643789333	0.45690798906	-0.5712890625	-0.685546875	0.63623046875	-46.5625	-39.375	24.25
18	12	03	12	36	32	0.464056933133	0.0311283751016	0.457587113994	-0.52001953125	-0.68896484375	0.6591796875	-32.375	-37.5625	25.6875
18	12	03	12	36	32	0.470875540812	0.0277703656603	0.456227435848	-0.5205078125	-0.6552734375	0.638671875	-15.8125	-35.75	27.0625
18	12	03	12	36	32	0.477292829999	0.0250853392749	0.454221642052	-0.6005859375	-0.6962890625	0.67236328125	-9.0	-35.875	23.6875
18	12	03	12	36	32	0.483407195926	0.022339271933	0.453011137395	-0.5986328125	-0.69921875	0.62890625	-11.4375	-34.6875	23.125
18	12	03	12	36	32	0.489682831238	0.0195311611612	0.451963276245	-0.52490234375	-0.62255859375	0.5859375	-13.9375	-33.0	25.6875
18	12	03	12	36	32	0.496148975062	0.0166624025332	0.450556247252	-0.51904296875	-0.552734375	0.6171875	-16.8125	-33.75	24.375
18	12	03	12	36	32	0.502687052492	0.0133057039149	0.450318731579	-0.52294921875	-0.53125	0.5712890625	-24.0	-34.5625	24.8125
18	12	03	12	36	32	0.509220062756	0.00927741214658	0.449954489109	-0.6025390625	-0.623046875	0.61376953125	-23.3125	-39.3125	22.1875
18	12	03	12	36	32	0.516171583027	0.00469968214415	0.449460510513	-0.56982421875	-0.6181640625	0.59375	-24.4375	-42.6875	25.0625
18	12	03	12	36	32	0.523440692108	0.000427248699249	0.448366992097	-0.65966796875	-0.67138671875	0.57763671875	-18.1875	-48.3125	24.8125
18	12	03	12	36	32	0.531696152426	-0.00506609811174	0.446549081753	-0.5947265625	-0.60986328125	0.60595703125	-23.5	-54.9375	27.8125
18	12	03	12	36	32	0.540363544409	-0.010010123267	0.444779074676	-0.5830078125	-0.5478515625	0.63037109375	-26.6875	-52.0625	30.9375
18	12	03	12	36	32	0.548031504555	-0.0164183622592	0.443845094234	-0.25	-0.47021484375	0.59765625	-36.6875	-40.3125	35.6875
18	12	03	12	36	32	0.554380893016	-0.0213012145395	0.440306480482	-0.642578125	-0.70751953125	0.66162109375	-7.3125	-53.6875	15.5
18	12	03	12	36	32	0.562511942497	-0.0310065176637	0.439035199911	-0.462890625	-0.59326171875	0.828125	-52.1875	-58.25	24.75
18	12	03	12	36	32	0.569719373853	-0.03845331107	0.438733968208	-0.3984375	-0.669921875	0.58154296875	-34.4375	-48.9375	32.625
18	12	03	12	36	32	0.576583236223	-0.0454699387092	0.43742691373	-0.65087890625	-0.68994140625	0.72509765625	-33.25	-56.1875	18.0
18	12	03	12	36	32	0.585069937165	-0.0518787238254	0.43547611117	-0.611328125	-0.58837890625	0.59423828125	-29.3125	-62.9375	27.875
18	12	03	12	36	32	0.595473247175	-0.0596327759829	0.43372620894	-0.5	-0.49267578125	0.7392578125	-50.0625	-63.6875	41.4375
18	12	03	12	36	32	0.605349957491	-0.0673221418746	0.432131246121	-0.43896484375	-0.4658203125	0.736328125	-51.75	-59.3125	41.5
18	12	03	12	36	32	0.613960783716	-0.075257346289	0.432195676458	-0.55810546875	-0.5634765625	0.80078125	-59.25	-54.75	34.75
18	12	03	12	36	32	0.61982478308	-0.0839861055163	0.43354164788	-0.529296875	-0.76904296875	0.72021484375	-52.5	-47.125	25.9375
18	12	03	12	36	32	0.625493614975	-0.0913704080424	0.436160945805	-0.57763671875	-0.77001953125	0.62646484375	-50.9375	-41.75	29.1875
18	12	03	12	36	32	0.631044654985	-0.0968631267493	0.439698780783	-0.6435546875	-0.78515625	0.5068359375	-42.75	-37.5625	32.875
18	12	03	12	36	32	0.636601828293	-0.100952964909	0.443546067709	-0.64501953125	-0.69384765625	0.388671875	-38.0	-34.4375	35.0625
18	12	03	12	36	32	0.641310389195	-0.105348979894	0.449960996398	-0.6982421875	-0.6708984375	0.3330078125	-51.0	-27.875	34.5
18	12	03	12	36	32	0.64428918072	-0.112121942496	0.458497567788	-0.693359375	-0.7568359375	0.2705078125	-64.625	-24.875	28.0625
18	12	03	12	36	32	0.647405093704	-0.119690901174	0.465946119104	-0.48583984375	-0.63330078125	0.3115234375	-70.875	-21.875	31.4375
18	12	03	12	36	32	0.651251756249	-0.127625812776	0.474186962915	-0.33154296875	-0.53173828125	0.064453125	-72.4375	-24.75	45.375
18	12	03	12	36	33	0.654048347436	-0.134337477856	0.477291720506	-0.5771484375	-0.9638671875	0.3212890625	-34.8125	-33.625	23.1875
18	12	03	12	36	33	0.653451062349	-0.143312450438	0.483649002246	-0.650390625	-1.0546875	0.12548828125	-43.6875	-27.75	5.6875
18	12	03	12	36	33	0.654345339438	-0.147519138646	0.4869291221	-0.666015625	-1.0615234375	0.29150390625	-18.5625	-20.875	13.375
18	12	03	12	36	33	0.65747202451	-0.152466126738	0.489808113321	-0.48974609375	-0.82568359375	0.15087890625	-26.375	-31.25	29.125
18	12	03	12	36	33	0.662612914998	-0.15588737886	0.489513225708	-0.52685546875	-0.80908203125	0.4150390625	-21.625	-35.625	32.3125
18	12	03	12	36	33	0.666828431197	-0.161137488179	0.490920006601	-0.5751953125	-0.7783203125	0.36474609375	-36.6875	-36.8125	26.625
18	12	03	12	36	33	0.671085320461	-0.166504843494	0.490969560508	-0.52392578125	-0.775390625	0.53076171875	-39.0	-34.0	23.8125
18	12	03	12	36	33	0.675980090763	-0.168827172104	0.489086091854	-0.51318359375	-0.8154296875	0.595703125	-17.9375	-29.25	27.4375
18	12	03	12	36	33	0.682075506629	-0.167482343641	0.484990780821	-0.494140625	-0.79052734375	0.626953125	7.0	-27.4375	34.125
18	12	03	12	36	33	0.688996865526	-0.164436353271	0.478476827504	-0.49462890625	-0.7666015625	0.720703125	21.8125	-29.8125	32.25
18	12	03	12	36	33	0.695627124137	-0.160463605278	0.471991274103	-0.50048828125	-0.625	0.6083984375	28.4375	-30.4375	27.375
18	12	03	12	36	33	0.701508945825	-0.159370038941	0.466879137441	-0.49853515625	-0.5546875	0.6240234375	5.6875	-32.3125	21.9375
18	12	03	12	36	33	0.711245105464	-0.164734449468	0.461061145342	-0.54736328125	-0.7177734375	0.5693359375	-14.0625	-38.5	21.0625
18	12	03	12	36	33	0.716080462951	-0.167972505459	0.457834943112	-0.474609375	-0.6748046875	0.55029296875	-14.75	-38.6875	22.375
18	12	03	12	36	33	0.72058966497	-0.171083587236	0.454106988597	-0.404296875	-0.64111328125	0.58544921875	-13.5625	-35.0625	20.1875
18	12	03	12	36	33	0.723838037752	-0.17548143676	0.45228432918	-0.4658203125	-0.58154296875	0.46875	-23.25	-34.4375	12.1875
18	12	03	12	36	33	0.726198905094	-0.180786784072	0.451234535666	-0.6259765625	-0.7392578125	0.51953125	-26.5625	-35.625	4.375
18	12	03	12	36	33	0.727288129543	-0.186643764698	0.452205249394	-0.609375	-0.75634765625	0.3857421875	-29.75	-29.5	3.9375
18	12	03	12	36	33	0.728770276362	-0.191592118719	0.453741895685	-0.6318359375	-0.708984375	0.34814453125	-29.75	-28.3125	8.9375
18	12	03	12	36	33	0.730425427712	-0.198246995004	0.455455380763	-0.67578125	-0.751953125	0.40625	-42.3125	-33.375	9.375
18	12	03	12	36	33	0.732125385974	-0.205812988871	0.456914601034	-0.60546875	-0.78466796875	0.4384765625	-47.625	-33.75	12.9375
18	12	03	12	36	33	0.733540881388	-0.212042022129	0.459241270724	-0.64990234375	-0.73828125	0.42822265625	-46.5	-26.9375	13.25
18	12	03	12	36	33	0.734622406862	-0.217774405756	0.461244726542	-0.66552734375	-0.81494140625	0.44921875	-40.8125	-24.6875	11.3125
18	12	03	12	36	33	0.735181111595	-0.221805575719	0.462959629012	-0.5625	-0.86181640625	0.32177734375	-21.125	-18.0625	12.6875
18	12	03	12	36	33	0.736244293363	-0.221691201583	0.463464012561	-0.56689453125	-0.82275390625	0.333984375	4.5625	-10.625	11.9375
18	12	03	12	36	33	0.737496609393	-0.221743373494	0.464238948195	-0.36962890625	-0.58642578125	0.24072265625	-1.4375	-8.0	17.5625
18	12	03	12	36	33	0.737801957861	-0.223452429494	0.465398736655	-0.45263671875	-0.689453125	0.26123046875	-7.875	-9.25	9.375
18	12	03	12	36	33	0.735916073832	-0.229680035318	0.468576569529	-0.4755859375	-0.76806640625	0.197265625	-31.375	-9.8125	-0.6875
18	12	03	12	36	33	0.734009234769	-0.236023092537	0.472046185075	-0.53857421875	-0.83935546875	0.24755859375	-35.5625	-9.3125	0.0625
18	12	03	12	36	33	0.732800602613	-0.24164231099	0.475349916138	-0.58154296875	-0.8486328125	0.24267578125	-33.5625	-12.25	4.8125
18	12	03	12	36	33	0.732686609768	-0.246161704198	0.477247301048	-0.62548828125	-0.8544921875	0.37109375	-30.5	-14.8125	5.375
18	12	03	12	36	33	0.732490708938	-0.251040270466	0.479314185259	-0.623046875	-0.8798828125	0.40380859375	-35.3125	-13.875	7.25
18	12	03	12	36	33	0.735725945156	-0.253054568493	0.481816874985	-0.50732421875	-0.705078125	0.41845703125	4.0625	-4.375	23.6875
18	12	03	12	36	33	0.737978453641	-0.250977371712	0.481446864802	-0.49755859375	-0.7294921875	0.4111328125	5.625	-6.0	20.0625
18	12	03	12	36	33	0.739702255151	-0.249334409794	0.480052664144	-0.39697265625	-0.75244140625	0.4052734375	11.625	-4.6875	14.375
18	12	03	12	36	33	0.740751492356	-0.245004654772	0.478717366064	-0.435546875	-0.81201171875	0.29150390625	38.125	2.25	8.9375
18	12	03	12	36	33	0.742181869419	-0.239011858606	0.47686405804	-0.513671875	-0.814453125	0.2431640625	52.25	-0.25	6.1875
18	12	03	12	36	33	0.744227236562	-0.234138905885	0.474930872443	-0.58447265625	-0.8095703125	0.3134765625	40.5	-7.3125	8.75
18	12	03	12	36	33	0.74652268139	-0.231995152642	0.472962493508	-0.56982421875	-0.80224609375	0.3408203125	22.6875	-16.125	11.6875
18	12	03	12	36	33	0.749528352134	-0.231816667867	0.470164242385	-0.55859375	-0.83447265625	0.45458984375	8.375	-23.8125	14.625
18	12	03	12	36	33	0.753049301752	-0.232726291748	0.467222597254	-0.54541015625	-0.73046875	0.50048828125	-4.6875	-28.1875	16.4375
18	12	03	12	36	33	0.757046540595	-0.234078326468	0.464433373167	-0.505859375	-0.673828125	0.57373046875	-15.1875	-28.0625	22.5
18	12	03	12	36	33	0.760448323536	-0.235294027388	0.461310573022	-0.51611328125	-0.7255859375	0.6259765625	-11.1875	-24.3125	16.4375
18	12	03	12	36	33	0.763694245427	-0.234626013381	0.458082265979	-0.46630859375	-0.693359375	0.59716796875	1.8125	-17.875	15.5625
18	12	03	12	36	33	0.766319256556	-0.231818441768	0.455274817575	-0.521484375	-0.75439453125	0.54541015625	19.6875	-10.9375	11.75
18	12	03	12	36	33	0.768326549822	-0.227848983992	0.452951328744	-0.5771484375	-0.82421875	0.5185546875	30.625	-6.0625	8.375
18	12	03	12	36	34	0.770110578402	-0.224068790783	0.451799833663	-0.42578125	-0.66845703125	0.40087890625	24.5625	-1.0	15.625
18	12	03	12	36	34	0.770470779994	-0.221625556695	0.453444302034	-0.66552734375	-0.79150390625	0.24951171875	19.75	-3.6875	11.5
18	12	03	12	36	34	0.77051755901	-0.221438347916	0.454351450354	-0.744140625	-0.8486328125	0.39892578125	5.6875	-7.875	1.5
18	12	03	12	36	34	0.770139504331	-0.223082888598	0.458067600254	-0.56787109375	-0.6162109375	0.2138671875	-17.4375	-3.1875	15.375
18	12	03	12	36	34	0.770078815026	-0.226073704593	0.459349541245	-0.70849609375	-0.8720703125	0.498046875	-19.6875	-9.8125	5.375
18	12	03	12	36	34	0.769779368068	-0.230164763478	0.461184023559	-0.46875	-0.68798828125	0.32421875	-26.5625	-8.375	12.0625
18	12	03	12	36	34	0.771139803127	-0.232489434075	0.459424513071	-0.384765625	-0.740234375	0.59716796875	-15.3125	-9.5	12.0625
18	12	03	12	36	34	0.771075663811	-0.238103868006	0.458690225088	-0.24658203125	-0.60791015625	0.4365234375	-31.875	-10.125	5.4375
18	12	03	12	36	34	0.770635605856	-0.241212728841	0.45825535631	-0.6376953125	-0.88232421875	0.48974609375	-10.625	-10.75	-6.1875
18	12	03	12	36	34	0.769987176583	-0.243417269934	0.459550808759	-0.62109375	-0.76123046875	0.3701171875	-11.875	-6.0625	-1.125
18	12	03	12	36	34	0.770724789948	-0.244395506371	0.460286342045	-0.61083984375	-0.75927734375	0.501953125	-13.8125	-6.25	11.375
18	12	03	12	36	34	0.771487108192	-0.248536036753	0.459657390173	-0.49169921875	-0.76220703125	0.5107421875	-27.0625	-14.875	9.5
18	12	03	12	36	34	0.772306209043	-0.250985784524	0.459245389776	-0.54736328125	-0.80419921875	0.5048828125	-16.3125	-12.125	9.5
18	12	03	12	36	34	0.772855329684	-0.251962312505	0.458024513817	-0.66015625	-0.89990234375	0.4921875	2.0	-12.25	-1.875
18	12	03	12	36	34	0.775262017555	-0.252866520133	0.455135322383	-0.3427734375	-0.5888671875	0.611328125	-12.125	-12.375	12.5
18	12	03	12	36	34	0.776837735469	-0.253371056803	0.453821683288	-0.43115234375	-0.6298828125	0.47021484375	-6.125	-10.625	10.8125
18	12	03	12	36	34	0.778598140308	-0.253184782534	0.451191396453	-0.59375	-0.77978515625	0.57080078125	4.375	-14.875	0.6875
18	12	03	12	36	34	0.781079827018	-0.25262869454	0.447639247585	-0.2919921875	-0.5595703125	0.5458984375	3.25	-11.625	9.625
18	12	03	12	36	34	0.782369957446	-0.251410661158	0.445385674792	-0.60400390625	-0.8369140625	0.44091796875	20.0625	-14.0	-1.125
18	12	03	12	36	34	0.783939762488	-0.251099983095	0.443483830134	-0.7255859375	-0.86865234375	0.56103515625	6.625	-17.25	0.625
18	12	03	12	36	34	0.78590980753	-0.251654717028	0.442394709924	-0.6787109375	-0.68798828125	0.6103515625	-13.1875	-16.8125	7.4375
18	12	03	12	36	34	0.788642744177	-0.25512937626	0.440678013541	-0.66455078125	-0.59619140625	0.70068359375	-39.4375	-27.9375	12.4375
18	12	03	12	36	34	0.791460563288	-0.260381797099	0.437692889592	-0.62841796875	-0.63427734375	0.72119140625	-45.125	-36.125	9.625
18	12	03	12	36	34	0.795007394356	-0.262215106806	0.432813622524	-0.5361328125	-0.59814453125	0.6357421875	-13.125	-35.0625	5.4375
18	12	03	12	36	34	0.798411744155	-0.262454743511	0.428167447844	-0.4228515625	-0.44287109375	0.50927734375	-2.6875	-30.0	4.4375
18	12	03	12	36	34	0.801497510234	-0.260573670793	0.424279125248	-0.60693359375	-0.64892578125	0.47802734375	17.625	-27.5625	2.375
18	12	03	12	36	34	0.805026630699	-0.257151959598	0.420000625206	-0.5830078125	-0.64404296875	0.533203125	25.5	-24.5625	5.125
18	12	03	12	36	34	0.808389334849	-0.254590147663	0.416524374887	-0.54443359375	-0.552734375	0.47216796875	16.375	-25.25	9.1875
18	12	03	12	36	34	0.81110852271	-0.255069795801	0.413580506425	-0.7080078125	-0.70068359375	0.55029296875	-1.0	-32.5625	6.0
18	12	03	12	36	34	0.814488005442	-0.256907974738	0.409685513529	-0.552734375	-0.63916015625	0.580078125	-12.0	-36.9375	15.6875
18	12	03	12	36	34	0.817648246305	-0.261420382123	0.405955396101	-0.4443359375	-0.53466796875	0.576171875	-33.8125	-40.0625	19.9375
18	12	03	12	36	34	0.821300991907	-0.267520975589	0.400579548892	-0.43212890625	-0.6181640625	0.67724609375	-41.375	-49.3125	21.75
18	12	03	12	36	34	0.825258392086	-0.273621283317	0.394898439228	-0.33935546875	-0.5107421875	0.5458984375	-39.6875	-54.0625	26.5625
18	12	03	12	36	34	0.827701060888	-0.281861477707	0.3893448173	-0.5673828125	-0.7373046875	0.69775390625	-48.5	-55.1875	8.5
18	12	03	12	36	34	0.830777819599	-0.289255461544	0.383313842266	-0.4384765625	-0.697265625	0.69140625	-45.75	-54.4375	19.1875
18	12	03	12	36	34	0.831516307262	-0.303418304588	0.378555688001	-0.35009765625	-0.69384765625	0.6318359375	-88.25	-57.4375	18.875
18	12	03	12	36	34	0.829108065716	-0.323977150532	0.376284689719	-0.5400390625	-0.97705078125	1.08447265625	-133.5	-57.375	13.5
18	12	03	12	36	34	0.829046682627	-0.337282777604	0.375307962267	-0.4365234375	-0.6220703125	0.845703125	-102.0	-50.6875	44.625
18	12	03	12	36	34	0.835283641525	-0.339484663074	0.370185990928	-0.73974609375	-0.7939453125	1.02001953125	-53.5625	-66.75	63.8125
18	12	03	12	36	34	0.846871484603	-0.329104940179	0.361270797648	-0.7939453125	-0.4462890625	0.99169921875	20.9375	-77.75	60.875
18	12	03	12	36	34	0.858169928417	-0.319463826837	0.351568903818	-0.60986328125	0.0693359375	0.92529296875	1.8125	-80.0	56.0625
18	12	03	12	36	34	0.863231507157	-0.323246416029	0.34473107208	-0.60693359375	-0.13330078125	0.763671875	-67.3125	-77.875	44.8125
18	12	03	12	36	34	0.864388330779	-0.332888995627	0.340579500477	-0.69677734375	-0.4814453125	0.49658203125	-78.3125	-72.875	37.4375
18	12	03	12	36	34	0.864028933754	-0.341924984945	0.338629028289	-0.84423828125	-0.75927734375	0.33447265625	-57.1875	-63.375	29.9375
18	12	03	12	36	34	0.862700986667	-0.347424226412	0.340954274198	-0.8125	-0.58349609375	0.03369140625	-32.8125	-40.875	27.1875
18	12	03	12	36	34	0.859235483915	-0.354998477975	0.345476510546	-0.869140625	-0.73583984375	-0.0947265625	-34.625	-29.5	20.875
18	12	03	12	36	34	0.85490060701	-0.362139461759	0.351274667524	-0.80615234375	-0.75634765625	-0.1953125	-26.375	-17.25	16.375
18	12	03	12	36	34	0.850736024344	-0.369274856312	0.356090828384	-0.71435546875	-0.7783203125	-0.1416015625	-26.8125	-15.1875	17.875
18	12	03	12	36	34	0.846378025749	-0.377259867106	0.359864775353	-0.6025390625	-0.77490234375	-0.015625	-36.875	-9.8125	14.875
18	12	03	12	36	34	0.841318759448	-0.386723422799	0.362492172981	-0.5244140625	-1.001953125	0.0205078125	-34.0	-3.6875	6.6875
18	12	03	12	36	34	0.836997200299	-0.392466418575	0.366037498009	-0.45166015625	-0.97314453125	-0.12353515625	-2.25	6.25	1.75
18	12	03	12	36	35	0.835013612778	-0.392207987407	0.370174516592	-0.646484375	-1.08349609375	-0.05126953125	33.375	8.125	4.9375
18	12	03	12	36	35	0.835707380026	-0.385138297397	0.374701110574	-0.5185546875	-0.95947265625	-0.03369140625	72.25	17.6875	14.375
18	12	03	12	36	35	0.840425862494	-0.368727767835	0.379043111779	-0.59326171875	-0.84619140625	0.078125	102.4375	28.5	24.0625
18	12	03	12	36	35	0.841661407514	-0.359456380365	0.384665326721	-0.70849609375	-1.009765625	0.193359375	69.375	19.75	30.0
18	12	03	12	36	35	0.841518481101	-0.354625544005	0.388806319331	-0.61962890625	-1.1123046875	0.20751953125	49.5	16.25	23.5625
18	12	03	12	36	35	0.842077460314	-0.347793372635	0.39375483448	-0.6396484375	-0.93017578125	0.220703125	49.25	16.375	32.9375
18	12	03	12	36	35	0.843219502957	-0.344429073846	0.395638712861	-0.6689453125	-0.81689453125	0.3623046875	15.9375	-6.375	36.0
18	12	03	12	36	35	0.847272025834	-0.338579203754	0.393391557273	-0.43896484375	-0.7802734375	0.6552734375	21.5625	-12.5625	46.0625
18	12	03	12	36	35	0.851216258844	-0.333015625143	0.390939347332	-0.22314453125	-0.43359375	0.85595703125	0.5	1.75	41.0625
18	12	03	12	36	35	0.853255389789	-0.330644856319	0.389119615845	-0.37646484375	-0.5068359375	0.93701171875	-14.0625	10.25	18.25
18	12	03	12	36	35	0.855248694657	-0.329049793955	0.386729640975	-0.49658203125	-0.568359375	0.8818359375	-12.6875	0.125	12.9375
18	12	03	12	36	35	0.860115935428	-0.319155991084	0.383670789817	-0.5458984375	-0.6318359375	0.919921875	45.0625	3.25	11.6875
18	12	03	12	36	35	0.865090996852	-0.306654707415	0.381121017734	-0.49609375	-0.59521484375	0.708984375	75.625	5.25	1.9375
18	12	03	12	36	35	0.868918573766	-0.29688254726	0.378671735856	-0.49755859375	-0.5126953125	0.73095703125	55.6875	5.75	-4.9375
18	12	03	12	36	35	0.86953716259	-0.295542534133	0.378187018069	-0.55615234375	-0.4580078125	0.6240234375	-0.25	2.6875	-3.875
18	12	03	12	36	35	0.870184370542	-0.299379556534	0.374331257946	-0.533203125	-0.5986328125	0.76513671875	-30.4375	-15.8125	-1.5
18	12	03	12	36	35	0.871100131514	-0.304628696496	0.369082293671	-0.392578125	-0.45947265625	0.68310546875	-41.1875	-25.3125	0.9375
18	12	03	12	36	35	0.8725158844	-0.307196393577	0.364082354001	-0.54248046875	-0.5927734375	0.658203125	-16.5625	-27.25	-4.375
18	12	03	12	36	35	0.874030530763	-0.309389717908	0.359316880908	-0.5283203125	-0.541015625	0.6689453125	-19.0	-26.875	-1.0625
18	12	03	12	36	35	0.875712259177	-0.311476940028	0.354569771629	-0.5869140625	-0.587890625	0.74267578125	-22.0	-29.375	6.25
18	12	03	12	36	35	0.876742817147	-0.315624972673	0.349195604073	-0.71484375	-0.83935546875	0.78857421875	-24.1875	-34.5625	-0.8125
18	12	03	12	36	35	0.877106802191	-0.320079893576	0.345288321503	-0.6748046875	-0.75244140625	0.64697265625	-26.375	-31.75	3.1875
18	12	03	12	36	35	0.877858384806	-0.322528417836	0.342427029534	-0.64990234375	-0.61474609375	0.64501953125	-23.8125	-27.1875	10.1875
18	12	03	12	36	35	0.877445837039	-0.326112486596	0.34192067189	-0.61669921875	-0.44775390625	0.48291015625	-36.6875	-22.625	18.0625
18	12	03	12	36	35	0.877564769526	-0.328552730168	0.340942885142	-0.68408203125	-0.47021484375	0.54052734375	-31.3125	-25.375	17.625
18	12	03	12	36	35	0.877659022335	-0.329907991913	0.340711639382	-0.64990234375	-0.43310546875	0.48779296875	-23.1875	-20.0625	16.625
18	12	03	12	36	35	0.878463449932	-0.328935487193	0.340349652364	-0.63525390625	-0.51318359375	0.49169921875	-2.875	-15.8125	13.5
18	12	03	12	36	35	0.879667048007	-0.327952473559	0.338633970465	-0.6318359375	-0.62548828125	0.49462890625	6.125	-20.4375	7.75
18	12	03	12	36	35	0.880569671256	-0.327337294444	0.336981018577	-0.66552734375	-0.775390625	0.50146484375	12.8125	-17.75	2.375
18	12	03	12	36	35	0.880502504275	-0.328921946176	0.336185206817	-0.6689453125	-0.666015625	0.44677734375	-7.25	-19.25	8.25
18	12	03	12	36	35	0.880148801745	-0.331734309118	0.335091326046	-0.6181640625	-0.615234375	0.48095703125	-20.0	-19.375	11.375
18	12	03	12	36	35	0.878777753434	-0.3371557376	0.333920897974	-0.60400390625	-0.51220703125	0.556640625	-42.125	-14.625	1.125
18	12	03	12	36	35	0.876296319105	-0.344427117692	0.333684751449	-0.6552734375	-0.5234375	0.57373046875	-56.0	-9.9375	-1.0625
18	12	03	12	36	35	0.874925807628	-0.350177853939	0.331561112532	-0.6259765625	-0.65771484375	0.57421875	-35.875	-14.875	-8.375
18	12	03	12	36	35	0.875274437492	-0.351696743991	0.328990879922	-0.544921875	-0.6796875	0.50537109375	-3.1875	-14.5	-7.9375
18	12	03	12	36	35	0.875383357744	-0.352545968089	0.327765209251	-0.5830078125	-0.60107421875	0.427734375	0.0	-12.1875	-8.625
18	12	03	12	36	35	0.874730065312	-0.355788259766	0.326246053945	-0.5791015625	-0.58251953125	0.494140625	-21.6875	-13.9375	-4.5
18	12	03	12	36	35	0.872901668598	-0.362564569714	0.32417178952	-0.54736328125	-0.6640625	0.47412109375	-42.0625	-18.9375	2.5
18	12	03	12	36	35	0.871348514933	-0.369328233669	0.321170908208	-0.61083984375	-0.77783203125	0.49560546875	-38.5	-26.125	2.125
18	12	03	12	36	35	0.869948440561	-0.375250334145	0.318669810438	-0.5771484375	-0.64111328125	0.4189453125	-39.75	-28.8125	9.6875
18	12	03	12	36	35	0.867593158838	-0.382402641067	0.317153092256	-0.681640625	-0.724609375	0.3955078125	-46.5	-29.4375	14.125
18	12	03	12	36	35	0.864958721724	-0.390455221429	0.31489111886	-0.67919921875	-0.8994140625	0.4765625	-48.25	-26.875	12.0
18	12	03	12	36	35	0.863305555744	-0.396068279923	0.312630872209	-0.66455078125	-0.88623046875	0.47314453125	-33.875	-26.1875	13.0
18	12	03	12	36	35	0.862818255613	-0.399853027202	0.309274200707	-0.55078125	-0.73291015625	0.52978515625	-31.625	-29.5625	17.75
18	12	03	12	36	35	0.862443276847	-0.403511146726	0.305547844579	-0.41845703125	-0.58203125	0.5849609375	-39.375	-25.8125	19.1875
18	12	03	12	36	35	0.862207929527	-0.406689185505	0.301827708588	-0.4052734375	-0.47900390625	0.5380859375	-38.0	-27.5625	17.25
18	12	03	12	36	35	0.862321670012	-0.408638418795	0.298650901145	-0.6748046875	-0.7158203125	0.533203125	-19.6875	-30.4375	6.75
18	12	03	12	36	35	0.862810446245	-0.410225594879	0.294805776412	-0.57177734375	-0.6650390625	0.4130859375	-11.25	-34.0625	5.0625
18	12	03	12	36	35	0.862829628516	-0.412493111878	0.2910890279	-0.66748046875	-0.67724609375	0.50634765625	-23.8125	-37.125	10.5625
18	12	03	12	36	36	0.859417785389	-0.422872614856	0.28517044697	-0.55859375	-0.55029296875	0.50732421875	-83.875	-46.75	11.5625
18	12	03	12	36	36	0.852907076572	-0.44012544219	0.276611912911	-0.50146484375	-0.6689453125	0.671875	-126.375	-56.875	14.875
18	12	03	12	36	36	0.8456485007	-0.458133355919	0.267152904191	-0.45849609375	-0.77099609375	0.61376953125	-130.125	-57.875	9.0625
18	12	03	12	36	36	0.839359611847	-0.472841689426	0.25866826898	-0.44189453125	-0.7568359375	0.6298828125	-109.4375	-51.6875	8.25
18	12	03	12	36	36	0.836324689772	-0.480908059459	0.250982858294	-0.5390625	-0.77685546875	0.513671875	-68.25	-50.6875	8.6875
18	12	03	12	36	36	0.835637714384	-0.483889840014	0.244874626405	-0.6220703125	-0.76953125	0.4921875	-34.3125	-49.1875	9.625
18	12	03	12	36	36	0.835278245708	-0.484992396083	0.241031333014	-0.68115234375	-0.71630859375	0.40771484375	-20.375	-44.5	13.1875
18	12	03	12	36	36	0.834691039361	-0.485799340568	0.238169245747	-0.68994140625	-0.72412109375	0.36865234375	-16.4375	-41.6875	17.3125
18	12	03	12	36	36	0.832878238309	-0.488520989259	0.235349442102	-0.69677734375	-0.76806640625	0.3291015625	-25.9375	-40.375	17.6875
18	12	03	12	36	36	0.831686197435	-0.490490993878	0.231878457658	-0.61474609375	-0.8291015625	0.37451171875	-20.6875	-38.875	19.75
18	12	03	12	36	36	0.831077630765	-0.490919314354	0.229559560025	-0.54052734375	-0.76025390625	0.30908203125	-8.875	-34.0	24.0625
18	12	03	12	36	36	0.831361253863	-0.489868983445	0.228271866195	-0.60595703125	-0.78369140625	0.32958984375	4.0625	-25.875	14.5
18	12	03	12	36	36	0.830084677623	-0.491642064578	0.226564288481	-0.470703125	-0.67822265625	0.205078125	-10.1875	-23.8125	13.9375
18	12	03	12	36	36	0.82940829708	-0.492798777734	0.224548761863	-0.51220703125	-0.837890625	0.19384765625	1.0	-24.9375	12.0
18	12	03	12	36	36	0.829126728373	-0.493606290662	0.221564342167	-0.50244140625	-0.79736328125	0.2744140625	-3.125	-28.3125	9.375
18	12	03	12	36	36	0.828068042951	-0.494814448604	0.218812112772	-0.50048828125	-0.685546875	0.3095703125	-15.0625	-31.875	18.6875
18	12	03	12	36	36	0.826996856953	-0.496539924076	0.214424677723	-0.66552734375	-0.82470703125	0.49072265625	-25.25	-38.5	11.625
18	12	03	12	36	36	0.825593330107	-0.499225776057	0.208137901498	-0.48876953125	-0.736328125	0.49169921875	-35.875	-43.3125	14.75
18	12	03	12	36	36	0.827017708417	-0.496698901188	0.203733218501	-0.6318359375	-0.81787109375	0.62353515625	-4.0625	-38.875	12.6875
18	12	03	12	36	36	0.828150491039	-0.49385065028	0.201361178504	-0.56787109375	-0.63427734375	0.47705078125	1.8125	-31.5625	14.5625
18	12	03	12	36	36	0.830743560515	-0.488399821559	0.199949739494	-0.6533203125	-0.771484375	0.53369140625	22.8125	-29.75	15.25
18	12	03	12	36	36	0.833683332932	-0.483034621629	0.198121099546	-0.51318359375	-0.7939453125	0.404296875	32.875	-27.75	13.75
18	12	03	12	36	36	0.836723392015	-0.476863364346	0.197630049117	-0.595703125	-0.71630859375	0.4189453125	36.375	-24.8125	11.1875
18	12	03	12	36	36	0.837139547532	-0.474389249976	0.197580803161	-0.68359375	-0.69189453125	0.3408203125	13.625	-26.0625	14.0625
18	12	03	12	36	36	0.836797071863	-0.473757758702	0.195435756682	-0.62109375	-0.822265625	0.42724609375	-0.375	-30.5625	18.875
18	12	03	12	36	36	0.83595441013	-0.474496903063	0.191654267509	-0.51611328125	-0.83740234375	0.38525390625	-7.8125	-34.8125	20.375
18	12	03	12	36	36	0.835636274609	-0.473757122454	0.188172276285	-0.54931640625	-0.74658203125	0.47998046875	-7.25	-35.75	20.875
18	12	03	12	36	36	0.835117642358	-0.473103116936	0.184028628249	-0.47265625	-0.6455078125	0.5576171875	-16.6875	-35.9375	24.375
18	12	03	12	36	36	0.834698913307	-0.47188718821	0.18006301969	-0.53662109375	-0.626953125	0.6513671875	-19.1875	-36.0625	23.0625
18	12	03	12	36	36	0.83357076436	-0.472419837164	0.174746510827	-0.50732421875	-0.59765625	0.705078125	-34.1875	-35.9375	17.3125
18	12	03	12	36	36	0.833926019305	-0.470704637406	0.169495173506	-0.54638671875	-0.70361328125	0.68603515625	-13.5	-39.375	14.0
18	12	03	12	36	36	0.835908338811	-0.466204300244	0.165411580736	-0.50146484375	-0.69140625	0.63427734375	10.1875	-36.375	13.1875
18	12	03	12	36	36	0.83839694334	-0.459543577927	0.164004993212	-0.56640625	-0.67724609375	0.49169921875	32.75	-35.25	20.0
18	12	03	12	36	36	0.840992259135	-0.45217525444	0.16248522237	-0.62353515625	-0.630859375	0.5732421875	31.25	-38.875	19.4375
18	12	03	12	36	36	0.842799877111	-0.44599787819	0.160832682227	-0.60693359375	-0.62841796875	0.58544921875	23.0	-37.0625	21.5625
18	12	03	12	36	36	0.843194377771	-0.44176915717	0.159971948182	-0.63232421875	-0.5888671875	0.5634765625	11.3125	-32.4375	23.625
18	12	03	12	36	36	0.842407567059	-0.439758478529	0.159362857382	-0.70703125	-0.65869140625	0.53271484375	2.5625	-30.125	22.1875
18	12	03	12	36	36	0.841471878895	-0.439230497645	0.15808879779	-0.56982421875	-0.71875	0.4794921875	0.625	-23.125	19.875
18	12	03	12	36	36	0.840288277191	-0.439340090014	0.157534978095	-0.55322265625	-0.7431640625	0.47021484375	0.0	-16.0	19.75
18	12	03	12	36	36	0.838948128089	-0.439646661814	0.157474439467	-0.59228515625	-0.76123046875	0.44921875	1.625	-15.0625	19.4375
18	12	03	12	36	36	0.837444436119	-0.44020767298	0.157356542005	-0.509765625	-0.6923828125	0.4189453125	-1.75	-12.6875	20.875
18	12	03	12	36	36	0.835478847779	-0.442398501512	0.156255541373	-0.48291015625	-0.68603515625	0.39892578125	-11.0625	-12.1875	15.625
18	12	03	12	36	36	0.832737073261	-0.44612440581	0.154669482053	-0.58984375	-0.740234375	0.4404296875	-21.625	-13.75	11.25
18	12	03	12	36	36	0.829771145541	-0.449767088745	0.152953769086	-0.55126953125	-0.7431640625	0.40380859375	-21.125	-15.8125	17.0
18	12	03	12	36	36	0.827391742829	-0.451354524802	0.151733245255	-0.5517578125	-0.61962890625	0.4228515625	-15.8125	-19.3125	19.8125
18	12	03	12	36	36	0.825317690267	-0.45263688737	0.150146540309	-0.54443359375	-0.6357421875	0.48583984375	-16.1875	-18.5625	18.3125
18	12	03	12	36	36	0.82273422715	-0.454978924934	0.147529388458	-0.5400390625	-0.6328125	0.53662109375	-27.3125	-19.25	16.5
18	12	03	12	36	36	0.82016230276	-0.456988551073	0.145513651096	-0.61474609375	-0.6728515625	0.61376953125	-26.5625	-17.1875	16.625
18	12	03	12	36	36	0.818501444968	-0.457408637479	0.14459581828	-0.560546875	-0.677734375	0.6015625	-13.625	-11.75	18.6875
18	12	03	12	36	36	0.816730400914	-0.457713270791	0.144107351959	-0.57763671875	-0.6708984375	0.58544921875	-12.1875	-11.875	20.4375
18	12	03	12	36	36	0.815066321636	-0.459047012507	0.142334481208	-0.5205078125	-0.755859375	0.64599609375	-17.6875	-8.25	15.875
18	12	03	12	36	37	0.813371651516	-0.460397896397	0.141238331203	-0.47412109375	-0.66943359375	0.55908203125	-15.6875	-5.8125	15.3125
18	12	03	12	36	37	0.810973329563	-0.462462927531	0.14093003823	-0.57275390625	-0.60400390625	0.53466796875	-21.3125	-5.625	13.0625
18	12	03	12	36	37	0.809169127734	-0.464126276479	0.140507455084	-0.60205078125	-0.73486328125	0.51416015625	-11.625	-6.1875	10.9375
18	12	03	12	36	37	0.808555855674	-0.463819426834	0.139408286734	-0.53369140625	-0.70361328125	0.58984375	-5.375	-9.3125	11.4375
18	12	03	12	36	37	0.807287118547	-0.464193145059	0.137701477351	-0.5615234375	-0.6533203125	0.6220703125	-15.375	-12.4375	11.4375
18	12	03	12	36	37	0.805670585975	-0.465579941653	0.135132930102	-0.59228515625	-0.73974609375	0.58740234375	-17.4375	-15.75	9.375
18	12	03	12	36	37	0.804164795257	-0.466324025485	0.133000006745	-0.5625	-0.68212890625	0.54833984375	-14.375	-16.5625	11.6875
18	12	03	12	36	37	0.803162859789	-0.466126207174	0.131042682572	-0.51806640625	-0.6220703125	0.53125	-9.4375	-17.125	11.75
18	12	03	12	36	37	0.80210222401	-0.465843099737	0.128729441476	-0.5302734375	-0.61376953125	0.583984375	-13.0625	-17.9375	11.4375
18	12	03	12	36	37	0.800308779178	-0.467294387842	0.126284233078	-0.5859375	-0.65966796875	0.5517578125	-19.375	-16.5	7.8125
18	12	03	12	36	37	0.798301431406	-0.468763284135	0.123538657173	-0.54931640625	-0.62548828125	0.55078125	-22.5	-17.625	9.5
18	12	03	12	36	37	0.796212769758	-0.46991507201	0.121095142599	-0.56787109375	-0.611328125	0.5673828125	-22.375	-17.875	11.6875
18	12	03	12	36	37	0.794330275544	-0.470653200762	0.118838254686	-0.5146484375	-0.587890625	0.54345703125	-19.1875	-16.625	13.125
18	12	03	12	36	37	0.792914152754	-0.470829018116	0.117432594096	-0.5537109375	-0.6123046875	0.5107421875	-10.9375	-15.3125	11.4375
18	12	03	12	36	37	0.791214950757	-0.471201066099	0.11718990245	-0.64306640625	-0.6259765625	0.45263671875	-6.8125	-14.6875	11.0625
18	12	03	12	36	37	0.788436233661	-0.473415764363	0.115851356467	-0.68017578125	-0.70556640625	0.42578125	-16.4375	-18.3125	11.8125
18	12	03	12	36	37	0.784309236143	-0.477665687319	0.112305758327	-0.62255859375	-0.7392578125	0.4384765625	-34.25	-21.6875	14.8125
18	12	03	12	36	37	0.779681034738	-0.48231090782	0.106875018931	-0.669921875	-0.80859375	0.5859375	-47.1875	-27.5625	14.6875
18	12	03	12	36	37	0.774629400682	-0.487447040725	0.101566726242	-0.71484375	-0.828125	0.48974609375	-45.5625	-30.4375	13.5
