18	12	03	12	34	21	0.873875131735	0.254770887746	0.379409640208	-0.8271484375	0.19091796875	0.5703125	24.625	-6.0625	-31.0625
18	12	03	12	34	21	0.871850937448	0.256965307103	0.379344271649	-0.7880859375	0.193359375	0.5224609375	33.25	-9.0625	-26.25
18	12	03	12	34	21	0.868800195048	0.261482368666	0.379466826796	-0.86181640625	0.16259765625	0.4912109375	48.875	-9.1875	-23.6875
18	12	03	12	34	21	0.865738927178	0.268193517063	0.377997826848	-0.81201171875	0.27294921875	0.4736328125	56.3125	-12.9375	-21.125
18	12	03	12	34	21	0.862774884506	0.27503810609	0.376117356797	-0.7998046875	0.30712890625	0.4931640625	55.3125	-12.3125	-19.8125
18	12	03	12	34	21	0.859976154803	0.280412410758	0.374595334092	-0.8134765625	0.28466796875	0.48681640625	48.5625	-13.375	-22.5625
18	12	03	12	34	21	0.857865354301	0.28345262934	0.373542224711	-0.85693359375	0.15283203125	0.50830078125	39.375	-14.1875	-14.75
18	12	03	12	34	21	0.855177126647	0.288395683635	0.372259317352	-0.8251953125	0.14697265625	0.5166015625	50.1875	-9.75	-10.5
18	12	03	12	34	22	0.852088538526	0.297071269127	0.369706323628	-0.728515625	0.35888671875	0.529296875	59.75	-2.8125	-6.4375
18	12	03	12	34	22	0.847987565328	0.306955262797	0.367198819047	-0.8056640625	0.40625	0.50634765625	68.9375	-5.4375	-12.5625
18	12	03	12	34	22	0.84462810846	0.314828138708	0.363840739596	-0.79931640625	0.33203125	0.5107421875	63.75	-14.125	-13.8125
18	12	03	12	34	22	0.841211502986	0.322336231844	0.359996041548	-0.79833984375	0.3154296875	0.54248046875	66.125	-16.625	-16.1875
18	12	03	12	34	22	0.837909514705	0.329475201076	0.35590401954	-0.85107421875	0.34912109375	0.57470703125	64.25	-17.9375	-16.1875
18	12	03	12	34	22	0.835247276321	0.335954473025	0.350969880068	-0.78662109375	0.3447265625	0.607421875	61.25	-19.4375	-12.875
18	12	03	12	34	22	0.831310172044	0.344242978732	0.346257166373	-0.75390625	0.3232421875	0.5302734375	73.0	-17.5	-15.4375
18	12	03	12	34	22	0.827194678846	0.353047079578	0.340778327331	-0.84912109375	0.38525390625	0.5107421875	74.875	-24.6875	-14.125
18	12	03	12	34	22	0.824207785594	0.359579950006	0.334248821292	-0.83203125	0.38134765625	0.55908203125	65.75	-32.625	-15.375
18	12	03	12	34	22	0.821809955289	0.366103395115	0.326184818855	-0.671875	0.49560546875	0.5771484375	62.8125	-33.25	-18.875
18	12	03	12	34	22	0.820220312069	0.369581335733	0.319713796295	-0.76611328125	0.373046875	0.5654296875	46.4375	-35.375	-13.75
18	12	03	12	34	22	0.818659314111	0.372400870518	0.312643379576	-0.845703125	0.408203125	0.61962890625	46.625	-41.875	-17.0
18	12	03	12	34	22	0.817458553399	0.374945709963	0.305181271336	-0.69482421875	0.38427734375	0.51953125	42.0625	-43.875	-16.375
18	12	03	12	34	22	0.814441154616	0.380271932344	0.299761711034	-0.90283203125	0.38916015625	0.44140625	51.375	-35.8125	-8.5
18	12	03	12	34	22	0.810596615018	0.386591292789	0.294307422454	-0.818359375	0.48095703125	0.40380859375	54.5625	-32.6875	-17.5625
18	12	03	12	34	22	0.806606303337	0.393628759003	0.288400664644	-0.7421875	0.55419921875	0.38232421875	55.375	-29.875	-19.1875
18	12	03	12	34	22	0.803375879309	0.397171162944	0.28461797031	-0.80078125	0.40673828125	0.4306640625	40.4375	-28.1875	-18.75
18	12	03	12	34	22	0.799645713075	0.401440336989	0.28009878462	-0.751953125	0.431640625	0.46923828125	48.0	-26.875	-23.0625
18	12	03	12	34	22	0.796871839392	0.403776883767	0.277119735798	-0.82373046875	0.392578125	0.46630859375	33.0625	-24.75	-16.5625
18	12	03	12	34	22	0.794768639557	0.403762733329	0.274851638425	-0.82568359375	0.3037109375	0.4951171875	23.8125	-26.9375	-18.375
18	12	03	12	34	22	0.792049939061	0.405058831351	0.271382092252	-0.8056640625	0.29443359375	0.501953125	35.125	-29.4375	-17.875
18	12	03	12	34	22	0.788146687857	0.408080907226	0.267883203981	-0.83544921875	0.298828125	0.4599609375	45.125	-28.3125	-19.0
18	12	03	12	34	22	0.783794062202	0.413290989422	0.26338068518	-0.73681640625	0.44482421875	0.38134765625	49.0625	-25.0625	-20.0
18	12	03	12	34	22	0.780941144048	0.414915036908	0.260679923895	-0.806640625	0.42919921875	0.43212890625	26.5	-25.6875	-20.75
18	12	03	12	34	22	0.778899278284	0.414871749432	0.25739505184	-0.68017578125	0.3994140625	0.423828125	19.8125	-29.9375	-24.4375
18	12	03	12	34	22	0.776759592244	0.414930984447	0.253670663631	-0.671875	0.341796875	0.4580078125	25.0	-30.625	-21.75
18	12	03	12	34	22	0.77420336988	0.415179069846	0.247874478483	-0.5419921875	0.30126953125	0.4755859375	35.8125	-37.125	-26.9375
18	12	03	12	34	22	0.770517563316	0.416326069342	0.242556780467	-0.9013671875	0.16162109375	0.54443359375	49.625	-43.25	-14.0625
18	12	03	12	34	22	0.764968105712	0.423958227262	0.233036641475	-0.767578125	0.49365234375	0.45263671875	76.4375	-40.75	-15.625
18	12	03	12	34	22	0.761177828459	0.429142916518	0.227846751154	-0.95556640625	0.5126953125	0.3720703125	43.1875	-32.6875	-4.25
18	12	03	12	34	22	0.759808029986	0.431542639139	0.222119330103	-0.90478515625	0.685546875	0.4990234375	22.625	-33.3125	-3.9375
18	12	03	12	34	22	0.759660792151	0.430612798379	0.215886246331	-0.5693359375	0.6953125	0.52294921875	8.125	-35.5625	-21.0
18	12	03	12	34	22	0.759314052227	0.426473254253	0.21283987943	-0.7666015625	0.3369140625	0.57568359375	3.6875	-39.25	-16.875
18	12	03	12	34	22	0.755353824639	0.427515005073	0.206921168931	-0.69677734375	0.36474609375	0.5107421875	42.0625	-41.0	-26.9375
18	12	03	12	34	22	0.750755498479	0.430433152462	0.201727392071	-0.7978515625	0.31494140625	0.46923828125	48.75	-34.8125	-16.375
18	12	03	12	34	22	0.746234868715	0.434947625917	0.194585045106	-0.69091796875	0.4912109375	0.4638671875	52.875	-32.75	-17.0625
18	12	03	12	34	22	0.742505309812	0.437263299589	0.189822565846	-0.65234375	0.39794921875	0.38623046875	35.625	-30.625	-17.8125
18	12	03	12	34	22	0.739652174712	0.439897113645	0.186469499401	-0.94677734375	0.41796875	0.3955078125	28.0625	-29.375	0.25
18	12	03	12	34	22	0.737152135836	0.43916615197	0.184028623793	-0.7353515625	0.2890625	0.4287109375	18.75	-31.1875	-14.5
18	12	03	12	34	22	0.733059838815	0.443315038244	0.179022856557	-0.7099609375	0.4404296875	0.41748046875	43.25	-22.8125	-10.1875
18	12	03	12	34	22	0.729793837144	0.444333790617	0.178465934583	-0.9013671875	0.4140625	0.49755859375	19.125	-16.875	-14.5625
18	12	03	12	34	22	0.727414270169	0.444273239852	0.175048173086	-0.826171875	0.56640625	0.62451171875	19.5	-25.75	-18.125
18	12	03	12	34	22	0.725985797352	0.441121519881	0.172615422474	-0.68701171875	0.4248046875	0.6640625	8.5	-26.3125	-22.9375
18	12	03	12	34	22	0.723178128162	0.440022883687	0.168892123618	-0.689453125	0.4482421875	0.67333984375	24.0625	-26.4375	-25.125
18	12	03	12	34	22	0.719983436732	0.439155716114	0.165530271314	-0.7109375	0.4306640625	0.64111328125	24.3125	-26.3125	-25.625
18	12	03	12	34	22	0.717069948991	0.438982556447	0.161688652952	-0.64892578125	0.4853515625	0.5615234375	22.0625	-26.0	-24.125
18	12	03	12	34	22	0.714227971947	0.439144612729	0.158995374032	-0.68701171875	0.48046875	0.50048828125	17.0625	-22.6875	-21.375
18	12	03	12	34	22	0.710989013358	0.439203102423	0.156858250865	-0.66162109375	0.46142578125	0.45751953125	15.75	-22.375	-25.5625
18	12	03	12	34	22	0.707525543394	0.438846502502	0.156190292059	-0.79541015625	0.38037109375	0.4365234375	12.6875	-24.0	-23.0625
18	12	03	12	34	23	0.703448919525	0.438854466932	0.15533861173	-0.8115234375	0.35986328125	0.453125	17.8125	-24.625	-24.8125
18	12	03	12	34	23	0.699666487085	0.438367330563	0.154057246219	-0.71630859375	0.322265625	0.50146484375	19.25	-21.5625	-25.0
18	12	03	12	34	23	0.695381703047	0.438481712866	0.153932472139	-0.767578125	0.32421875	0.52099609375	19.4375	-15.375	-26.75
18	12	03	12	34	23	0.69137227552	0.438676838012	0.15479121486	-0.7783203125	0.37841796875	0.4892578125	12.0625	-11.25	-28.0625
18	12	03	12	34	23	0.689403541669	0.436530688802	0.156985029586	-0.7138671875	0.4150390625	0.52734375	-8.125	-7.9375	-26.5625
18	12	03	12	34	23	0.687955660827	0.433001282753	0.159369375425	-0.708984375	0.30908203125	0.55029296875	-10.875	-11.25	-23.4375
18	12	03	12	34	23	0.684600722112	0.431903950576	0.159980250772	-0.7431640625	0.2353515625	0.52587890625	11.875	-13.875	-22.625
18	12	03	12	34	23	0.679634792106	0.433843206313	0.15930370969	-0.77880859375	0.2861328125	0.47119140625	28.3125	-11.4375	-23.0
18	12	03	12	34	23	0.674694655384	0.436042936319	0.159609781421	-0.841796875	0.29931640625	0.48291015625	25.4375	-6.6875	-22.0625
18	12	03	12	34	23	0.671409628844	0.436477295987	0.159917566143	-0.8466796875	0.38427734375	0.5283203125	11.5	-9.9375	-19.75
18	12	03	12	34	23	0.669032010511	0.435929807415	0.160101356042	-0.80419921875	0.373046875	0.59326171875	7.6875	-8.9375	-17.1875
18	12	03	12	34	23	0.665911594684	0.437145631634	0.157597042848	-0.71923828125	0.49072265625	0.5673828125	20.125	-10.9375	-20.5625
18	12	03	12	34	23	0.661523251065	0.439774407079	0.154424600959	-0.732421875	0.50537109375	0.5126953125	29.25	-12.1875	-24.375
18	12	03	12	34	23	0.656431180944	0.441893235708	0.152465373315	-0.82421875	0.4326171875	0.48779296875	28.1875	-15.125	-26.8125
18	12	03	12	34	23	0.650226592866	0.444287934804	0.149113260713	-0.75732421875	0.37451171875	0.52783203125	41.0625	-17.1875	-30.375
18	12	03	12	34	23	0.643061035362	0.447261889439	0.145506597219	-0.77783203125	0.31298828125	0.5048828125	49.0	-18.0625	-31.0
18	12	03	12	34	23	0.636055246625	0.450567107819	0.14074881477	-0.80322265625	0.37451171875	0.5244140625	51.75	-20.125	-28.125
18	12	03	12	34	23	0.629843159982	0.452468974217	0.136113019358	-0.71484375	0.39404296875	0.5205078125	43.25	-22.0	-30.5
18	12	03	12	34	23	0.624585604749	0.453073286822	0.132204868551	-0.76171875	0.4140625	0.5537109375	33.75	-23.9375	-28.125
18	12	03	12	34	23	0.61940715081	0.452714114856	0.128544684628	-0.70556640625	0.3935546875	0.57470703125	30.3125	-24.8125	-32.0
18	12	03	12	34	23	0.613671905613	0.452227486442	0.124699791443	-0.72314453125	0.33984375	0.55908203125	34.125	-28.5	-32.1875
18	12	03	12	34	23	0.607426814802	0.451602793682	0.121338877394	-0.76904296875	0.251953125	0.54296875	36.1875	-30.4375	-30.8125
18	12	03	12	34	23	0.600230743602	0.453011244561	0.116029961723	-0.7470703125	0.3056640625	0.529296875	50.4375	-28.25	-30.4375
18	12	03	12	34	23	0.593711407868	0.454301841139	0.111088183646	-0.7548828125	0.33740234375	0.50244140625	43.875	-27.625	-27.3125
18	12	03	12	34	23	0.587594941728	0.45539065755	0.106630140563	-0.822265625	0.4072265625	0.54541015625	38.9375	-26.3125	-27.3125
18	12	03	12	34	23	0.582336588484	0.454834111454	0.102539091149	-0.79638671875	0.43017578125	0.58203125	29.75	-29.3125	-28.5625
18	12	03	12	34	23	0.577469903799	0.453198819967	0.099307000685	-0.80615234375	0.39990234375	0.63525390625	24.3125	-29.25	-28.75
18	12	03	12	34	23	0.57082076832	0.4527136055	0.0954623269518	-0.8203125	0.39697265625	0.6171875	35.0625	-29.5	-35.375
18	12	03	12	34	23	0.563711098914	0.452201768282	0.0914901404582	-0.765625	0.341796875	0.5869140625	37.9375	-29.625	-36.6875
18	12	03	12	34	23	0.556661722456	0.451250012513	0.0880160311165	-0.7978515625	0.3017578125	0.60888671875	36.1875	-30.5	-35.25
18	12	03	12	34	23	0.548777772733	0.450570294552	0.0841080826188	-0.716796875	0.33349609375	0.58056640625	39.25	-29.4375	-42.5
18	12	03	12	34	23	0.54147104316	0.45076808181	0.0828290165221	-0.81103515625	0.37158203125	0.51513671875	25.4375	-21.25	-41.5625
18	12	03	12	34	23	0.535721808814	0.44898822213	0.0851466245067	-0.81982421875	0.34765625	0.5078125	0.875	-18.625	-43.3125
18	12	03	12	34	23	0.530511078089	0.446588766495	0.0881947201838	-0.7197265625	0.32080078125	0.4951171875	-4.8125	-14.9375	-44.6875
18	12	03	12	34	23	0.525687762838	0.444451212004	0.0930161558766	-0.82421875	0.326171875	0.49609375	-13.875	-10.8125	-43.8125
18	12	03	12	34	23	0.521003638043	0.441839894072	0.0979018082734	-0.8017578125	0.3623046875	0.50732421875	-17.375	-11.5	-47.25
18	12	03	12	34	23	0.516842294238	0.43896194853	0.103453907503	-0.84619140625	0.34423828125	0.5400390625	-21.8125	-9.9375	-44.6875
18	12	03	12	34	23	0.513186467146	0.435305171704	0.10809386695	-0.73046875	0.39501953125	0.564453125	-23.875	-10.5	-47.25
18	12	03	12	34	23	0.508962889808	0.43108345014	0.11425572967	-0.74951171875	0.22802734375	0.55419921875	-23.9375	-10.875	-46.8125
18	12	03	12	34	23	0.502752816955	0.428105895122	0.117616204719	-0.7890625	0.2119140625	0.5673828125	-3.0625	-15.75	-49.375
18	12	03	12	34	23	0.495607508896	0.425172648641	0.119568363291	-0.771484375	0.16845703125	0.55078125	7.0625	-21.0	-50.75
18	12	03	12	34	23	0.488164008878	0.422001244984	0.121888412819	-0.8037109375	0.13818359375	0.5615234375	6.25	-22.125	-52.0
18	12	03	12	34	23	0.48102349426	0.418705896539	0.124452087907	-0.83349609375	0.1328125	0.55810546875	3.875	-23.3125	-50.75
18	12	03	12	34	23	0.474989939254	0.414319160583	0.127750442413	-0.81640625	0.158203125	0.611328125	-6.5	-22.375	-50.0
18	12	03	12	34	23	0.468751866731	0.409364423198	0.130493683733	-0.65380859375	0.14501953125	0.55029296875	-5.625	-23.75	-53.125
18	12	03	12	34	23	0.461923718009	0.406197455517	0.133120458375	-0.73974609375	0.08984375	0.51953125	1.875	-19.9375	-49.1875
18	12	03	12	34	23	0.453985701576	0.404485512818	0.135621972157	-0.83349609375	0.06298828125	0.4716796875	8.875	-19.25	-50.375
18	12	03	12	34	23	0.446411640863	0.40289352493	0.136596835145	-0.8583984375	0.08251953125	0.51904296875	14.375	-21.1875	-46.1875
18	12	03	12	34	23	0.438737771763	0.401382802882	0.137151331824	-0.8056640625	0.02978515625	0.53466796875	18.875	-18.5625	-43.8125
18	12	03	12	34	23	0.430552352112	0.401254772156	0.136661003173	-0.81689453125	0.01953125	0.51416015625	28.0625	-15.625	-41.5
18	12	03	12	34	24	0.422982371125	0.401558588692	0.136233283168	-0.79638671875	0.01708984375	0.494140625	26.1875	-12.5	-37.3125
18	12	03	12	34	24	0.416568569621	0.401553790409	0.136292690984	-0.814453125	-0.048828125	0.51513671875	23.5625	-11.625	-28.625
18	12	03	12	34	24	0.409914292298	0.401857608769	0.135376697486	-0.85498046875	-0.05322265625	0.58203125	29.8125	-10.875	-26.75
18	12	03	12	34	24	0.403091030789	0.40339621782	0.130620049347	-0.81103515625	0.1142578125	0.58740234375	43.4375	-11.875	-27.4375
18	12	03	12	34	24	0.398069336057	0.40411178688	0.129210791848	-0.9326171875	0.09619140625	0.6259765625	22.0625	-10.375	-22.875
18	12	03	12	34	24	0.392753426993	0.403495401065	0.12823231548	-0.85400390625	0.0361328125	0.63720703125	20.75	-12.6875	-25.3125
18	12	03	12	34	24	0.387206289107	0.403929889866	0.124511480104	-0.8330078125	0.068359375	0.6513671875	35.3125	-11.9375	-21.1875
18	12	03	12	34	24	0.381544783032	0.404189658173	0.119083966037	-0.7568359375	0.1630859375	0.65966796875	39.125	-13.8125	-24.0
18	12	03	12	34	24	0.376037575943	0.404113746197	0.113708489528	-0.73583984375	0.1533203125	0.64208984375	38.6875	-15.5	-23.0625
18	12	03	12	34	24	0.369814625162	0.404055589796	0.10931473736	-0.76416015625	0.08447265625	0.6162109375	38.375	-16.3125	-24.6875
18	12	03	12	34	24	0.362737723975	0.403692967587	0.10400556649	-0.74609375	0.017578125	0.6201171875	47.8125	-19.25	-24.9375
18	12	03	12	34	24	0.354548130369	0.404596239665	0.095762784739	-0.7197265625	0.05810546875	0.6123046875	65.1875	-18.25	-24.5625
18	12	03	12	34	24	0.347106572827	0.405639226834	0.0870970774439	-0.71728515625	0.11474609375	0.623046875	63.5	-17.375	-21.5
18	12	03	12	34	24	0.340149113954	0.40618918955	0.0797729933496	-0.7548828125	0.11279296875	0.6552734375	55.5625	-16.8125	-21.3125
18	12	03	12	34	24	0.333489665294	0.407096644859	0.0734238776259	-0.79443359375	0.14892578125	0.65380859375	49.0625	-14.125	-21.875
18	12	03	12	34	24	0.327455697432	0.40783950983	0.0685429167224	-0.798828125	0.14599609375	0.65283203125	40.3125	-12.0625	-21.5
18	12	03	12	34	24	0.321838922628	0.407471391516	0.0646973749261	-0.7822265625	0.13134765625	0.68408203125	33.1875	-13.875	-22.0625
18	12	03	12	34	24	0.315490411204	0.408019616734	0.0601806046521	-0.8154296875	0.1162109375	0.68408203125	40.9375	-11.1875	-22.0
18	12	03	12	34	24	0.309448121145	0.407409508608	0.0536498813583	-0.63037109375	0.25341796875	0.68896484375	41.875	-13.5625	-25.8125
18	12	03	12	34	24	0.304198128022	0.405882333737	0.0512693474194	-0.73486328125	0.1416015625	0.68212890625	23.0	-15.9375	-24.375
18	12	03	12	34	24	0.297495276717	0.404920735688	0.0483414565367	-0.80078125	0.06689453125	0.6826171875	33.6875	-17.375	-26.4375
18	12	03	12	34	24	0.291438896393	0.404596532815	0.043700575878	-0.81494140625	0.1298828125	0.63671875	38.0	-19.3125	-21.125
18	12	03	12	34	24	0.286983551647	0.404474690932	0.0402826763264	-0.927734375	0.18212890625	0.71142578125	27.0625	-16.75	-15.75
18	12	03	12	34	24	0.283211467891	0.40137901139	0.034913137852	-0.5478515625	0.310546875	0.73291015625	24.8125	-18.875	-21.25
18	12	03	12	34	24	0.280022313498	0.398732731927	0.0357657096142	-0.7841796875	0.1162109375	0.6826171875	1.375	-19.375	-18.8125
18	12	03	12	34	24	0.274538500456	0.396548830027	0.0331423756664	-0.8056640625	0.123046875	0.72802734375	24.75	-23.0	-23.6875
18	12	03	12	34	24	0.26831131602	0.391968897061	0.0266114044097	-0.458984375	0.22705078125	0.6484375	37.25	-31.75	-29.75
18	12	03	12	34	24	0.263361556842	0.392387357808	0.0261225368085	-1.11767578125	-0.00341796875	0.6982421875	22.3125	-20.5	-13.0
18	12	03	12	34	24	0.253469517229	0.388840427225	0.0170892041474	-0.53173828125	0.2236328125	0.63427734375	59.75	-35.5625	-42.1875
18	12	03	12	34	24	0.247983083675	0.389583072384	0.0123289645342	-0.80908203125	0.17333984375	0.509765625	35.0625	-20.25	-18.0625
18	12	03	12	34	24	0.242068309071	0.390141359451	0.0139772170392	-1.00146484375	0.0390625	0.51611328125	9.375	-21.25	-25.8125
18	12	03	12	34	24	0.235960645637	0.388669785675	0.0127562790839	-0.70166015625	0.06494140625	0.53515625	20.9375	-21.875	-27.1875
18	12	03	12	34	24	0.231327977628	0.389351232003	0.0111696622443	-0.7578125	0.13818359375	0.51708984375	18.375	-12.0	-19.6875
18	12	03	12	34	24	0.226379639097	0.389099541452	0.0105590934386	-0.73388671875	0.06787109375	0.56298828125	16.875	-13.1875	-21.0
18	12	03	12	34	24	0.219789595079	0.389163692926	0.00659185678105	-0.6875	0.04296875	0.5771484375	39.125	-13.625	-21.5625
18	12	03	12	34	24	0.213434128479	0.389881959602	0.000854468915846	-0.80126953125	0.04443359375	0.63330078125	49.9375	-14.125	-14.25
18	12	03	12	34	24	0.206788472123	0.389101685297	-0.00793462260214	-0.69970703125	0.13720703125	0.70068359375	60.9375	-18.9375	-14.8125
18	12	03	12	34	24	0.201415034947	0.38787652942	-0.016296307373	-0.71142578125	0.22900390625	0.74853515625	51.625	-18.6875	-12.75
18	12	03	12	34	24	0.196349865418	0.385802766337	-0.021728489925	-0.66015625	0.19287109375	0.7568359375	37.5	-17.6875	-16.5
18	12	03	12	34	24	0.191153652273	0.38377208349	-0.0265491183712	-0.69140625	0.14013671875	0.7431640625	36.75	-19.1875	-15.4375
18	12	03	12	34	24	0.185978534782	0.38276054861	-0.0333870228177	-0.76318359375	0.13330078125	0.6865234375	48.6875	-21.25	-8.5
18	12	03	12	34	24	0.181390487351	0.382128479577	-0.0427842300245	-0.73486328125	0.1787109375	0.65966796875	59.0	-21.125	-1.4375
18	12	03	12	34	24	0.178526479963	0.381649941611	-0.0544429470521	-0.70263671875	0.3134765625	0.63916015625	61.5625	-20.0	7.5
18	12	03	12	34	24	0.17785293845	0.380729797546	-0.0652452955397	-0.71484375	0.416015625	0.62841796875	47.1875	-21.5625	13.75
18	12	03	12	34	24	0.177668876592	0.378286395437	-0.072813112255	-0.67919921875	0.31982421875	0.58935546875	32.25	-27.6875	13.6875
18	12	03	12	34	24	0.176933451849	0.375167274409	-0.0799526808974	-0.66845703125	0.21044921875	0.59130859375	35.875	-31.875	15.375
18	12	03	12	34	24	0.174317906985	0.372378694158	-0.0917976653029	-0.634765625	0.2646484375	0.6025390625	63.5	-32.9375	13.9375
18	12	03	12	34	24	0.171020859175	0.369995877344	-0.105468966686	-0.662109375	0.41845703125	0.611328125	68.5	-33.5625	8.875
18	12	03	12	34	24	0.169246516541	0.367484051963	-0.114316164977	-0.72998046875	0.40478515625	0.6171875	41.5625	-32.3125	9.9375
18	12	03	12	34	24	0.168091512254	0.363954134919	-0.120178717366	-0.673828125	0.37255859375	0.67578125	26.625	-30.75	7.5
18	12	03	12	34	25	0.167108059747	0.360582329067	-0.125422594149	-0.6318359375	0.373046875	0.65966796875	22.8125	-27.75	6.5625
18	12	03	12	34	25	0.166439299112	0.356681798317	-0.128903483581	-0.580078125	0.37060546875	0.68701171875	13.6875	-26.25	3.9375
18	12	03	12	34	25	0.16491258154	0.353445136825	-0.132015512166	-0.6416015625	0.34228515625	0.69287109375	15.3125	-26.125	1.375
18	12	03	12	34	25	0.162350222815	0.350151589584	-0.135861502251	-0.61083984375	0.38037109375	0.71435546875	20.125	-26.3125	-4.5
18	12	03	12	34	25	0.158809354567	0.347708260172	-0.139339645071	-0.5966796875	0.3583984375	0.71142578125	22.4375	-21.625	-10.375
18	12	03	12	34	25	0.154355626483	0.345575941933	-0.143125323884	-0.62646484375	0.392578125	0.71630859375	24.6875	-21.9375	-15.0
18	12	03	12	34	25	0.15063121895	0.343802940172	-0.144771981908	-0.64892578125	0.37744140625	0.70849609375	12.6875	-19.5	-14.25
18	12	03	12	34	25	0.146666353848	0.343320116686	-0.144102896977	-0.68408203125	0.3017578125	0.69091796875	5.3125	-13.4375	-17.6875
18	12	03	12	34	25	0.142815936727	0.34300237795	-0.142327677114	-0.66943359375	0.310546875	0.69921875	-1.0	-10.75	-20.375
18	12	03	12	34	25	0.13921778433	0.342337813375	-0.137447808115	-0.60546875	0.26416015625	0.72412109375	-16.3125	-6.0625	-25.1875
18	12	03	12	34	25	0.134584583674	0.342473514282	-0.133669042288	-0.62060546875	0.2607421875	0.73974609375	-7.375	-3.3125	-29.25
18	12	03	12	34	25	0.130063083057	0.342888034075	-0.130124116883	-0.6279296875	0.26171875	0.7294921875	-6.8125	-2.0625	-28.3125
18	12	03	12	34	25	0.12499552477	0.344042857972	-0.128230272237	-0.62939453125	0.27001953125	0.7080078125	2.3125	0.3125	-28.9375
18	12	03	12	34	25	0.120055583901	0.34594562763	-0.127623907441	-0.66748046875	0.31201171875	0.685546875	7.125	1.6875	-27.125
18	12	03	12	34	25	0.115475957364	0.34728234535	-0.12701134634	-0.603515625	0.3681640625	0.681640625	3.125	2.25	-29.25
18	12	03	12	34	25	0.110285610655	0.348495205777	-0.125787849231	-0.58154296875	0.326171875	0.67919921875	2.4375	2.625	-32.375
18	12	03	12	34	25	0.104001440252	0.349662119251	-0.123715328281	-0.65234375	0.232421875	0.681640625	4.4375	-1.625	-35.0625
18	12	03	12	34	25	0.0964343554431	0.350459537313	-0.123411561206	-0.638671875	0.18994140625	0.6875	18.125	-4.5	-36.5
18	12	03	12	34	25	0.0884976920257	0.351793584025	-0.124812262202	-0.70361328125	0.20068359375	0.6865234375	27.8125	-5.125	-34.8125
18	12	03	12	34	25	0.0814171748765	0.35307223138	-0.126520092593	-0.70849609375	0.275390625	0.68896484375	24.125	-4.375	-32.75
18	12	03	12	34	25	0.0759883218438	0.353574577061	-0.125548576733	-0.650390625	0.26513671875	0.705078125	6.75	-2.875	-30.0
18	12	03	12	34	25	0.0716544773121	0.354488248917	-0.123289645801	-0.71240234375	0.24560546875	0.703125	-1.9375	-2.5	-25.1875
18	12	03	12	34	25	0.0676252100885	0.355642688796	-0.120480293064	-0.720703125	0.1943359375	0.65478515625	-3.75	-2.9375	-23.0625
18	12	03	12	34	25	0.063108006527	0.357103429584	-0.119624461115	-0.72119140625	0.20654296875	0.640625	6.875	-1.875	-22.625
18	12	03	12	34	25	0.05877639489	0.357235970188	-0.119811072865	-0.6533203125	0.2421875	0.68798828125	10.1875	-4.4375	-21.625
18	12	03	12	34	25	0.0540141549586	0.356676521557	-0.121089359817	-0.61572265625	0.2431640625	0.70751953125	17.0625	-6.25	-22.25
18	12	03	12	34	25	0.0484620670664	0.356751614613	-0.122925192786	-0.6796875	0.19775390625	0.703125	24.125	-6.3125	-22.1875
18	12	03	12	34	25	0.0427234687893	0.35655786381	-0.125790098821	-0.6591796875	0.25634765625	0.697265625	26.8125	-7.0625	-23.8125
18	12	03	12	34	25	0.0383294074548	0.356011837077	-0.126889869584	-0.732421875	0.23876953125	0.759765625	16.25	-8.8125	-18.3125
18	12	03	12	34	25	0.0338127105953	0.354423123514	-0.129513667659	-0.60400390625	0.279296875	0.74658203125	22.375	-9.8125	-18.8125
18	12	03	12	34	25	0.0296010701434	0.354175278438	-0.131709503855	-0.66650390625	0.28076171875	0.69091796875	18.6875	-6.6875	-18.3125
18	12	03	12	34	25	0.0252679980992	0.35411817626	-0.13311474361	-0.74365234375	0.27197265625	0.68017578125	15.1875	-10.0625	-18.875
18	12	03	12	34	25	0.0211785959064	0.353871755232	-0.134517652386	-0.71923828125	0.28564453125	0.7021484375	14.4375	-8.3125	-18.3125
18	12	03	12	34	25	0.0166623763704	0.353877136247	-0.136289693901	-0.6884765625	0.29736328125	0.7041015625	16.6875	-5.9375	-21.125
18	12	03	12	34	25	0.0124513542386	0.354253235298	-0.136415572173	-0.72509765625	0.26953125	0.70703125	8.8125	-4.8125	-21.6875
18	12	03	12	34	25	0.00726310562891	0.354183209786	-0.136717282427	-0.5859375	0.2529296875	0.66357421875	11.4375	-3.375	-28.0
18	12	03	12	34	25	0.00201410313711	0.355763854127	-0.135372144185	-0.73193359375	0.15380859375	0.62548828125	7.25	-2.6875	-25.6875
18	12	03	12	34	25	-0.00476072916109	0.356810547125	-0.134887326231	-0.69287109375	0.12451171875	0.607421875	15.625	-5.4375	-31.625
18	12	03	12	34	25	-0.0114746549	0.358582965626	-0.134338911888	-0.75390625	0.10302734375	0.59228515625	16.1875	-4.1875	-30.1875
18	12	03	12	34	25	-0.0181272504007	0.360836041647	-0.132689031553	-0.80908203125	0.09423828125	0.62890625	10.8125	-2.125	-31.9375
18	12	03	12	34	25	-0.0244136727909	0.36272614349	-0.132077969799	-0.732421875	0.17919921875	0.6328125	11.3125	0.4375	-32.625
18	12	03	12	34	25	-0.0294793846503	0.365471128957	-0.130307424904	-0.7890625	0.1875	0.6123046875	1.5625	3.25	-29.875
18	12	03	12	34	25	-0.0350948154403	0.367488493506	-0.12878271405	-0.75048828125	0.15283203125	0.65625	6.1875	2.75	-30.625
18	12	03	12	34	25	-0.0414419692731	0.367972949555	-0.1303682568	-0.6572265625	0.201171875	0.677734375	22.0625	0.25	-30.6875
18	12	03	12	34	25	-0.0472999971391	0.367719332598	-0.132256895226	-0.6640625	0.21484375	0.71923828125	22.875	-2.125	-27.625
18	12	03	12	34	25	-0.0532215482536	0.366569516985	-0.134701785545	-0.638671875	0.2626953125	0.72509765625	23.75	-5.4375	-28.5
18	12	03	12	34	25	-0.0584688775834	0.366742677869	-0.135552585713	-0.77099609375	0.20849609375	0.705078125	15.75	-5.375	-24.9375
18	12	03	12	34	25	-0.0641469921664	0.365350994394	-0.136533607494	-0.70654296875	0.22802734375	0.75	17.0	-9.625	-27.9375
18	12	03	12	34	25	-0.0694567419067	0.36370186733	-0.136716258235	-0.70361328125	0.19921875	0.74462890625	13.0625	-11.6875	-25.8125
18	12	03	12	34	25	-0.0753180392359	0.362307845141	-0.13714719138	-0.69921875	0.17431640625	0.7119140625	16.4375	-11.875	-27.6875
18	12	03	12	34	26	-0.080749682432	0.361206818316	-0.137817674173	-0.7041015625	0.19287109375	0.666015625	15.0	-12.25	-26.1875
18	12	03	12	34	26	-0.0857542983739	0.359130456678	-0.138610684418	-0.62646484375	0.2421875	0.6435546875	11.875	-15.0	-26.1875
18	12	03	12	34	26	-0.0896610673933	0.358583234129	-0.138733564455	-0.6982421875	0.19287109375	0.57177734375	7.3125	-12.625	-19.875
18	12	03	12	34	26	-0.0940542931793	0.358517143501	-0.137694020385	-0.8017578125	0.14794921875	0.58349609375	3.8125	-15.5	-21.875
18	12	03	12	34	26	-0.096495738348	0.357723923123	-0.136839623894	-0.80419921875	0.1787109375	0.65673828125	0.125	-15.375	-12.4375
18	12	03	12	34	26	-0.0980183140544	0.356308167777	-0.132623783587	-0.8203125	0.10107421875	0.77197265625	-14.5	-17.125	-9.5625
18	12	03	12	34	26	-0.100154506939	0.353928083936	-0.131464233971	-0.77490234375	0.1396484375	0.82421875	1.625	-16.25	-8.8125
18	12	03	12	34	26	-0.103026353159	0.351376016076	-0.133726741571	-0.60986328125	0.271484375	0.73486328125	14.375	-11.0	-14.0625
18	12	03	12	34	26	-0.104793127887	0.350144539712	-0.134516047678	-0.7021484375	0.28662109375	0.68212890625	1.9375	-10.8125	-11.625
18	12	03	12	34	26	-0.107969148367	0.347466569618	-0.134213768943	-0.5947265625	0.22119140625	0.69189453125	3.3125	-15.5	-18.3125
18	12	03	12	34	26	-0.112179664123	0.345571957707	-0.136104815558	-0.595703125	0.197265625	0.63232421875	17.0	-12.5625	-19.1875
18	12	03	12	34	26	-0.116511935714	0.344164905966	-0.137324177766	-0.7099609375	0.1953125	0.6484375	14.0625	-15.5625	-20.125
18	12	03	12	34	26	-0.121211684874	0.341907280295	-0.136836151807	-0.66162109375	0.13232421875	0.70849609375	9.625	-17.4375	-22.0
18	12	03	12	34	26	-0.126156684163	0.339957779771	-0.135922078196	-0.6962890625	0.0576171875	0.7353515625	11.3125	-16.8125	-21.125
18	12	03	12	34	26	-0.131036354349	0.337813796609	-0.135552744764	-0.6318359375	0.05615234375	0.69091796875	13.9375	-16.4375	-19.875
18	12	03	12	34	26	-0.134941168639	0.336651056633	-0.135917676418	-0.69970703125	0.10986328125	0.67626953125	12.3125	-13.6875	-16.5
18	12	03	12	34	26	-0.137691886088	0.335685005978	-0.134518136941	-0.68701171875	0.15576171875	0.6826171875	-2.125	-12.8125	-16.25
18	12	03	12	34	26	-0.140191168714	0.334884171848	-0.132806261699	-0.6484375	0.1650390625	0.685546875	-5.0	-9.9375	-16.3125
18	12	03	12	34	26	-0.142696380175	0.335501283927	-0.130550708808	-0.72216796875	0.103515625	0.65673828125	-6.1875	-7.125	-16.0
18	12	03	12	34	26	-0.145808151093	0.336231521293	-0.1291461062	-0.7216796875	0.08447265625	0.66064453125	0.625	-5.8125	-16.9375
18	12	03	12	34	26	-0.14923037053	0.336973773291	-0.129638162375	-0.7421875	0.06591796875	0.67333984375	11.9375	-3.6875	-14.25
18	12	03	12	34	26	-0.152951456342	0.337579610945	-0.132443998508	-0.763671875	0.0966796875	0.6748046875	23.9375	-3.3125	-12.8125
18	12	03	12	34	26	-0.156918326544	0.336785424298	-0.136960219667	-0.67431640625	0.171875	0.7138671875	31.25	-2.5625	-13.5
18	12	03	12	34	26	-0.160518839317	0.336784393669	-0.140133557061	-0.70947265625	0.1337890625	0.705078125	25.0	-1.9375	-12.75
18	12	03	12	34	26	-0.165037540231	0.336666816536	-0.143431294209	-0.6943359375	0.09375	0.6982421875	29.9375	-1.9375	-15.5
18	12	03	12	34	26	-0.170219005001	0.335921621916	-0.147087774131	-0.6533203125	0.056640625	0.69140625	35.5625	-3.3125	-16.3125
18	12	03	12	34	26	-0.175777423917	0.334831579031	-0.152279400234	-0.6845703125	0.1025390625	0.71337890625	42.8125	-4.1875	-16.8125
18	12	03	12	34	26	-0.181327536949	0.33299328226	-0.157158669688	-0.64111328125	0.14697265625	0.7578125	40.5	-4.75	-18.75
18	12	03	12	34	26	-0.186999540355	0.33146034715	-0.161244381729	-0.67919921875	0.1474609375	0.76513671875	36.3125	-5.5	-20.6875
18	12	03	12	34	26	-0.192561033265	0.329825617675	-0.165706245741	-0.68505859375	0.15185546875	0.76806640625	38.6875	-5.6875	-19.375
18	12	03	12	34	26	-0.197073085138	0.32786516363	-0.171012321015	-0.71484375	0.17822265625	0.76611328125	39.8125	-7.0	-12.125
18	12	03	12	34	26	-0.201409060022	0.323841355296	-0.178887865129	-0.64111328125	0.314453125	0.76513671875	49.25	-11.4375	-10.9375
18	12	03	12	34	26	-0.204771769118	0.320798932483	-0.185850979721	-0.65966796875	0.35302734375	0.671875	38.6875	-11.875	-9.5625
18	12	03	12	34	26	-0.208488194685	0.318408346509	-0.190666604273	-0.6572265625	0.31005859375	0.64453125	29.4375	-12.375	-13.625
18	12	03	12	34	26	-0.211722904653	0.316394216696	-0.193046857139	-0.65966796875	0.25390625	0.64501953125	18.0	-14.25	-12.75
18	12	03	12	34	26	-0.214528762088	0.314743905003	-0.192679175508	-0.72705078125	0.208984375	0.73486328125	5.4375	-15.625	-11.875
18	12	03	12	34	26	-0.216247774088	0.313598945319	-0.192138863344	-0.7177734375	0.22021484375	0.73388671875	1.0625	-11.75	-7.875
18	12	03	12	34	26	-0.216484606449	0.313161126498	-0.190423448582	-0.7744140625	0.23583984375	0.79345703125	-9.125	-9.125	-2.875
18	12	03	12	34	26	-0.216671473143	0.311091408059	-0.189755383099	-0.54345703125	0.28515625	0.734375	-5.3125	-8.0625	-3.875
18	12	03	12	34	26	-0.217100435285	0.30956800893	-0.189390680542	-0.662109375	0.26025390625	0.7763671875	-1.875	-8.9375	-2.8125
18	12	03	12	34	26	-0.218801406199	0.305894741386	-0.191214729602	-0.5244140625	0.34716796875	0.73974609375	9.6875	-13.25	-8.75
18	12	03	12	34	26	-0.220572062652	0.304491981342	-0.192558067976	-0.654296875	0.271484375	0.66455078125	7.6875	-11.6875	-8.0625
18	12	03	12	34	26	-0.222953366945	0.304188223612	-0.193718583817	-0.76513671875	0.1953125	0.64404296875	11.125	-12.25	-8.125
18	12	03	12	34	26	-0.224903565827	0.303146814509	-0.195425025178	-0.7490234375	0.244140625	0.63623046875	11.0	-15.1875	-6.375
18	12	03	12	34	26	-0.225520877313	0.302545869781	-0.195797286717	-0.7470703125	0.23876953125	0.642578125	1.0625	-13.1875	-1.125
18	12	03	12	34	26	-0.225702314783	0.302238470201	-0.195246540019	-0.705078125	0.25927734375	0.62939453125	-6.3125	-11.5625	-2.3125
18	12	03	12	34	26	-0.226014508016	0.302492006948	-0.192933259476	-0.68896484375	0.216796875	0.65625	-13.5625	-9.125	-4.8125
18	12	03	12	34	26	-0.226740857597	0.302667002106	-0.190181564542	-0.6328125	0.158203125	0.6591796875	-12.5625	-7.8125	-6.375
18	12	03	12	34	26	-0.228386853402	0.302725492484	-0.187555531936	-0.64013671875	0.10302734375	0.6953125	-6.5625	-7.6875	-8.5625
18	12	03	12	34	26	-0.230408436278	0.302430146161	-0.186890233612	-0.68310546875	0.1318359375	0.70654296875	3.75	-8.5	-7.875
18	12	03	12	34	27	-0.232042940473	0.302656744295	-0.184743287957	-0.62890625	0.125	0.68017578125	-5.8125	-6.125	-9.5625
18	12	03	12	34	27	-0.233698766725	0.303277401895	-0.182369264814	-0.6572265625	0.11376953125	0.6962890625	-6.9375	-5.0625	-10.0625
18	12	03	12	34	27	-0.2348014558	0.304015090029	-0.17962586026	-0.693359375	0.09619140625	0.716796875	-9.375	-5.625	-6.6875
18	12	03	12	34	27	-0.236808432358	0.302907280874	-0.180230747617	-0.65380859375	0.1181640625	0.7529296875	11.6875	-7.625	-5.3125
18	12	03	12	34	27	-0.238457440417	0.301260794958	-0.183222225783	-0.64794921875	0.19384765625	0.71142578125	20.3125	-7.9375	-2.625
18	12	03	12	34	27	-0.24028485769	0.299364294379	-0.186393181455	-0.64111328125	0.25048828125	0.73291015625	19.625	-7.875	-5.125
18	12	03	12	34	27	-0.241507003706	0.296558638111	-0.188957716319	-0.5673828125	0.3193359375	0.74267578125	12.375	-9.75	-5.125
18	12	03	12	34	27	-0.242481096043	0.293565082298	-0.189505110298	-0.50634765625	0.3017578125	0.77001953125	2.8125	-9.875	-6.125
18	12	03	12	34	27	-0.242729975478	0.290946390018	-0.188471250761	-0.537109375	0.24462890625	0.79248046875	-4.1875	-11.0	-1.875
18	12	03	12	34	27	-0.242548838513	0.289239795096	-0.186885894194	-0.65087890625	0.22119140625	0.79052734375	-8.25	-13.375	0.875
18	12	03	12	34	27	-0.241813796103	0.287832877946	-0.185907325323	-0.57373046875	0.298828125	0.69677734375	-11.4375	-9.9375	-0.1875
18	12	03	12	34	27	-0.239741502332	0.288751794179	-0.181698180357	-0.73095703125	0.29150390625	0.7451171875	-33.5625	-8.0625	1.75
18	12	03	12	34	27	-0.238033051234	0.288935503728	-0.175595150872	-0.68115234375	0.29150390625	0.81787109375	-42.1875	-10.25	-3.25
18	12	03	12	34	27	-0.236866922132	0.289049663286	-0.169731231757	-0.58251953125	0.2451171875	0.82421875	-37.375	-5.0625	-5.25
18	12	03	12	34	27	-0.236625673291	0.289358348483	-0.165155809111	-0.55615234375	0.1787109375	0.79248046875	-26.25	-2.375	-6.6875
18	12	03	12	34	27	-0.236865546166	0.289292112555	-0.163321876202	-0.59521484375	0.25634765625	0.76708984375	-14.5625	-3.4375	-8.0
18	12	03	12	34	27	-0.236991716609	0.289846423429	-0.160334081775	-0.5615234375	0.2529296875	0.7216796875	-22.6875	-2.1875	-10.5
18	12	03	12	34	27	-0.237229748276	0.291547853747	-0.155569495332	-0.64990234375	0.16748046875	0.7177734375	-28.8125	-3.0625	-10.8125
18	12	03	12	34	27	-0.237543166492	0.293083834916	-0.151241512479	-0.65234375	0.1396484375	0.7158203125	-25.3125	-3.9375	-10.0
18	12	03	12	34	27	-0.238032855714	0.294245230102	-0.147397268346	-0.62548828125	0.09765625	0.72314453125	-19.6875	-3.125	-8.3125
18	12	03	12	34	27	-0.23858282132	0.295222590617	-0.144895271889	-0.642578125	0.08837890625	0.7255859375	-12.25	-3.0625	-6.375
18	12	03	12	34	27	-0.239124382432	0.296006445838	-0.142571352057	-0.64501953125	0.119140625	0.7392578125	-12.8125	-3.4375	-7.0625
18	12	03	12	34	27	-0.239195831025	0.296812790578	-0.139708919933	-0.6298828125	0.13134765625	0.7451171875	-17.3125	-2.875	-6.1875
18	12	03	12	34	27	-0.238760235777	0.29802306526	-0.136042066857	-0.6328125	0.1015625	0.74462890625	-22.125	-1.875	-4.375
18	12	03	12	34	27	-0.238462817307	0.299192406051	-0.133360956185	-0.62744140625	0.078125	0.73876953125	-15.0	-0.4375	-2.75
18	12	03	12	34	27	-0.238275049889	0.300041020813	-0.132748010632	-0.6455078125	0.0849609375	0.76171875	-4.1875	1.25	-0.1875
18	12	03	12	34	27	-0.238088854354	0.300159186288	-0.134150038931	-0.6455078125	0.1416015625	0.79052734375	4.6875	1.5	1.75
18	12	03	12	34	27	-0.238388572646	0.300091298438	-0.13597791599	-0.59521484375	0.16259765625	0.7880859375	7.1875	3.625	-1.5
18	12	03	12	34	27	-0.239376136619	0.300410337694	-0.136533507806	-0.580078125	0.13818359375	0.76806640625	2.6875	3.625	-6.8125
18	12	03	12	34	27	-0.241019450136	0.301198021377	-0.136103665182	-0.58837890625	0.10693359375	0.75390625	-0.3125	3.6875	-11.3125
18	12	03	12	34	27	-0.243094107838	0.302967399274	-0.134211384167	-0.62451171875	0.04150390625	0.736328125	-5.5	4.3125	-14.3125
18	12	03	12	34	27	-0.247606727075	0.306563615997	-0.131951132348	-0.634765625	0.0673828125	0.71142578125	-4.0625	3.875	-15.375
18	12	03	12	34	27	-0.248776050909	0.307918345641	-0.130125255284	-0.6259765625	0.11572265625	0.74658203125	-11.0625	2.9375	-12.75
18	12	03	12	34	27	-0.249380513602	0.309864137924	-0.12658227734	-0.63818359375	0.07373046875	0.7802734375	-19.8125	4.5	-10.9375
18	12	03	12	34	27	-0.25066264005	0.310413973045	-0.123530845742	-0.537109375	0.07177734375	0.7802734375	-14.25	3.0	-13.5
18	12	03	12	34	27	-0.25218537981	0.311020497461	-0.121210107527	-0.5693359375	0.0634765625	0.7978515625	-10.0	3.5	-13.125
18	12	03	12	34	27	-0.255181609663	0.312553222455	-0.118588344314	-0.70458984375	-0.02392578125	0.7861328125	-5.625	-0.0625	-18.9375
18	12	03	12	34	27	-0.257987840543	0.315053994058	-0.117122939674	-0.8173828125	-0.0302734375	0.77734375	-0.9375	1.6875	-17.1875
18	12	03	12	34	27	-0.260550089348	0.315784999365	-0.117061389405	-0.55224609375	0.06640625	0.68505859375	2.375	4.1875	-16.25
18	12	03	12	34	27	-0.259461756508	0.320131007501	-0.114441494579	-0.8330078125	0.0107421875	0.7119140625	-19.8125	7.75	-1.5
18	12	03	12	34	27	-0.260490384206	0.32018101114	-0.114620651719	-0.583984375	0.14892578125	0.751953125	-3.0	2.625	-10.625
18	12	03	12	34	27	-0.260063733387	0.321341365004	-0.113766439576	-0.517578125	0.15380859375	0.67333984375	-13.5625	7.6875	-5.875
18	12	03	12	34	27	-0.261592729058	0.324213853653	-0.111692649131	-0.734375	-0.0615234375	0.7041015625	-6.75	5.375	-11.0625
18	12	03	12	34	27	-0.265740185235	0.323477947116	-0.11346141579	-0.6494140625	-0.03369140625	0.7421875	22.4375	-3.125	-16.4375
18	12	03	12	34	27	-0.269220400235	0.323174341248	-0.116696759295	-0.7177734375	-0.05712890625	0.734375	29.375	-1.6875	-9.75
18	12	03	12	34	27	-0.270740590619	0.321641774698	-0.119868016225	-0.60986328125	0.0234375	0.73828125	22.75	-2.875	-0.6875
18	12	03	12	34	27	-0.269336917689	0.322191159864	-0.121088702627	-0.6787109375	0.05859375	0.693359375	1.75	0.8125	8.5625
18	12	03	12	34	27	-0.266346037428	0.323350436823	-0.119623793162	-0.67578125	0.08349609375	0.70361328125	-17.9375	0.125	11.25
18	12	03	12	34	27	-0.263170130955	0.323103588423	-0.117242537469	-0.50830078125	0.14404296875	0.70654296875	-24.25	-0.5	9.1875
18	12	03	12	34	28	-0.260560624421	0.324525846813	-0.113037778503	-0.6630859375	0.087890625	0.75341796875	-32.25	-0.125	3.375
18	12	03	12	34	28	-0.260372648638	0.324214606087	-0.109068430173	-0.6513671875	0.02978515625	0.82373046875	-20.9375	-6.625	-5.3125
18	12	03	12	34	28	-0.262319577294	0.323779748149	-0.108394501925	-0.67333984375	-0.0244140625	0.79345703125	3.75	-4.4375	-9.375
18	12	03	12	34	28	-0.265671440898	0.322980304441	-0.109857246409	-0.66455078125	-0.06298828125	0.76416015625	20.4375	-3.75	-11.3125
18	12	03	12	34	28	-0.269888002698	0.322315364597	-0.113826577348	-0.6650390625	-0.05712890625	0.68505859375	34.75	-2.25	-12.4375
18	12	03	12	34	28	-0.273790496286	0.323592780051	-0.118707649415	-0.75244140625	-0.04931640625	0.62109375	35.875	3.75	-11.4375
18	12	03	12	34	28	-0.276474535614	0.326520698794	-0.120171823537	-0.77978515625	-0.03369140625	0.61962890625	12.4375	6.125	-13.0
18	12	03	12	34	28	-0.277879202059	0.331709524093	-0.117669910294	-0.79345703125	-0.08984375	0.6396484375	-11.1875	13.1875	-12.9375
18	12	03	12	34	28	-0.279532274243	0.337819025749	-0.114254239603	-0.78076171875	-0.119140625	0.66162109375	-15.5625	19.0625	-16.5
18	12	03	12	34	28	-0.281546622597	0.342518891397	-0.110958543222	-0.66748046875	-0.15625	0.6875	-10.6875	19.25	-15.6875
18	12	03	12	34	28	-0.285455292666	0.34673327296	-0.11077642852	-0.6484375	-0.2041015625	0.67333984375	12.25	22.8125	-17.6875
18	12	03	12	34	28	-0.289179553473	0.350885025943	-0.113340318869	-0.73046875	-0.15673828125	0.64794921875	23.5	22.9375	-14.4375
18	12	03	12	34	28	-0.292470991546	0.353626236439	-0.118221266825	-0.7412109375	-0.033203125	0.7060546875	30.375	22.3125	-11.6875
18	12	03	12	34	28	-0.295036006658	0.354543682804	-0.123043564216	-0.71435546875	0.05517578125	0.77294921875	26.5	16.5625	-9.4375
18	12	03	12	34	28	-0.29692544467	0.354601610182	-0.128291322651	-0.70556640625	0.0791015625	0.80615234375	28.0	14.6875	-4.5
18	12	03	12	34	28	-0.299667821455	0.35349817146	-0.134881035726	-0.64990234375	0.1376953125	0.78564453125	36.0625	12.75	-7.8125
18	12	03	12	34	28	-0.302916800577	0.351683780964	-0.142944015102	-0.65673828125	0.201171875	0.7373046875	43.4375	9.125	-9.5625
18	12	03	12	34	28	-0.307116677794	0.349839586072	-0.147943328095	-0.658203125	0.05126953125	0.740234375	37.625	2.9375	-12.625
18	12	03	12	34	28	-0.312542216972	0.348123570711	-0.15563027793	-0.75537109375	0.0185546875	0.7470703125	56.125	4.625	-13.125
18	12	03	12	34	28	-0.318418795739	0.346555860112	-0.164733051505	-0.78466796875	0.05029296875	0.71923828125	63.75	6.25	-14.3125
18	12	03	12	34	28	-0.323222208543	0.344155973183	-0.171437157062	-0.71630859375	0.05859375	0.77392578125	50.25	3.0625	-11.375
18	12	03	12	34	28	-0.328662346031	0.341662360832	-0.177544803083	-0.654296875	0.09130859375	0.7705078125	47.6875	3.9375	-17.5625
18	12	03	12	34	28	-0.332989244249	0.341106467395	-0.182118750887	-0.71533203125	0.08349609375	0.708984375	34.5625	6.25	-16.3125
18	12	03	12	34	28	-0.336722564017	0.342093523893	-0.185053981167	-0.7177734375	0.0341796875	0.68212890625	24.875	10.5	-15.625
18	12	03	12	34	28	-0.341052502827	0.341662833004	-0.188103760507	-0.70703125	0.025390625	0.7021484375	29.75	4.0625	-16.0
18	12	03	12	34	28	-0.345264735994	0.340504147447	-0.192437637014	-0.6943359375	0.0546875	0.6982421875	35.875	3.6875	-13.5
18	12	03	12	34	28	-0.350637336107	0.338369606854	-0.196955036313	-0.61669921875	0.0869140625	0.6953125	40.0625	2.125	-20.0
18	12	03	12	34	28	-0.355818568517	0.33598305655	-0.19969783125	-0.658203125	0.0654296875	0.72314453125	32.1875	-4.25	-19.8125
18	12	03	12	34	28	-0.362168452396	0.332201362722	-0.203361186954	-0.6416015625	0.0263671875	0.7421875	44.125	-8.75	-20.3125
18	12	03	12	34	28	-0.369194016013	0.326836494586	-0.208430743046	-0.634765625	0.07958984375	0.76806640625	53.5625	-12.5625	-21.5
18	12	03	12	34	28	-0.375104213021	0.321700993627	-0.213795974327	-0.69970703125	0.12939453125	0.7783203125	50.5625	-13.0	-17.3125
18	12	03	12	34	28	-0.380843570421	0.316515185289	-0.219229183486	-0.7587890625	0.181640625	0.796875	48.5625	-14.8125	-17.75
18	12	03	12	34	28	-0.386104929146	0.311154430728	-0.223630803097	-0.6982421875	0.2041015625	0.78662109375	41.6875	-16.3125	-17.4375
18	12	03	12	34	28	-0.391280571713	0.30571274118	-0.227468833376	-0.7099609375	0.2080078125	0.78466796875	38.875	-19.3125	-17.125
18	12	03	12	34	28	-0.396523776909	0.300093491005	-0.231493717995	-0.6953125	0.22314453125	0.734375	39.625	-21.125	-17.9375
18	12	03	12	34	28	-0.400921688404	0.295884966568	-0.234791556598	-0.68408203125	0.212890625	0.68505859375	31.5625	-17.625	-16.0625
18	12	03	12	34	28	-0.404825463207	0.293808198384	-0.236132928863	-0.7724609375	0.1337890625	0.68896484375	20.625	-15.1875	-15.25
18	12	03	12	34	28	-0.409112922664	0.290950515044	-0.23839998149	-0.77099609375	0.1845703125	0.72607421875	25.8125	-15.625	-17.0625
18	12	03	12	34	28	-0.412456519698	0.287218168349	-0.24065049677	-0.658203125	0.2353515625	0.70947265625	22.5625	-15.0	-13.1875
18	12	03	12	34	28	-0.414724627819	0.28514988391	-0.241876924216	-0.7216796875	0.197265625	0.71923828125	13.6875	-11.375	-8.8125
18	12	03	12	34	28	-0.41751103416	0.282389059357	-0.243390440613	-0.6142578125	0.23681640625	0.662109375	15.375	-11.625	-13.0
18	12	03	12	34	28	-0.419231404805	0.280443777126	-0.242603702737	-0.63232421875	0.2021484375	0.69384765625	1.3125	-13.1875	-8.8125
18	12	03	12	34	28	-0.421488002943	0.278001426789	-0.241931428275	-0.63671875	0.16845703125	0.716796875	6.25	-15.375	-9.125
18	12	03	12	34	28	-0.423617713776	0.273847094325	-0.24278220219	-0.5986328125	0.2392578125	0.7353515625	14.0625	-17.3125	-6.875
18	12	03	12	34	28	-0.425223872275	0.269770276368	-0.243159452726	-0.607421875	0.2509765625	0.7333984375	9.5	-18.9375	-4.75
18	12	03	12	34	28	-0.425993890021	0.265361236936	-0.243695358575	-0.64697265625	0.27880859375	0.74755859375	8.0	-21.8125	0.875
18	12	03	12	34	28	-0.426738019318	0.260424932556	-0.244312398646	-0.650390625	0.2841796875	0.78125	9.9375	-23.125	2.125
18	12	03	12	34	28	-0.427591689035	0.255358782033	-0.244434015784	-0.5947265625	0.29248046875	0.7685546875	7.375	-23.75	0.8125
18	12	03	12	34	28	-0.428033940391	0.251949822606	-0.243771218868	-0.64404296875	0.2685546875	0.7744140625	0.3125	-20.0625	0.75
18	12	03	12	34	29	-0.428336852756	0.249079894001	-0.243281660742	-0.658203125	0.298828125	0.7705078125	-1.375	-17.8125	-0.1875
18	12	03	12	34	29	-0.428150521737	0.246758739755	-0.240960550224	-0.578125	0.3251953125	0.7666015625	-14.8125	-16.5	-2.3125
18	12	03	12	34	29	-0.427594326653	0.245473077619	-0.23821019939	-0.61181640625	0.3017578125	0.7197265625	-19.6875	-15.8125	-0.9375
18	12	03	12	34	29	-0.427540462318	0.245660294194	-0.235040445451	-0.66357421875	0.18603515625	0.69677734375	-18.1875	-13.875	-1.6875
18	12	03	12	34	29	-0.427967660945	0.244012365724	-0.234674223664	-0.642578125	0.232421875	0.662109375	-1.4375	-16.5	-1.0
18	12	03	12	34	29	-0.428153782552	0.242793406556	-0.233394164573	-0.63232421875	0.2373046875	0.6669921875	-8.0625	-15.8125	-1.6875
18	12	03	12	34	29	-0.428812709473	0.242725326725	-0.231678486359	-0.65771484375	0.1865234375	0.6494140625	-9.5625	-13.9375	-4.8125
18	12	03	12	34	29	-0.429417961585	0.243088649942	-0.228196952582	-0.65966796875	0.15771484375	0.6669921875	-18.0	-15.9375	-5.5
18	12	03	12	34	29	-0.430418618285	0.243834710727	-0.225096974509	-0.642578125	0.10986328125	0.6474609375	-14.0	-13.375	-7.0
18	12	03	12	34	29	-0.431432072527	0.244431383572	-0.223131370372	-0.646484375	0.09228515625	0.64697265625	-7.0	-11.1875	-5.25
18	12	03	12	34	29	-0.432042037266	0.245712846734	-0.220995086444	-0.66943359375	0.0947265625	0.6845703125	-9.75	-7.5	-4.4375
18	12	03	12	34	29	-0.433149387906	0.246145058676	-0.21990097853	-0.65771484375	0.154296875	0.7353515625	-5.0625	-6.375	-8.0
18	12	03	12	34	29	-0.433644027201	0.248162788825	-0.215875992148	-0.6416015625	0.0947265625	0.7421875	-21.1875	-5.125	-7.4375
18	12	03	12	34	29	-0.434568744603	0.250609447379	-0.212035367802	-0.6416015625	0.0673828125	0.7587890625	-19.4375	-1.75	-10.125
18	12	03	12	34	29	-0.435471257621	0.253104317499	-0.207512582468	-0.57080078125	0.1044921875	0.759765625	-25.75	0.625	-13.3125
18	12	03	12	34	29	-0.435514554385	0.255718327196	-0.204330539249	-0.630859375	0.09326171875	0.75439453125	-20.625	1.9375	-6.8125
18	12	03	12	34	29	-0.436081231374	0.258658118763	-0.203789395599	-0.73388671875	0.05078125	0.7255859375	-4.75	4.375	-6.0625
18	12	03	12	34	29	-0.436991596487	0.259753664057	-0.205740037955	-0.7109375	0.16796875	0.748046875	6.25	4.375	-7.4375
18	12	03	12	34	29	-0.439996234946	0.257686794832	-0.207028329718	-0.57666015625	0.2119140625	0.77685546875	13.4375	0.0	-6.3125
18	12	03	12	34	29	-0.440964425003	0.25658331387	-0.208611267081	-0.60986328125	0.1943359375	0.74951171875	8.375	-2.6875	-5.3125
18	12	03	12	34	29	-0.441886400965	0.254695020887	-0.210140176591	-0.5810546875	0.2099609375	0.7783203125	9.0	-4.375	-4.625
18	12	03	12	34	29	-0.442130677917	0.252864080426	-0.210140243521	-0.56298828125	0.205078125	0.81396484375	0.25	-6.0625	-1.75
18	12	03	12	34	29	-0.441804206714	0.25120404957	-0.20787196133	-0.51171875	0.19287109375	0.828125	-11.75	-8.25	-0.375
18	12	03	12	34	29	-0.440355090128	0.250602633412	-0.204400443082	-0.5419921875	0.1923828125	0.80126953125	-23.4375	-8.6875	3.6875
18	12	03	12	34	29	-0.438218484704	0.25090754744	-0.201592709607	-0.56298828125	0.24951171875	0.72900390625	-27.1875	-6.5625	4.25
18	12	03	12	34	29	-0.436941609069	0.253290638027	-0.197749799327	-0.662109375	0.1728515625	0.68701171875	-31.5625	-5.8125	-1.875
18	12	03	12	34	29	-0.434730267074	0.254564080298	-0.193532174209	-0.791015625	0.1630859375	0.76708984375	-32.4375	-16.5625	6.3125
18	12	03	12	34	29	-0.434494909095	0.253775787613	-0.191827152589	-0.7373046875	0.126953125	0.88671875	-8.1875	-13.375	1.4375
18	12	03	12	34	29	-0.435284672984	0.251027181714	-0.19420580895	-0.3828125	0.23583984375	0.7119140625	11.9375	0.125	-4.75
18	12	03	12	34	29	-0.435725456623	0.252621888915	-0.194211850816	-0.62109375	0.15283203125	0.77001953125	-5.4375	5.8125	-7.3125
18	12	03	12	34	29	-0.435476124147	0.252435774278	-0.192134385258	-0.51123046875	0.23681640625	0.79248046875	-18.25	-2.5625	-6.125
18	12	03	12	34	29	-0.436692276931	0.253836922398	-0.189691068721	-0.66796875	0.10107421875	0.8798828125	-12.6875	-0.75	-11.875
18	12	03	12	34	29	-0.438035313264	0.256400494778	-0.187188840153	-0.607421875	0.0224609375	0.7529296875	-12.0	3.3125	-12.3125
18	12	03	12	34	29	-0.439684475041	0.25878153445	-0.18633491148	-0.666015625	0.02001953125	0.80517578125	-2.625	6.0625	-12.4375
18	12	03	12	34	29	-0.43949211533	0.261217366145	-0.184561054959	-0.599609375	0.107421875	0.7587890625	-16.4375	6.5	-6.0625
18	12	03	12	34	29	-0.43865485879	0.264645536067	-0.181211392201	-0.685546875	0.06787109375	0.8076171875	-25.625	4.625	-3.8125
18	12	03	12	34	29	-0.437738588115	0.267391627793	-0.177671086169	-0.552734375	0.076171875	0.732421875	-26.75	5.0625	-3.625
18	12	03	12	34	29	-0.436758108792	0.270379880094	-0.173824356322	-0.61962890625	0.009765625	0.77197265625	-25.5625	3.375	-1.375
18	12	03	12	34	29	-0.436127910593	0.271405096335	-0.17161932334	-0.61279296875	0.07080078125	0.771484375	-15.875	-1.9375	-1.0625
18	12	03	12	34	29	-0.436007555351	0.270917908483	-0.170582463215	-0.48779296875	0.13330078125	0.75341796875	-9.125	-0.5625	-3.5625
18	12	03	12	34	29	-0.435594501861	0.271842218199	-0.169123212086	-0.61279296875	0.111328125	0.76220703125	-14.0	-1.125	-3.4375
18	12	03	12	34	29	-0.435538189811	0.272882741963	-0.167232993285	-0.64013671875	0.07763671875	0.76123046875	-13.6875	-3.0625	-4.75
18	12	03	12	34	29	-0.43511415102	0.274715779736	-0.164670778433	-0.6904296875	0.0283203125	0.76611328125	-17.25	-3.375	-3.0
18	12	03	12	34	29	-0.434182265661	0.275926064528	-0.163077735992	-0.66455078125	0.0888671875	0.80322265625	-15.6875	-0.875	-0.4375
18	12	03	12	34	29	-0.432954134528	0.276653663916	-0.160755735882	-0.572265625	0.1552734375	0.8154296875	-22.6875	0.3125	-1.5625
18	12	03	12	34	29	-0.430884394304	0.278793188836	-0.156424462125	-0.71435546875	0.080078125	0.8798828125	-33.875	-2.75	1.6875
18	12	03	12	34	29	-0.429778193308	0.279703700643	-0.152942935591	-0.6396484375	0.02294921875	0.87255859375	-21.8125	-3.6875	0.9375
18	12	03	12	34	29	-0.429858007865	0.278068022694	-0.152461352215	-0.41015625	0.1328125	0.78125	-5.1875	0.0625	-3.5625
18	12	03	12	34	29	-0.428273412092	0.279656373693	-0.150936318669	-0.60791015625	0.1103515625	0.73291015625	-19.625	1.25	1.3125
18	12	03	12	34	30	-0.427101550062	0.279648371304	-0.149955488497	-0.56982421875	0.19921875	0.71630859375	-18.0	-4.3125	-1.75
18	12	03	12	34	30	-0.425827797431	0.280996299179	-0.147150755283	-0.46728515625	0.15673828125	0.662109375	-27.6875	1.375	-4.125
18	12	03	12	34	30	-0.424862090296	0.284299327194	-0.143065183114	-0.697265625	-0.00732421875	0.70751953125	-29.25	-2.1875	-4.0625
18	12	03	12	34	30	-0.425456930031	0.285387549107	-0.140740737434	-0.68701171875	0.02685546875	0.783203125	-14.5625	-5.625	-9.5625
18	12	03	12	34	30	-0.425217408027	0.28691646837	-0.136775112873	-0.615234375	0.00927734375	0.81640625	-24.6875	-2.75	-7.0
18	12	03	12	34	30	-0.424244259215	0.289421130369	-0.13134421606	-0.59375	-0.017578125	0.82861328125	-34.9375	1.0	-5.25
18	12	03	12	34	30	-0.422152209672	0.293620685374	-0.125296875301	-0.62939453125	-0.0380859375	0.7490234375	-43.25	2.8125	-1.75
18	12	03	12	34	30	-0.419717752543	0.2986300659	-0.118463306338	-0.69189453125	-0.0908203125	0.71435546875	-47.4375	0.8125	-0.6875
18	12	03	12	34	30	-0.390254063483	0.32677826961	-0.0723868187818	-0.68359375	-0.23486328125	0.6943359375	-14.8125	-3.8125	7.1875
18	12	03	12	34	30	-0.390491682149	0.324209411625	-0.0748269462823	-0.57568359375	-0.09814453125	0.73583984375	16.75	-8.25	5.25
18	12	03	12	34	30	-0.389518354467	0.32299140267	-0.0766585793185	-0.65234375	-0.115234375	0.77197265625	9.25	-5.375	9.75
18	12	03	12	34	30	-0.388174172774	0.320609894588	-0.0777569019047	-0.61572265625	-0.06005859375	0.85888671875	4.125	-8.0	10.375
18	12	03	12	34	30	-0.385357387839	0.319259502025	-0.0772667806468	-0.64404296875	-0.09716796875	0.89404296875	-7.3125	-7.25	16.5
18	12	03	12	34	30	-0.379255670442	0.316270177701	-0.0773891519345	-0.54345703125	-0.0400390625	0.861328125	-7.3125	-5.5625	21.0625
18	12	03	12	34	30	-0.370463785187	0.313215839469	-0.0783649917924	-0.56201171875	0.06298828125	0.78662109375	-11.375	-7.625	23.375
18	12	03	12	34	30	-0.365341906669	0.31309789195	-0.0783049893513	-0.6787109375	0.005859375	0.798828125	-16.0	-6.125	25.5
18	12	03	12	34	30	-0.360759006971	0.311140148458	-0.0775103939863	-0.56396484375	0.013671875	0.85107421875	-15.4375	-10.0	23.5625
18	12	03	12	34	30	-0.352049628455	0.306029271337	-0.0772092198327	-0.56494140625	0.03955078125	0.83251953125	-10.75	-10.625	25.8125
18	12	03	12	34	30	-0.346852987147	0.304129585598	-0.0756814541726	-0.52587890625	0.009765625	0.77392578125	-19.25	-13.1875	26.6875
18	12	03	12	34	30	-0.327815929805	0.300960780091	-0.0711661467422	-0.6298828125	-0.01171875	0.77880859375	-25.625	-14.9375	36.75
18	12	03	12	34	30	-0.321092591981	0.298388458885	-0.0707978343847	-0.5595703125	0.03759765625	0.7939453125	-15.75	-16.5	36.9375
18	12	03	12	34	30	-0.314013772957	0.295764964772	-0.0693942973474	-0.60009765625	-0.02978515625	0.8154296875	-17.875	-20.3125	40.1875
18	12	03	12	34	30	-0.30834937217	0.291747822442	-0.0709227970036	-0.56396484375	-0.06982421875	0.79638671875	5.4375	-21.6875	39.5625
18	12	03	12	34	31	-0.303279845008	0.286617458675	-0.0755605651278	-0.52001953125	0.02685546875	0.7578125	19.625	-21.4375	38.8125
18	12	03	12	34	31	-0.298215076648	0.28179676809	-0.0792839509959	-0.5263671875	0.0634765625	0.7802734375	13.1875	-20.875	36.0625
18	12	03	12	34	31	-0.292900145717	0.279045523279	-0.079587787042	-0.60400390625	0.0146484375	0.8310546875	-5.625	-18.5625	32.5
18	12	03	12	34	31	-0.215139145438	0.28331231578	-0.0941729649393	-0.65185546875	-0.03515625	0.798828125	3.9375	1.75	36.125
18	12	03	12	34	31	-0.203114890492	0.289475338222	-0.0996044174526	-0.6259765625	-0.16455078125	0.70703125	15.375	6.625	17.375
18	12	03	12	34	31	-0.202689794782	0.29069903419	-0.103023298281	-0.58203125	-0.14111328125	0.6923828125	28.0625	7.0	15.1875
18	12	03	12	34	31	-0.201957911721	0.292408689954	-0.108272389058	-0.6845703125	-0.0556640625	0.732421875	32.875	8.8125	16.5625
18	12	03	12	34	31	-0.200984023427	0.293572169051	-0.114499249301	-0.6484375	0.01025390625	0.7724609375	35.1875	11.0625	17.5625
18	12	03	12	34	31	-0.195853797402	0.303393339634	-0.146234246985	-0.6845703125	0.0830078125	0.73876953125	16.0625	22.4375	8.375
18	12	03	12	34	31	-0.194941774238	0.304863544871	-0.150753344511	-0.57568359375	0.08251953125	0.76220703125	25.1875	17.5	13.1875
18	12	03	12	34	31	-0.194635794567	0.3072425807	-0.155208161049	-0.52294921875	0.05029296875	0.68994140625	27.0625	22.375	9.5
