18	12	03	12	37	00	0.622909918728	-0.100827668601	0.522509486011	-0.58837890625	-0.76953125	0.439453125	16.5	-6.1875	7.6875
18	12	03	12	37	00	0.624203551427	-0.099364758162	0.520627387667	-0.53857421875	-0.79296875	0.4033203125	17.6875	-6.75	8.0
18	12	03	12	37	00	0.625748863312	-0.0974757056876	0.517957945188	-0.478515625	-0.7578125	0.423828125	21.8125	-6.1875	9.8125
18	12	03	12	37	00	0.627224411582	-0.0958293427582	0.516807035117	-0.55712890625	-0.73974609375	0.427734375	11.375	-4.6875	10.25
18	12	03	12	37	00	0.628367590411	-0.0947892052364	0.51630514301	-0.5927734375	-0.75634765625	0.4267578125	6.8125	-4.75	8.0
18	12	03	12	37	00	0.630255861693	-0.0925913366442	0.514470914024	-0.65185546875	-0.76513671875	0.42724609375	17.75	-9.4375	8.625
18	12	03	12	37	00	0.633260493355	-0.0891752848956	0.510331661199	-0.552734375	-0.66845703125	0.48876953125	28.0625	-11.25	12.6875
18	12	03	12	37	00	0.636503298681	-0.0847816534204	0.50612632841	-0.55126953125	-0.599609375	0.5322265625	27.875	-7.75	14.8125
18	12	03	12	37	00	0.639062286135	-0.0801421950044	0.502887695842	-0.642578125	-0.55712890625	0.58642578125	21.3125	-2.75	8.5625
18	12	03	12	37	00	0.640459051738	-0.0764180627825	0.50050168915	-0.60009765625	-0.6181640625	0.60888671875	17.375	3.0625	5.875
18	12	03	12	37	00	0.640200413111	-0.0733645625474	0.498903439486	-0.5341796875	-0.72412109375	0.57373046875	20.3125	9.75	2.5
18	12	03	12	37	00	0.638692770495	-0.070558949034	0.499161838408	-0.51513671875	-0.7509765625	0.48095703125	17.1875	16.125	1.625
18	12	03	12	37	00	0.637151545535	-0.0681768633358	0.499699176482	-0.5029296875	-0.75537109375	0.41162109375	17.0	13.8125	2.3125
18	12	03	12	37	00	0.635568670015	-0.0659189631822	0.500373759414	-0.51171875	-0.75	0.35888671875	18.4375	11.625	1.875
18	12	03	12	37	00	0.634346890944	-0.0641488100051	0.501654680715	-0.54931640625	-0.689453125	0.38037109375	8.75	10.375	1.1875
18	12	03	12	37	01	0.633870210779	-0.0639668734613	0.503189794671	-0.5546875	-0.7275390625	0.4501953125	-3.25	6.1875	4.8125
18	12	03	12	37	01	0.633496688446	-0.0646375366668	0.503794360385	-0.5341796875	-0.81884765625	0.54833984375	-3.1875	4.5625	4.9375
18	12	03	12	37	01	0.6330729113	-0.0644547815593	0.504346458357	-0.60595703125	-0.84033203125	0.52685546875	2.375	4.1875	4.125
18	12	03	12	37	01	0.633312698053	-0.0629894664987	0.503244332638	-0.63623046875	-0.837890625	0.59423828125	12.25	2.0625	5.0625
18	12	03	12	37	01	0.635150442193	-0.0618914615014	0.501479534217	-0.5166015625	-0.68115234375	0.61279296875	4.25	-1.4375	12.625
18	12	03	12	37	01	0.637145447804	-0.062316840905	0.499267148485	-0.44140625	-0.69384765625	0.66064453125	-1.1875	-4.5	12.8125
18	12	03	12	37	01	0.638611965119	-0.0620118280188	0.496277729942	-0.4658203125	-0.5888671875	0.6796875	3.5	-3.375	3.0
18	12	03	12	37	01	0.640321269762	-0.0617066822733	0.494324846421	-0.4765625	-0.45654296875	0.65185546875	-6.125	-2.1875	2.4375
18	12	03	12	37	01	0.641160999402	-0.0626818035589	0.491750040189	-0.43310546875	-0.58447265625	0.630859375	0.3125	-5.4375	-2.25
18	12	03	12	37	01	0.641362598232	-0.0626836113803	0.488468297835	-0.55126953125	-0.7314453125	0.60009765625	16.875	-8.4375	-6.5625
18	12	03	12	37	01	0.642289060755	-0.0616470542015	0.483288490265	-0.533203125	-0.7021484375	0.6435546875	27.375	-11.6875	-5.875
18	12	03	12	37	01	0.643693068831	-0.0601821890639	0.47828360396	-0.53369140625	-0.64453125	0.64306640625	25.25	-12.0625	-2.1875
18	12	03	12	37	01	0.644956829857	-0.0602415435856	0.475523673835	-0.5458984375	-0.595703125	0.62060546875	6.5625	-10.4375	-1.875
18	12	03	12	37	01	0.645586794002	-0.0624407006017	0.475660195297	-0.552734375	-0.59716796875	0.57763671875	-14.8125	-8.0625	-2.75
18	12	03	12	37	01	0.645927625675	-0.0653068656782	0.47735046399	-0.57958984375	-0.62109375	0.53857421875	-22.9375	-6.8125	-1.1875
18	12	03	12	37	01	0.646441874695	-0.0687275565014	0.479689046665	-0.583984375	-0.64990234375	0.48681640625	-26.4375	-8.5625	1.3125
18	12	03	12	37	01	0.647711685924	-0.0719611833494	0.480656759013	-0.58349609375	-0.65771484375	0.5068359375	-20.9375	-14.3125	3.3125
18	12	03	12	37	01	0.649608007142	-0.0746472416363	0.48206370764	-0.6220703125	-0.63134765625	0.45947265625	-21.875	-16.3125	7.8125
18	12	03	12	37	01	0.652171873914	-0.0778211641778	0.482735362731	-0.61669921875	-0.63623046875	0.47314453125	-22.125	-21.5	10.25
18	12	03	12	37	01	0.655202672086	-0.0814196892933	0.482658847775	-0.55810546875	-0.6455078125	0.4970703125	-22.4375	-23.9375	12.75
18	12	03	12	37	01	0.658197087039	-0.0849601581192	0.482539518743	-0.578125	-0.65380859375	0.49365234375	-21.0625	-24.625	12.125
18	12	03	12	37	01	0.660656998268	-0.0877091746592	0.482919269244	-0.6318359375	-0.67236328125	0.42138671875	-15.4375	-23.3125	10.375
18	12	03	12	37	01	0.663094532685	-0.0891124832216	0.483404703504	-0.65478515625	-0.658203125	0.34521484375	-7.6875	-21.9375	11.6875
18	12	03	12	37	01	0.665475377163	-0.0895397943959	0.483466060947	-0.66455078125	-0.6513671875	0.31298828125	0.4375	-21.25	11.8125
18	12	03	12	37	01	0.668530066837	-0.0894181090035	0.482735716115	-0.66015625	-0.60498046875	0.3359375	2.5625	-23.6875	13.875
18	12	03	12	37	01	0.671930255442	-0.0896598733077	0.481929448358	-0.66455078125	-0.59912109375	0.3955078125	-2.375	-23.875	15.1875
18	12	03	12	37	01	0.675118743852	-0.0900890756645	0.481024393843	-0.6806640625	-0.6640625	0.4267578125	-1.25	-24.125	15.25
18	12	03	12	37	01	0.678604460062	-0.0907003262864	0.478648693633	-0.6103515625	-0.72021484375	0.52099609375	3.375	-24.1875	16.8125
18	12	03	12	37	01	0.682396348386	-0.0893585200391	0.474747656328	-0.5234375	-0.71435546875	0.56494140625	17.625	-19.5	21.875
18	12	03	12	37	01	0.685988492134	-0.0861834461156	0.47071298615	-0.521484375	-0.669921875	0.54931640625	26.5625	-14.3125	22.375
18	12	03	12	37	01	0.688675578203	-0.0819110720507	0.467540098292	-0.54296875	-0.67822265625	0.525390625	31.125	-6.9375	21.25
18	12	03	12	37	01	0.690881033157	-0.07654075586	0.465470338268	-0.6357421875	-0.65234375	0.46875	33.25	-3.4375	19.1875
18	12	03	12	37	01	0.692760465215	-0.0718395654237	0.464729355256	-0.658203125	-0.65283203125	0.4462890625	25.0625	-2.0625	20.375
18	12	03	12	37	01	0.694089580946	-0.0688474364498	0.465147440766	-0.58349609375	-0.68212890625	0.46435546875	13.8125	2.5625	21.375
18	12	03	12	37	01	0.694847781059	-0.0661033157842	0.467239965215	-0.5830078125	-0.69091796875	0.43701171875	6.6875	9.0	23.875
18	12	03	12	37	01	0.695587367227	-0.0598170954618	0.46846551803	-0.66357421875	-0.69384765625	0.3955078125	29.125	12.4375	25.5
18	12	03	12	37	01	0.696966845489	-0.0478520016519	0.466679087539	-0.6962890625	-0.63916015625	0.44921875	63.0625	18.1875	30.6875
18	12	03	12	37	01	0.69811862439	-0.0349120347221	0.463255845351	-0.6669921875	-0.68505859375	0.45654296875	78.75	16.8125	30.625
18	12	03	12	37	01	0.699460945476	-0.0202636155234	0.457457223939	-0.48779296875	-0.61572265625	0.43310546875	96.4375	18.8125	34.8125
18	12	03	12	37	01	0.700612236183	-0.00659169975675	0.45128729631	-0.62109375	-0.4560546875	0.5068359375	85.5	12.125	20.75
18	12	03	12	37	01	0.701063196122	0.0	0.450387021085	-0.63330078125	-0.4658203125	0.478515625	32.5	10.9375	16.125
18	12	03	12	37	01	0.700644935388	0.00738548977977	0.452162878417	-0.72802734375	-0.60400390625	0.4404296875	31.5	21.1875	23.625
18	12	03	12	37	01	0.700753402885	0.0172121295718	0.451665811458	-0.82177734375	-0.52880859375	0.44140625	48.375	14.8125	22.1875
18	12	03	12	37	01	0.702337242841	0.0263674014867	0.448306860925	-0.77099609375	-0.50244140625	0.5361328125	51.9375	3.875	25.8125
18	12	03	12	37	01	0.703916099595	0.0332030138021	0.445677218351	-0.5419921875	-0.40234375	0.5302734375	35.3125	8.75	25.9375
18	12	03	12	37	01	0.703804690252	0.0411992165397	0.444341179866	-0.6240234375	-0.4375	0.53759765625	40.4375	19.25	19.25
18	12	03	12	37	01	0.70211504567	0.0484027845968	0.44368201921	-0.654296875	-0.546875	0.55810546875	43.375	22.6875	11.25
18	12	03	12	37	01	0.699574863601	0.0574942873418	0.442742633097	-0.70849609375	-0.576171875	0.501953125	57.875	24.9375	9.75
18	12	03	12	37	02	0.696828718371	0.0668325695556	0.441827370788	-0.6875	-0.51416015625	0.466796875	57.5625	25.5	8.0
18	12	03	12	37	02	0.693033577393	0.0823412274004	0.442408610969	-0.75537109375	-0.37890625	0.5673828125	27.5	22.3125	6.4375
18	12	03	12	37	02	0.691476483937	0.0877086863287	0.441900409895	-0.69140625	-0.4619140625	0.63037109375	29.75	21.25	7.5625
18	12	03	12	37	02	0.689836814942	0.0947289627314	0.439952553716	-0.693359375	-0.4072265625	0.7353515625	38.9375	25.6875	6.625
18	12	03	12	37	02	0.687760790689	0.101137702358	0.438304067975	-0.73291015625	-0.37060546875	0.79931640625	33.875	27.875	-0.4375
18	12	03	12	37	02	0.684918638408	0.104437731959	0.437893798408	-0.68896484375	-0.44677734375	0.81640625	21.8125	26.9375	-7.8125
18	12	03	12	37	02	0.681967224102	0.108707028204	0.436354039659	-0.58349609375	-0.43505859375	0.81884765625	31.3125	30.25	-5.5625
18	12	03	12	37	02	0.677519165834	0.116521088971	0.434527832574	-0.5947265625	-0.3896484375	0.73193359375	50.3125	39.0625	-8.625
18	12	03	12	37	02	0.669926195018	0.126282552614	0.435549683641	-0.8466796875	-0.421875	0.625	56.6875	48.5	-23.5
18	12	03	12	37	02	0.662912504061	0.133852050585	0.43689602284	-0.71875	-0.42333984375	0.65185546875	44.4375	48.875	-21.0625
18	12	03	12	37	02	0.655345016934	0.14331285273	0.439399159626	-0.80322265625	-0.41650390625	0.53369140625	48.25	52.8125	-17.875
18	12	03	12	37	02	0.647289023155	0.152590528796	0.440376266107	-0.89208984375	-0.3798828125	0.56982421875	54.3125	45.5625	-27.3125
18	12	03	12	37	02	0.640039883538	0.158514550596	0.441301579056	-0.67041015625	-0.41357421875	0.60693359375	40.9375	43.25	-25.125
18	12	03	12	37	02	0.631725130466	0.165896512523	0.442634845038	-0.75537109375	-0.4501953125	0.5634765625	48.6875	47.5	-26.125
18	12	03	12	37	02	0.622191522893	0.17236304303	0.444396358464	-0.82470703125	-0.509765625	0.54345703125	49.6875	44.5	-35.125
18	12	03	12	37	02	0.612572992829	0.179572513442	0.446978081555	-0.8603515625	-0.4736328125	0.45361328125	47.5625	45.625	-33.4375
18	12	03	12	37	02	0.605041660556	0.18554692304	0.44873058493	-0.84521484375	-0.43359375	0.46044921875	38.4375	36.25	-25.375
18	12	03	12	37	02	0.596873357037	0.191897927654	0.450691570545	-0.84375	-0.46533203125	0.3818359375	43.0625	36.0625	-25.625
18	12	03	12	37	02	0.589129064672	0.198858525974	0.450941310588	-0.904296875	-0.396484375	0.427734375	47.75	31.75	-27.1875
18	12	03	12	37	02	0.582917297633	0.204295727244	0.450036569157	-0.89794921875	-0.37744140625	0.4443359375	43.4375	20.0625	-24.125
18	12	03	12	37	02	0.577572741253	0.208433996764	0.448056799486	-0.79638671875	-0.390625	0.49365234375	42.1875	15.5625	-20.4375
18	12	03	12	37	02	0.572274583267	0.212283596481	0.445197398715	-0.80078125	-0.40771484375	0.51806640625	45.625	11.75	-21.0
18	12	03	12	37	02	0.567210231039	0.215885353189	0.442268948037	-0.78271484375	-0.37158203125	0.5185546875	43.4375	10.9375	-21.4375
18	12	03	12	37	02	0.561792053358	0.2173556608	0.441120292223	-0.75390625	-0.408203125	0.5185546875	30.625	10.5625	-26.875
18	12	03	12	37	02	0.556155521963	0.217164326947	0.4416529145	-0.79052734375	-0.4697265625	0.53662109375	19.1875	10.625	-30.5625
18	12	03	12	37	02	0.550709404294	0.217097789103	0.442129992764	-0.77294921875	-0.4072265625	0.5869140625	15.5	13.75	-32.25
18	12	03	12	37	02	0.544375752637	0.217286431145	0.44238540813	-0.7646484375	-0.4404296875	0.552734375	21.5	14.125	-35.25
18	12	03	12	37	02	0.536761850591	0.218757615706	0.4420930275	-0.78125	-0.42431640625	0.47021484375	32.875	14.25	-40.625
18	12	03	12	37	02	0.529743154346	0.219673420036	0.441849371392	-0.771484375	-0.36767578125	0.47412109375	26.6875	12.0625	-41.8125
18	12	03	12	37	02	0.522773832192	0.219973951106	0.441412767591	-0.7763671875	-0.3857421875	0.51904296875	25.375	10.5	-43.0
18	12	03	12	37	02	0.514669040169	0.220467809902	0.440325243807	-0.7802734375	-0.45849609375	0.54931640625	34.0625	12.0625	-46.125
18	12	03	12	37	02	0.505254315324	0.224123441154	0.437870797069	-0.85498046875	-0.42626953125	0.494140625	52.0625	17.625	-47.8125
18	12	03	12	37	02	0.497073332701	0.227479409501	0.434572952951	-0.84521484375	-0.3994140625	0.50830078125	51.0625	12.1875	-42.4375
18	12	03	12	37	02	0.48902688533	0.229437351717	0.432750950698	-0.7978515625	-0.49609375	0.466796875	43.4375	10.3125	-38.875
18	12	03	12	37	02	0.48108729642	0.231510291211	0.430122072808	-0.72412109375	-0.423828125	0.49853515625	43.8125	12.5	-40.0
18	12	03	12	37	02	0.473261075362	0.234128125495	0.430170758209	-0.7626953125	-0.3583984375	0.3896484375	29.6875	17.25	-41.125
18	12	03	12	37	02	0.465159222509	0.23602817392	0.431467070452	-0.81396484375	-0.4404296875	0.3525390625	25.4375	15.4375	-42.125
18	12	03	12	37	02	0.456736362306	0.23779832521	0.431345165364	-0.81005859375	-0.57470703125	0.365234375	38.125	11.25	-37.5
18	12	03	12	37	02	0.448501109908	0.241157850469	0.426283580784	-0.74462890625	-0.51513671875	0.42431640625	64.6875	6.9375	-32.9375
18	12	03	12	37	02	0.440918423736	0.246948497015	0.419250920909	-0.83837890625	-0.4169921875	0.4208984375	74.8125	7.1875	-28.375
18	12	03	12	37	02	0.434268569654	0.252138223646	0.412906096094	-0.7939453125	-0.32373046875	0.42626953125	62.9375	6.9375	-27.3125
18	12	03	12	37	02	0.426522527019	0.257024379118	0.406624652977	-0.83349609375	-0.47705078125	0.41748046875	71.4375	5.3125	-27.25
18	12	03	12	37	02	0.418644669642	0.263125407614	0.398014563455	-0.8330078125	-0.38818359375	0.46630859375	81.9375	6.6875	-27.375
18	12	03	12	37	02	0.411328641007	0.26807469822	0.391796786856	-0.814453125	-0.3837890625	0.4765625	64.4375	8.875	-27.25
18	12	03	12	37	02	0.404043927657	0.273126371037	0.388053065264	-0.86572265625	-0.42724609375	0.4306640625	53.3125	12.75	-26.0
18	12	03	12	37	02	0.397156002141	0.278076340211	0.385193104274	-0.88134765625	-0.4248046875	0.39501953125	47.6875	12.6875	-24.5
18	12	03	12	37	02	0.391544246832	0.282412350755	0.382022672007	-0.84375	-0.388671875	0.44677734375	42.5	10.875	-19.5
18	12	03	12	37	02	0.3861791049	0.286078941784	0.378915739406	-0.80224609375	-0.3984375	0.49365234375	39.3125	11.6875	-18.0
18	12	03	12	37	02	0.380324115811	0.289927708249	0.375624235066	-0.765625	-0.3876953125	0.52294921875	40.5625	15.6875	-19.25
18	12	03	12	37	02	0.373473181274	0.294127677817	0.372435586229	-0.77783203125	-0.421875	0.50732421875	44.625	18.125	-22.3125
18	12	03	12	37	02	0.365546427086	0.299077891588	0.369635859481	-0.82666015625	-0.47998046875	0.45947265625	49.8125	20.5	-24.0625
18	12	03	12	37	03	0.358395972193	0.30456333468	0.365964279507	-0.83837890625	-0.38134765625	0.45703125	49.3125	19.625	-22.5
18	12	03	12	37	03	0.351998496485	0.309272824985	0.362924061054	-0.8251953125	-0.37744140625	0.4990234375	41.4375	19.4375	-20.5625
18	12	03	12	37	03	0.343938251728	0.313847469456	0.359807629802	-0.837890625	-0.43505859375	0.49560546875	48.1875	20.3125	-27.125
18	12	03	12	37	03	0.335823505874	0.318550141249	0.356575958072	-0.7802734375	-0.4013671875	0.47998046875	48.125	22.4375	-26.625
18	12	03	12	37	03	0.327462461283	0.323372995317	0.354013471657	-0.8154296875	-0.44677734375	0.4677734375	46.6875	23.625	-26.6875
18	12	03	12	37	03	0.318787349078	0.328614031675	0.350525702806	-0.84814453125	-0.41357421875	0.48486328125	51.125	24.25	-28.3125
18	12	03	12	37	03	0.3108473893	0.33391833239	0.345514838176	-0.83935546875	-0.37548828125	0.49365234375	55.875	20.5	-23.9375
18	12	03	12	37	03	0.301951481122	0.339611489987	0.339428378112	-0.8701171875	-0.388671875	0.48779296875	65.1875	20.125	-26.125
18	12	03	12	37	03	0.292850782795	0.344059996377	0.333561802412	-0.84765625	-0.41015625	0.54150390625	62.8125	17.625	-28.375
18	12	03	12	37	03	0.283932414952	0.347469311763	0.327877242717	-0.830078125	-0.42431640625	0.568359375	59.875	14.75	-28.75
18	12	03	12	37	03	0.27526645099	0.350522223511	0.321713849927	-0.83935546875	-0.3994140625	0.61328125	59.6875	13.4375	-28.6875
18	12	03	12	37	03	0.266239992335	0.35260624386	0.315801403104	-0.7490234375	-0.38671875	0.654296875	56.8125	14.4375	-31.625
18	12	03	12	37	03	0.256785174991	0.354018068683	0.311230712451	-0.70703125	-0.421875	0.65478515625	51.25	16.0625	-34.375
18	12	03	12	37	03	0.245663408829	0.356501856142	0.307186071214	-0.72607421875	-0.4580078125	0.54931640625	57.25	18.9375	-40.1875
18	12	03	12	37	03	0.234620900056	0.359560801829	0.302553538392	-0.78076171875	-0.40576171875	0.51806640625	58.5625	17.375	-41.375
18	12	03	12	37	03	0.223810664094	0.362296182727	0.298760076558	-0.83349609375	-0.3984375	0.48046875	53.5	13.25	-43.625
18	12	03	12	37	03	0.213681842819	0.364131926381	0.294796715458	-0.8525390625	-0.3623046875	0.5205078125	49.6875	8.5625	-44.1875
18	12	03	12	37	03	0.204286334622	0.365176319105	0.291567320135	-0.787109375	-0.32177734375	0.529296875	41.3125	7.3125	-44.0625
18	12	03	12	37	03	0.194946539976	0.366333479316	0.289123907284	-0.82861328125	-0.34814453125	0.51708984375	37.9375	7.5	-44.125
18	12	03	12	37	03	0.18591420585	0.367372818454	0.287538353171	-0.83203125	-0.35302734375	0.5185546875	32.3125	8.0625	-44.8125
18	12	03	12	37	03	0.177246217885	0.368164320346	0.286499224089	-0.82861328125	-0.3720703125	0.48876953125	29.125	5.8125	-43.5625
18	12	03	12	37	03	0.168820351137	0.368462928349	0.285334469112	-0.8203125	-0.37353515625	0.52978515625	27.9375	4.9375	-43.0
18	12	03	12	37	03	0.16070883108	0.369026051162	0.285101006447	-0.83056640625	-0.36767578125	0.50634765625	22.375	5.75	-43.3125
18	12	03	12	37	03	0.153074369907	0.370356968339	0.283932204468	-0.86083984375	-0.35009765625	0.4921875	25.75	6.875	-39.6875
18	12	03	12	37	03	0.1461787908	0.371642028052	0.281920599043	-0.85302734375	-0.34326171875	0.505859375	27.5625	5.0625	-34.75
18	12	03	12	37	03	0.139095682289	0.372427316072	0.279412037525	-0.86181640625	-0.39892578125	0.521484375	32.6875	2.1875	-32.9375
18	12	03	12	37	03	0.132388784677	0.37354511859	0.276435595113	-0.83740234375	-0.36279296875	0.54833984375	32.125	5.375	-31.0
18	12	03	12	37	03	0.126341347116	0.374934732045	0.27477717136	-0.82763671875	-0.3701171875	0.51513671875	24.375	6.9375	-28.8125
18	12	03	12	37	03	0.120484068555	0.377016257073	0.273927304799	-0.86474609375	-0.42626953125	0.44970703125	22.875	7.1875	-26.3125
18	12	03	12	37	03	0.115359539968	0.378855378085	0.272163062813	-0.8349609375	-0.3935546875	0.458984375	25.0625	5.375	-22.375
18	12	03	12	37	03	0.110349685298	0.380242554982	0.270259074392	-0.77978515625	-0.3603515625	0.46484375	23.875	4.75	-22.375
18	12	03	12	37	03	0.105162186811	0.381159522133	0.269039419305	-0.73291015625	-0.33056640625	0.49609375	18.25	7.0	-25.75
18	12	03	12	37	03	0.099731786006	0.381898277258	0.268616640277	-0.7431640625	-0.36181640625	0.46728515625	16.5625	4.8125	-27.75
18	12	03	12	37	03	0.0938115148121	0.382204102637	0.266908102975	-0.74462890625	-0.3818359375	0.5009765625	24.1875	3.3125	-27.6875
18	12	03	12	37	03	0.0875215759018	0.382861119688	0.263968490778	-0.771484375	-0.36279296875	0.4755859375	32.0	2.0	-28.3125
18	12	03	12	37	03	0.0804452826386	0.383366327961	0.260440076646	-0.81640625	-0.3984375	0.50146484375	37.75	0.6875	-30.5
18	12	03	12	37	03	0.0730604780122	0.382392560356	0.256962917653	-0.71728515625	-0.3701171875	0.6005859375	34.5	1.1875	-33.6875
18	12	03	12	37	03	0.0668929147382	0.381948777766	0.256280427906	-0.7138671875	-0.3505859375	0.54931640625	16.625	3.125	-33.8125
18	12	03	12	37	03	0.0603013063562	0.382315164995	0.256524686858	-0.76025390625	-0.38818359375	0.48974609375	15.3125	4.875	-35.75
18	12	03	12	37	03	0.0534052095361	0.382503369329	0.256467074824	-0.720703125	-0.3955078125	0.49658203125	17.4375	5.4375	-36.3125
18	12	03	12	37	03	0.0460205169845	0.38378913899	0.255310109478	-0.84228515625	-0.44873046875	0.44091796875	28.0625	4.375	-35.625
18	12	03	12	37	03	0.0378408192743	0.384877752167	0.251031112379	-0.8544921875	-0.4580078125	0.51806640625	44.75	4.75	-33.4375
18	12	03	12	37	03	0.0308835082266	0.385860749029	0.247373238819	-0.7939453125	-0.3857421875	0.53125	35.6875	6.0	-30.3125
18	12	03	12	37	03	0.0243535055086	0.387397743016	0.244938891244	-0.83642578125	-0.42529296875	0.5341796875	28.9375	8.4375	-29.4375
18	12	03	12	37	03	0.0187989759274	0.389956679221	0.243837366331	-0.8427734375	-0.41748046875	0.4638671875	20.3125	10.8125	-26.3125
18	12	03	12	37	03	0.0142213118269	0.392581449231	0.242372657788	-0.87109375	-0.39990234375	0.46240234375	19.5625	8.6875	-22.375
18	12	03	12	37	03	0.0106808612889	0.393421896391	0.241753666088	-0.8154296875	-0.4140625	0.5244140625	12.375	2.625	-19.125
18	12	03	12	37	03	0.00616458021078	0.391603432003	0.240723805458	-0.45166015625	-0.36083984375	0.74462890625	9.3125	12.75	-19.0
18	12	03	12	37	03	0.00146485133797	0.391420484601	0.240418725845	-0.4287109375	-0.29296875	0.64111328125	5.1875	18.9375	-21.9375
18	12	03	12	37	03	-0.00646941950575	0.394817686629	0.236500005517	-0.77880859375	-0.49560546875	0.50634765625	41.8125	22.4375	-25.8125
18	12	03	12	37	04	-0.0190422758047	0.402939438662	0.229300737815	-0.79833984375	-0.52734375	0.29443359375	74.5	45.5625	-34.625
18	12	03	12	37	04	-0.0258790359658	0.411928334277	0.223267720668	-0.919921875	-0.30908203125	0.2470703125	46.4375	37.875	-21.0
18	12	03	12	37	04	-0.0285026974879	0.418873689206	0.22338302528	-1.1025390625	-0.50390625	0.25634765625	12.375	16.75	-12.0625
18	12	03	12	37	04	-0.0297853332302	0.42163336466	0.227479378993	-0.72119140625	-0.43896484375	0.28125	-12.9375	7.75	-12.125
18	12	03	12	37	04	-0.0302739478868	0.424689777008	0.228275332856	-0.80517578125	-0.40087890625	0.28564453125	0.625	4.25	-4.1875
18	12	03	12	37	04	-0.0327759908722	0.426209952068	0.225830849585	-0.8017578125	-0.466796875	0.369140625	24.3125	0.5625	-4.6875
18	12	03	12	37	04	-0.038512294165	0.42687002439	0.218683914411	-0.7822265625	-0.5537109375	0.42333984375	59.9375	1.0625	-4.6875
18	12	03	12	37	04	-0.0469969695556	0.426451722448	0.204040089902	-0.85986328125	-0.5185546875	0.47998046875	100.1875	1.4375	-6.125
18	12	03	12	37	04	-0.0562755383876	0.426888411587	0.187931000754	-0.83544921875	-0.359375	0.54150390625	107.0625	9.3125	-7.125
18	12	03	12	37	04	-0.0632309472087	0.427907500849	0.174800610816	-0.8388671875	-0.255859375	0.62744140625	79.1875	11.3125	-9.5
18	12	03	12	37	04	-0.0698223707029	0.42876062429	0.16887980746	-0.78759765625	-0.3544921875	0.64599609375	44.125	14.0	-19.5625
18	12	03	12	37	04	-0.0762311457894	0.430776162515	0.166377985126	-0.79638671875	-0.42724609375	0.61328125	28.3125	19.75	-23.0625
18	12	03	12	37	04	-0.0826389111168	0.433030335579	0.162653395957	-0.79296875	-0.39599609375	0.60791015625	33.1875	21.0625	-20.9375
18	12	03	12	37	04	-0.0894744235915	0.435592742955	0.156732823863	-0.82666015625	-0.3515625	0.56298828125	44.875	20.4375	-20.125
18	12	03	12	37	04	-0.0968596146482	0.437485644486	0.149287093528	-0.814453125	-0.3232421875	0.5693359375	53.6875	18.0625	-20.625
18	12	03	12	37	04	-0.104364890043	0.43857666658	0.142021695398	-0.80078125	-0.29443359375	0.58251953125	52.5625	14.5	-22.625
18	12	03	12	37	04	-0.111939033475	0.438967027671	0.134949401861	-0.798828125	-0.3076171875	0.6005859375	52.875	11.25	-23.0625
18	12	03	12	37	04	-0.119752236389	0.438603247039	0.129273820934	-0.76416015625	-0.3349609375	0.63818359375	47.1875	10.0	-25.875
18	12	03	12	37	04	-0.127558375716	0.438886258266	0.124384674502	-0.798828125	-0.3447265625	0.59814453125	43.8125	10.3125	-27.875
18	12	03	12	37	04	-0.135067426848	0.438709744321	0.119931086198	-0.7978515625	-0.36865234375	0.6162109375	41.9375	8.0	-26.5625
18	12	03	12	37	04	-0.142574175305	0.438098215043	0.115658417039	-0.74755859375	-0.375	0.62646484375	41.75	7.625	-25.5625
18	12	03	12	37	04	-0.15020337779	0.438403438711	0.110775754039	-0.78515625	-0.341796875	0.59521484375	43.6875	10.875	-26.9375
18	12	03	12	37	04	-0.156979378638	0.439078401991	0.106809452806	-0.765625	-0.30224609375	0.58154296875	34.8125	12.125	-26.8125
18	12	03	12	37	04	-0.163813504885	0.440477669433	0.10436702435	-0.78466796875	-0.318359375	0.51123046875	28.75	11.25	-30.1875
18	12	03	12	37	04	-0.171568425142	0.442135066428	0.101073394534	-0.857421875	-0.3505859375	0.48876953125	36.5	11.0625	-33.25
18	12	03	12	37	04	-0.17889774978	0.442453015406	0.0983296741371	-0.701171875	-0.32568359375	0.515625	32.625	9.5	-30.5
18	12	03	12	37	04	-0.186706850396	0.445496339014	0.0939332601373	-0.869140625	-0.34765625	0.39501953125	42.25	15.875	-31.125
18	12	03	12	37	04	-0.193727341458	0.447452785201	0.0906380283758	-0.86376953125	-0.29833984375	0.45068359375	32.5	10.625	-32.625
18	12	03	12	37	04	-0.200498660213	0.447810858443	0.089476723249	-0.76806640625	-0.380859375	0.46923828125	26.625	3.75	-30.5625
18	12	03	12	37	04	-0.209224935763	0.447441074702	0.0861191319608	-0.68310546875	-0.35107421875	0.50390625	41.0625	8.3125	-34.4375
18	12	03	12	37	04	-0.217762109009	0.447791646243	0.081050471066	-0.6689453125	-0.22265625	0.4619140625	44.0625	13.0625	-35.8125
18	12	03	12	37	04	-0.228212066647	0.450503681176	0.0747685963204	-0.818359375	-0.302734375	0.3779296875	56.125	21.4375	-42.125
18	12	03	12	37	04	-0.239190982432	0.452747820281	0.0697614934728	-0.916015625	-0.37744140625	0.39794921875	54.125	15.125	-47.625
18	12	03	12	37	04	-0.248894841137	0.45482205889	0.0639631666286	-0.90283203125	-0.4462890625	0.40576171875	57.8125	15.3125	-34.6875
18	12	03	12	37	04	-0.25792732125	0.456774271708	0.0569442003612	-0.91259765625	-0.3798828125	0.447265625	58.75	17.75	-31.1875
18	12	03	12	37	04	-0.265006568113	0.459275546994	0.0513290013318	-0.974609375	-0.32275390625	0.4912109375	42.5	17.875	-29.3125
18	12	03	12	37	04	-0.272333112384	0.461538098577	0.04656884015	-0.859375	-0.3271484375	0.5673828125	37.875	24.5	-29.9375
18	12	03	12	37	04	-0.278745704002	0.465267900505	0.0427853598654	-0.87255859375	-0.29052734375	0.56982421875	26.375	31.9375	-31.25
18	12	03	12	37	04	-0.285339316139	0.470397884381	0.0396728460942	-0.93994140625	-0.390625	0.4794921875	27.125	33.3125	-31.25
18	12	03	12	37	04	-0.291388913538	0.474254683324	0.0362557634355	-0.88037109375	-0.3583984375	0.474609375	28.0	28.25	-27.3125
18	12	03	12	37	04	-0.29730007756	0.476620058646	0.0314328761945	-0.82373046875	-0.29248046875	0.537109375	32.625	26.9375	-23.5
18	12	03	12	37	04	-0.303400871704	0.478263776036	0.026488830883	-0.75	-0.25146484375	0.56884765625	33.0	27.9375	-24.125
18	12	03	12	37	04	-0.310240055191	0.479977925246	0.021606330816	-0.7978515625	-0.28662109375	0.5390625	36.5	26.1875	-27.875
18	12	03	12	37	04	-0.318240791971	0.482366125612	0.0175783176232	-0.86669921875	-0.37548828125	0.48193359375	38.6875	24.9375	-34.0625
18	12	03	12	37	04	-0.327083296091	0.48369754087	0.0142210128735	-0.83740234375	-0.4306640625	0.4990234375	41.3125	20.6875	-36.25
18	12	03	12	37	04	-0.335380215712	0.486316571209	0.00909402222768	-0.87744140625	-0.41650390625	0.443359375	46.5	27.75	-31.5
18	12	03	12	37	04	-0.342336342389	0.488389269352	0.00585920643061	-0.876953125	-0.37353515625	0.49365234375	31.5625	22.625	-32.125
18	12	03	12	37	04	-0.34947506773	0.490156176901	0.00445541039893	-0.79638671875	-0.3984375	0.47900390625	25.5625	19.9375	-34.8125
18	12	03	12	37	04	-0.35539634027	0.49204968148	0.00335682615746	-0.82080078125	-0.35400390625	0.49072265625	18.25	18.75	-32.5625
18	12	03	12	37	04	-0.361509803612	0.493467290597	0.00183104746047	-0.82666015625	-0.3525390625	0.45703125	22.4375	15.25	-32.5625
18	12	03	12	37	05	-0.36772247891	0.494487555872	-0.000732393318991	-0.84130859375	-0.32958984375	0.41357421875	28.1875	12.5	-31.4375
18	12	03	12	37	05	-0.374187789823	0.493810700939	-0.00366192585049	-0.830078125	-0.31591796875	0.47119140625	32.3125	6.3125	-30.5625
18	12	03	12	37	05	-0.381761467319	0.49290257555	-0.00653053189498	-0.7626953125	-0.3408203125	0.46142578125	36.375	8.3125	-33.75
18	12	03	12	37	05	-0.389410734993	0.493172216104	-0.00988785878822	-0.83837890625	-0.3349609375	0.38134765625	38.4375	9.9375	-37.0625
18	12	03	12	37	05	-0.397312844082	0.493803106216	-0.0131827303105	-0.86083984375	-0.388671875	0.34228515625	41.0	9.875	-37.3125
18	12	03	12	37	05	-0.405568719527	0.493396166841	-0.0173335615268	-0.88720703125	-0.41455078125	0.3974609375	47.375	8.4375	-35.3125
18	12	03	12	37	05	-0.412832616356	0.492603791633	-0.0217890662388	-0.8857421875	-0.3701171875	0.4677734375	43.1875	9.375	-30.5
18	12	03	12	37	05	-0.419851506367	0.492237592506	-0.0260614323621	-0.93701171875	-0.4013671875	0.46533203125	42.25	9.1875	-30.4375
18	12	03	12	37	05	-0.426274388957	0.491521714529	-0.0288089220486	-0.8681640625	-0.38427734375	0.49951171875	32.8125	7.375	-30.25
18	12	03	12	37	05	-0.432654984847	0.490879396688	-0.0293563334337	-0.78466796875	-0.4248046875	0.53271484375	23.6875	6.6875	-32.0625
18	12	03	12	37	05	-0.43913929119	0.4907129814	-0.0307611122668	-0.7724609375	-0.42333984375	0.50634765625	26.9375	11.1875	-31.4375
18	12	03	12	37	05	-0.446385187944	0.491182388922	-0.0326519107944	-0.78857421875	-0.4189453125	0.45166015625	31.0	14.4375	-36.6875
18	12	03	12	37	05	-0.453353210617	0.49131574387	-0.0357653448333	-0.82177734375	-0.375	0.4541015625	34.3125	14.1875	-35.25
18	12	03	12	37	05	-0.459413086951	0.491273540171	-0.0391846953397	-0.794921875	-0.294921875	0.45361328125	30.375	14.1875	-32.5
18	12	03	12	37	05	-0.465979026508	0.49112419467	-0.0432716607458	-0.884765625	-0.33154296875	0.44677734375	36.75	12.4375	-34.3125
18	12	03	12	37	05	-0.473025677768	0.48968838874	-0.0482181013467	-0.84521484375	-0.3037109375	0.44873046875	43.9375	9.75	-32.875
18	12	03	12	37	05	-0.480503005515	0.488009911355	-0.0526704043896	-0.78564453125	-0.3251953125	0.4443359375	44.8125	9.5625	-33.625
18	12	03	12	37	05	-0.488219034471	0.486510054228	-0.0570066981118	-0.810546875	-0.38037109375	0.439453125	46.625	9.6875	-34.3125
18	12	03	12	37	05	-0.496386354268	0.485095136324	-0.0603012071827	-0.77490234375	-0.4365234375	0.46240234375	45.0625	10.4375	-36.375
18	12	03	12	37	05	-0.504810281582	0.484486037383	-0.0638413196149	-0.8046875	-0.4951171875	0.40673828125	48.5625	12.625	-37.1875
18	12	03	12	37	05	-0.512149069736	0.483950658317	-0.0667728616722	-0.8076171875	-0.49365234375	0.46142578125	40.875	12.625	-33.4375
18	12	03	12	37	05	-0.518853451959	0.483026257946	-0.0681754271072	-0.76806640625	-0.48193359375	0.5537109375	30.75	10.6875	-32.25
18	12	03	12	37	05	-0.52567759085	0.482099998853	-0.0689673374736	-0.779296875	-0.52197265625	0.5888671875	28.5625	10.5	-33.5
18	12	03	12	37	05	-0.533256305457	0.480644775721	-0.0693959504755	-0.74365234375	-0.50341796875	0.587890625	30.5	8.9375	-38.6875
18	12	03	12	37	05	-0.541117586873	0.479169205339	-0.0698826570008	-0.77978515625	-0.48583984375	0.56787109375	31.3125	7.0	-43.125
18	12	03	12	37	05	-0.547893716106	0.477034341661	-0.0693945811756	-0.7001953125	-0.4228515625	0.61328125	22.3125	2.6875	-38.6875
18	12	03	12	37	05	-0.554740745274	0.474114436053	-0.0702504783596	-0.76220703125	-0.36865234375	0.6513671875	26.9375	2.5625	-38.6875
18	12	03	12	37	05	-0.561184923236	0.472506109374	-0.0725664898018	-0.8212890625	-0.318359375	0.5478515625	28.875	7.0	-41.25
18	12	03	12	37	05	-0.567490449206	0.471362523039	-0.0748882320043	-0.8525390625	-0.361328125	0.48095703125	30.625	4.6875	-40.75
18	12	03	12	37	05	-0.573278696543	0.469950597613	-0.0762906814307	-0.71728515625	-0.34716796875	0.47607421875	25.9375	4.3125	-35.875
18	12	03	12	37	05	-0.577994869244	0.469536909092	-0.0765980528935	-0.73046875	-0.34326171875	0.46923828125	15.625	2.9375	-35.125
18	12	03	12	37	05	-0.583610007921	0.469781032312	-0.0787952855287	-0.892578125	-0.453125	0.3701171875	30.625	4.25	-38.75
18	12	03	12	37	05	-0.588488536541	0.469655599324	-0.0793440258767	-0.716796875	-0.38623046875	0.42919921875	18.75	4.9375	-35.0625
18	12	03	12	37	05	-0.594147159402	0.468726264428	-0.0813557435524	-0.76513671875	-0.45166015625	0.45166015625	30.8125	6.1875	-33.25
18	12	03	12	37	05	-0.598793347268	0.468854397484	-0.084713603711	-0.85400390625	-0.423828125	0.43701171875	28.9375	11.5625	-30.875
18	12	03	12	37	05	-0.60417783328	0.468803913266	-0.0877061871323	-0.77490234375	-0.4384765625	0.4794921875	30.0	16.0625	-33.375
18	12	03	12	37	05	-0.608932240179	0.469348394004	-0.092099704363	-0.76904296875	-0.416015625	0.42333984375	32.0	21.625	-29.375
18	12	03	12	37	05	-0.613147849248	0.470694426976	-0.0963727308344	-0.7978515625	-0.4140625	0.40625	27.5625	22.75	-29.5
18	12	03	12	37	05	-0.618094045045	0.471672833032	-0.100584475781	-0.82666015625	-0.458984375	0.43505859375	31.6875	23.125	-32.75
18	12	03	12	37	05	-0.622177472637	0.473072159153	-0.10369624544	-0.78125	-0.42236328125	0.43505859375	21.8125	21.8125	-31.3125
18	12	03	12	37	05	-0.627237535388	0.473495066609	-0.107967617019	-0.822265625	-0.45263671875	0.4052734375	34.5	20.3125	-32.875
18	12	03	12	37	05	-0.632125826943	0.473560325505	-0.112607140167	-0.7919921875	-0.44091796875	0.3896484375	36.5625	20.1875	-30.0625
18	12	03	12	37	05	-0.636814452536	0.472697712756	-0.117731941628	-0.80615234375	-0.419921875	0.40966796875	38.75	17.75	-25.8125
18	12	03	12	37	05	-0.642376854219	0.47032361412	-0.123958896999	-0.8779296875	-0.46240234375	0.43017578125	51.9375	14.375	-25.5
18	12	03	12	37	05	-0.648366972567	0.466729006799	-0.12859919149	-0.78564453125	-0.455078125	0.49658203125	49.5	8.875	-24.75
18	12	03	12	37	05	-0.654629496353	0.462500682768	-0.133538069926	-0.7548828125	-0.43505859375	0.5595703125	51.4375	11.9375	-24.1875
18	12	03	12	37	05	-0.659510537681	0.461034851161	-0.13811515332	-0.88525390625	-0.47021484375	0.4755859375	40.5	13.3125	-27.9375
18	12	03	12	37	05	-0.663983104086	0.459093750247	-0.141353513104	-0.787109375	-0.4619140625	0.53759765625	33.75	10.875	-22.875
18	12	03	12	37	05	-0.668136178678	0.456654324369	-0.146114735704	-0.8359375	-0.46142578125	0.52099609375	40.5	12.125	-17.75
18	12	03	12	37	05	-0.670990580354	0.455424023158	-0.148980171607	-0.765625	-0.37255859375	0.56494140625	20.25	12.125	-17.75
18	12	03	12	37	06	-0.673433308824	0.455241893286	-0.150750432554	-0.74853515625	-0.4267578125	0.60205078125	13.0625	14.375	-17.5625
18	12	03	12	37	06	-0.675134600631	0.457189775206	-0.149528093613	-0.611328125	-0.42431640625	0.64599609375	-8.5	17.9375	-21.0625
18	12	03	12	37	06	-0.677713234934	0.459031091493	-0.149226302181	-0.701171875	-0.490234375	0.599609375	1.5625	18.3125	-26.375
18	12	03	12	37	06	-0.681514657579	0.459408994053	-0.151671495977	-0.78125	-0.4892578125	0.5419921875	21.8125	20.0625	-28.9375
18	12	03	12	37	06	-0.686433902047	0.457683633987	-0.154961827803	-0.76513671875	-0.4619140625	0.517578125	35.6875	15.25	-29.0
18	12	03	12	37	06	-0.691694818737	0.455372367651	-0.158321394141	-0.7080078125	-0.50146484375	0.48779296875	41.375	14.0	-25.9375
18	12	03	12	37	06	-0.69612846618	0.453466114652	-0.161306990717	-0.7578125	-0.4521484375	0.5068359375	33.375	11.4375	-26.0625
18	12	03	12	37	06	-0.699445813477	0.452869802443	-0.162227484487	-0.736328125	-0.4189453125	0.56103515625	15.375	9.625	-27.0625
18	12	03	12	37	06	-0.702580109487	0.452639570147	-0.163331107027	-0.791015625	-0.4140625	0.568359375	13.25	10.5625	-29.0
18	12	03	12	37	06	-0.704812547734	0.453416385271	-0.164301643445	-0.80322265625	-0.37939453125	0.5390625	5.5625	10.8125	-28.625
18	12	03	12	37	06	-0.707602847769	0.452978121109	-0.166250660456	-0.7998046875	-0.42822265625	0.51171875	17.75	9.5	-24.5
18	12	03	12	37	06	-0.710140293013	0.452573293742	-0.168150967533	-0.798828125	-0.45068359375	0.47705078125	18.6875	7.4375	-21.6875
18	12	03	12	37	06	-0.713555133659	0.450740284157	-0.170103340818	-0.69482421875	-0.474609375	0.46875	28.0	6.0625	-18.25
18	12	03	12	37	06	-0.716287923439	0.449755087579	-0.173578975312	-0.806640625	-0.48095703125	0.3837890625	30.375	8.0625	-18.0625
18	12	03	12	37	06	-0.718601307431	0.449751404319	-0.175164409065	-0.82470703125	-0.44189453125	0.3935546875	18.125	2.5	-23.75
18	12	03	12	37	06	-0.720076917381	0.450734703751	-0.174556703145	-0.70556640625	-0.48779296875	0.48193359375	2.9375	3.4375	-18.125
18	12	03	12	37	06	-0.72109747276	0.45286019872	-0.173026774039	-0.69287109375	-0.50927734375	0.50244140625	-5.8125	4.9375	-19.3125
18	12	03	12	37	06	-0.72226814147	0.454576061997	-0.172846322177	-0.80517578125	-0.5439453125	0.4892578125	1.875	5.375	-19.875
18	12	03	12	37	06	-0.724269239261	0.45383551556	-0.173026316112	-0.75390625	-0.47265625	0.60009765625	8.0625	4.125	-16.9375
18	12	03	12	37	06	-0.727146324463	0.451521613931	-0.173882816719	-0.70263671875	-0.4267578125	0.6435546875	15.6875	5.75	-17.0625
18	12	03	12	37	06	-0.73113833363	0.448424187092	-0.174987361426	-0.6875	-0.431640625	0.60791015625	25.4375	4.5	-22.25
18	12	03	12	37	06	-0.735291039569	0.444519352634	-0.175781372454	-0.71240234375	-0.37744140625	0.59423828125	26.25	-2.3125	-24.375
18	12	03	12	37	06	-0.739840165175	0.43998579036	-0.175469433664	-0.61474609375	-0.39111328125	0.62939453125	26.3125	-5.125	-22.25
18	12	03	12	37	06	-0.744309398166	0.436820201941	-0.175045457478	-0.71533203125	-0.517578125	0.576171875	28.0625	-6.0625	-26.625
18	12	03	12	37	06	-0.749719876203	0.432840553731	-0.172721202349	-0.65966796875	-0.58935546875	0.67578125	28.5625	-10.5625	-28.75
18	12	03	12	37	06	-0.753558783154	0.43063989422	-0.169607180561	-0.57470703125	-0.50537109375	0.67626953125	10.375	-7.625	-25.0625
18	12	03	12	37	06	-0.756350611945	0.429628143761	-0.167359052449	-0.71240234375	-0.4990234375	0.56884765625	8.25	-10.8125	-26.0
18	12	03	12	37	06	-0.75973762026	0.42729137849	-0.166314670245	-0.77685546875	-0.48388671875	0.55712890625	18.8125	-13.0625	-27.5
18	12	03	12	37	06	-0.762419404524	0.425031118564	-0.163018109949	-0.60546875	-0.34326171875	0.64990234375	0.1875	-15.75	-23.875
18	12	03	12	37	06	-0.764807921184	0.424059168174	-0.157343773108	-0.572265625	-0.41796875	0.7294921875	-12.4375	-18.1875	-25.75
18	12	03	12	37	06	-0.766324120165	0.424847260311	-0.152031967452	-0.64892578125	-0.40625	0.67822265625	-20.0625	-16.5	-29.8125
18	12	03	12	37	06	-0.768542688574	0.423760473854	-0.148740353562	-0.80419921875	-0.45361328125	0.67236328125	-2.625	-19.9375	-29.875
18	12	03	12	37	06	-0.770013569046	0.422604149657	-0.144347026854	-0.5654296875	-0.3212890625	0.73779296875	-16.125	-15.875	-20.375
18	12	03	12	37	06	-0.770365634947	0.423267760922	-0.140499262529	-0.75732421875	-0.4365234375	0.69091796875	-19.0	-18.25	-20.5625
18	12	03	12	37	06	-0.771536112188	0.423212673199	-0.135313310713	-0.64111328125	-0.439453125	0.76220703125	-19.9375	-18.5625	-22.8125
18	12	03	12	37	06	-0.773305184239	0.422479754167	-0.13134591606	-0.57275390625	-0.4619140625	0.6455078125	-6.375	-16.0	-21.25
18	12	03	12	37	06	-0.7761402302	0.419654023972	-0.130485791631	-0.658203125	-0.43701171875	0.546875	16.875	-14.5625	-22.9375
18	12	03	12	37	06	-0.778703688109	0.416907664666	-0.132438827745	-0.71875	-0.39501953125	0.4306640625	26.25	-7.875	-21.3125
18	12	03	12	37	06	-0.78049753498	0.414845303821	-0.134090794835	-0.66259765625	-0.33447265625	0.48974609375	15.4375	-4.125	-17.5625
18	12	03	12	37	06	-0.781957132924	0.414110142592	-0.135188499019	-0.6533203125	-0.427734375	0.51953125	10.5	-0.1875	-17.5
18	12	03	12	37	06	-0.78322677012	0.415263379093	-0.136346030114	-0.75537109375	-0.572265625	0.45947265625	11.1875	1.8125	-22.5
18	12	03	12	37	06	-0.785008847604	0.416063233876	-0.136836404628	-0.736328125	-0.68115234375	0.46240234375	17.3125	-0.75	-22.0625
18	12	03	12	37	06	-0.78636691984	0.416559626506	-0.135679421205	-0.533203125	-0.6494140625	0.59228515625	5.875	1.875	-12.0625
18	12	03	12	37	06	-0.785747330993	0.418874004397	-0.134701286275	-0.58984375	-0.58984375	0.61083984375	-11.8125	3.1875	-5.0
18	12	03	12	37	06	-0.785675639732	0.420333110451	-0.133539835294	-0.7373046875	-0.60888671875	0.58984375	-5.4375	-7.3125	-11.5625
18	12	03	12	37	06	-0.785522392169	0.419860803087	-0.1312866096	-0.52734375	-0.3984375	0.6748046875	-13.625	-10.375	-2.375
18	12	03	12	37	06	-0.784628718632	0.420144998372	-0.12908289825	-0.59814453125	-0.3583984375	0.70751953125	-22.0625	-10.8125	-3.0625
18	12	03	12	37	06	-0.784639873268	0.420517169168	-0.124385194596	-0.53369140625	-0.43994140625	0.80419921875	-26.375	-13.8125	-10.5
18	12	03	12	37	06	-0.784812566246	0.421182947326	-0.119684068933	-0.53564453125	-0.51708984375	0.78466796875	-22.9375	-12.5625	-11.5
18	12	03	12	37	06	-0.786791518233	0.419548902051	-0.114500107688	-0.44580078125	-0.54296875	0.88916015625	-11.6875	-12.6875	-15.6875
18	12	03	12	37	07	-0.788969611078	0.418379104505	-0.109065420824	-0.35693359375	-0.478515625	0.89111328125	-16.6875	-7.5625	-20.3125
18	12	03	12	37	07	-0.789538372173	0.419549070062	-0.103697100674	-0.44140625	-0.47802734375	0.84619140625	-29.9375	-7.5	-19.0625
18	12	03	12	37	07	-0.789429032961	0.42126482028	-0.0968017972998	-0.447265625	-0.4501953125	0.8828125	-41.75	-14.4375	-18.625
18	12	03	12	37	07	-0.787874042558	0.423446441031	-0.0904507964266	-0.4345703125	-0.28125	0.888671875	-55.0	-14.375	-11.3125
18	12	03	12	37	07	-0.786416826377	0.424732223109	-0.0853858859217	-0.60009765625	-0.30712890625	0.8779296875	-46.1875	-19.6875	-12.6875
18	12	03	12	37	07	-0.784154336254	0.427049182033	-0.0799534698391	-0.67236328125	-0.3291015625	0.7685546875	-49.3125	-26.6875	-13.0625
18	12	03	12	37	07	-0.781151177759	0.430216005315	-0.0742151599465	-0.70703125	-0.43212890625	0.72265625	-49.5	-29.625	-8.1875
18	12	03	12	37	07	-0.777725390325	0.43356832558	-0.0675619561398	-0.57568359375	-0.4794921875	0.71875	-52.5	-29.125	-0.625
18	12	03	12	37	07	-0.773061545054	0.439508620396	-0.0601188711415	-0.52783203125	-0.53369140625	0.64306640625	-64.125	-24.4375	1.375
18	12	03	12	37	07	-0.766514338679	0.449386501767	-0.0514508788523	-0.580078125	-0.6015625	0.525390625	-82.5625	-23.0625	-2.9375
18	12	03	12	37	07	-0.75865839204	0.461237447196	-0.0419917114822	-0.55859375	-0.64404296875	0.4375	-92.0625	-21.6875	-1.1875
18	12	03	12	37	07	-0.750409255919	0.473499390599	-0.0327750931621	-0.6591796875	-0.68798828125	0.38623046875	-91.5	-23.25	-5.375
18	12	03	12	37	07	-0.741663245141	0.484717700207	-0.0199575280745	-0.57763671875	-0.5771484375	0.46337890625	-106.875	-34.3125	-2.25
18	12	03	12	37	07	-0.733180047106	0.495642650674	-0.00671354409237	-0.51025390625	-0.73828125	0.4130859375	-99.9375	-37.1875	-7.0
18	12	03	12	37	07	-0.724886969273	0.503948110237	0.0025023461935	-0.6845703125	-0.51123046875	0.38037109375	-85.0	-39.5	-5.375
18	12	03	12	37	07	-0.7163457894	0.509504528407	0.00994839939271	-0.72265625	-0.4091796875	0.48828125	-79.125	-44.8125	6.5625
18	12	03	12	37	07	-0.710005253962	0.512378071607	0.0169673739019	-0.67626953125	-0.59716796875	0.57421875	-59.375	-42.875	6.5625
18	12	03	12	37	07	-0.706044659852	0.514335956827	0.0212399327134	-0.74560546875	-0.78076171875	0.5576171875	-34.4375	-28.9375	-0.625
18	12	03	12	37	07	-0.701839379115	0.51727008766	0.0245359970784	-0.58642578125	-0.740234375	0.5439453125	-37.625	-15.1875	7.3125
18	12	03	12	37	07	-0.697981673706	0.52147214237	0.0294792889472	-0.48681640625	-0.95751953125	0.39599609375	-32.6875	-13.5625	5.875
18	12	03	12	37	07	-0.693094009563	0.527144501638	0.0344227739868	-0.50634765625	-0.8408203125	0.2822265625	-40.25	-12.5625	2.5625
18	12	03	12	37	07	-0.685478007983	0.534539791107	0.0400386050429	-0.49609375	-0.74560546875	0.25830078125	-59.1875	-16.3125	12.875
18	12	03	12	37	07	-0.677707956222	0.541238666767	0.045896648332	-0.55810546875	-0.7412109375	0.306640625	-61.5	-20.75	11.125
18	12	03	12	37	07	-0.669977874773	0.546382612278	0.0538936379179	-0.46630859375	-0.748046875	0.45361328125	-69.8125	-28.9375	13.125
18	12	03	12	37	07	-0.663923364087	0.548203682315	0.0615218561316	-0.48681640625	-0.814453125	0.5625	-55.3125	-36.875	13.8125
18	12	03	12	37	07	-0.65934952434	0.546802961082	0.0687852368723	-0.33544921875	-0.6376953125	0.689453125	-48.6875	-40.3125	16.8125
18	12	03	12	37	07	-0.654774403016	0.545645335847	0.075255111756	-0.4365234375	-0.7021484375	0.65087890625	-43.5	-39.875	14.4375
18	12	03	12	37	07	-0.650072780167	0.544545051606	0.0795272587135	-0.66015625	-0.67041015625	0.54931640625	-32.25	-41.8125	9.3125
18	12	03	12	37	07	-0.645319980776	0.541805113908	0.0856316970613	-0.52197265625	-0.7099609375	0.63916015625	-34.9375	-50.9375	16.6875
18	12	03	12	37	07	-0.640689859944	0.53790604322	0.0923467426974	-0.49267578125	-0.67626953125	0.59130859375	-30.3125	-59.75	16.625
18	12	03	12	37	07	-0.633945286102	0.536171111813	0.100581672427	-0.54638671875	-0.71875	0.46435546875	-40.875	-64.9375	17.25
18	12	03	12	37	07	-0.628997833682	0.531712509901	0.109674859997	-0.67138671875	-0.96240234375	0.607421875	-28.75	-75.125	8.25
18	12	03	12	37	07	-0.622814565009	0.526560295211	0.120668796063	-0.38134765625	-0.84033203125	0.6552734375	-41.375	-79.5	22.1875
18	12	03	12	37	07	-0.618580569067	0.52025463944	0.129758489377	-0.447265625	-0.9970703125	0.67724609375	-22.125	-73.75	17.4375
18	12	03	12	37	07	-0.614069964878	0.515376879379	0.134093202747	-0.6005859375	-0.6298828125	0.5908203125	-17.875	-59.25	13.0
18	12	03	12	37	07	-0.603270048316	0.514952387459	0.140197420172	-0.49951171875	-0.40673828125	0.68359375	-68.5625	-55.4375	37.875
18	12	03	12	37	07	-0.595571494486	0.514029834655	0.146543057826	-0.59521484375	-0.7353515625	0.58251953125	-45.375	-52.0	20.75
18	12	03	12	37	07	-0.588681875866	0.51226614662	0.152282144146	-0.61279296875	-0.68896484375	0.55029296875	-38.125	-53.0625	16.0625
18	12	03	12	37	07	-0.580678482683	0.512076147752	0.156491447299	-0.55322265625	-0.6083984375	0.46484375	-39.0625	-44.0625	26.4375
18	12	03	12	37	07	-0.573468005074	0.513228230595	0.160090099756	-0.5947265625	-0.7578125	0.28173828125	-26.125	-37.3125	23.3125
18	12	03	12	37	07	-0.567494505937	0.514700061149	0.163815363942	-0.71044921875	-0.88525390625	0.1875	-16.8125	-37.125	11.3125
18	12	03	12	37	07	-0.557663781384	0.518175057891	0.169124038329	-0.64599609375	-0.7197265625	0.16845703125	-43.875	-40.875	25.0
18	12	03	12	37	07	-0.548573208607	0.521291029675	0.174007812388	-0.56005859375	-0.759765625	0.1611328125	-38.0625	-35.4375	27.9375
18	12	03	12	37	07	-0.539040633425	0.526162737858	0.178276459492	-0.595703125	-0.60693359375	0.0625	-43.5625	-28.3125	23.0
18	12	03	12	37	07	-0.531118050785	0.529958404386	0.182674824868	-0.60302734375	-0.75390625	0.13525390625	-37.0625	-25.75	18.25
18	12	03	12	37	07	-0.525025422316	0.532288619857	0.187866571714	-0.48291015625	-0.853515625	0.22265625	-33.5625	-23.625	15.6875
18	12	03	12	37	07	-0.520563134661	0.534356928591	0.19170932184	-0.46142578125	-0.92529296875	0.22265625	-22.5	-15.1875	14.4375
18	12	03	12	37	07	-0.517512901529	0.5364946815	0.19457850337	-0.56591796875	-0.88134765625	0.16162109375	-13.75	-11.9375	2.0625
18	12	03	12	37	07	-0.511032507627	0.539962330703	0.198907791993	-0.54443359375	-0.755859375	0.208984375	-39.0625	-16.0625	12.3125
18	12	03	12	37	07	-0.504189873281	0.543189671009	0.204398000922	-0.5654296875	-0.89697265625	0.267578125	-44.1875	-18.875	13.125
18	12	03	12	37	08	-0.498270208972	0.544227762544	0.209769072543	-0.58447265625	-0.818359375	0.32373046875	-39.0	-27.0625	6.5625
18	12	03	12	37	08	-0.490040791932	0.547290544434	0.216914307451	-0.5380859375	-0.85205078125	0.27294921875	-56.1875	-25.375	14.3125
18	12	03	12	37	08	-0.481614913551	0.551864408608	0.223565508597	-0.5927734375	-0.87451171875	0.21484375	-58.0625	-17.375	12.625
18	12	03	12	37	08	-0.47489915423	0.551861991074	0.229423714272	-0.5986328125	-0.93505859375	0.48486328125	-48.5625	-29.3125	12.25
18	12	03	12	37	08	-0.467406544003	0.552367357433	0.236205709753	-0.43212890625	-0.861328125	0.42529296875	-54.6875	-28.3125	18.9375
18	12	03	12	37	08	-0.461292629652	0.552843164778	0.241388244281	-0.5009765625	-0.8046875	0.37646484375	-43.25	-23.4375	11.5
18	12	03	12	37	08	-0.454718869515	0.554329768179	0.245731297807	-0.4951171875	-0.73486328125	0.30322265625	-42.5625	-19.0625	14.3125
18	12	03	12	37	08	-0.450622033162	0.553954432206	0.248779006795	-0.4560546875	-0.8544921875	0.3193359375	-23.5625	-18.5	14.125
18	12	03	12	37	08	-0.447131943269	0.553025189457	0.251702447999	-0.5224609375	-0.859375	0.29541015625	-18.1875	-22.0	7.5625
18	12	03	12	37	08	-0.442799392691	0.549974545492	0.255792178466	-0.51953125	-0.83154296875	0.4267578125	-25.0625	-35.0	8.0
18	12	03	12	37	08	-0.437307989966	0.5471690342	0.262628929633	-0.46728515625	-0.845703125	0.46044921875	-42.3125	-39.25	5.6875
18	12	03	12	37	08	-0.431278796192	0.543645660583	0.269411917123	-0.54443359375	-0.79833984375	0.4921875	-43.75	-45.3125	2.5
18	12	03	12	37	08	-0.426092115556	0.538703482581	0.275821554247	-0.4814453125	-0.830078125	0.515625	-35.625	-48.375	4.0
18	12	03	12	37	08	-0.420890520265	0.533742401351	0.28179401567	-0.474609375	-0.763671875	0.42822265625	-29.9375	-51.25	3.4375
18	12	03	12	37	08	-0.416753490073	0.527472709609	0.286258621623	-0.5791015625	-0.8095703125	0.4638671875	-17.125	-54.3125	-0.6875
18	12	03	12	37	08	-0.410446996539	0.522381538049	0.291005394721	-0.56689453125	-0.66064453125	0.47314453125	-30.4375	-54.5625	4.6875
18	12	03	12	37	08	-0.404971473618	0.517582230035	0.2958397487	-0.62646484375	-0.7783203125	0.3818359375	-22.6875	-53.625	0.0
18	12	03	12	37	08	-0.400874346261	0.511651894748	0.300960932005	-0.60107421875	-0.912109375	0.3583984375	-12.875	-56.5625	-3.4375
18	12	03	12	37	08	-0.382633645874	0.494085079495	0.316409765547	-0.6396484375	-0.814453125	0.205078125	-16.25	-71.3125	7.625
18	12	03	12	37	08	-0.354369474285	0.475829214869	0.338927607769	-0.48388671875	-0.8486328125	0.26708984375	-27.375	-77.6875	15.1875
18	12	03	12	37	08	-0.346009456359	0.468934671583	0.344056324836	-0.552734375	-0.80322265625	0.30029296875	-17.6875	-75.0	13.0625
18	12	03	12	37	08	-0.337217501543	0.461667544195	0.349729644135	-0.4677734375	-0.74951171875	0.36962890625	-25.75	-74.25	15.6875
18	12	03	12	37	08	-0.32897977345	0.455810936573	0.355713194744	-0.4423828125	-0.7646484375	0.330078125	-28.25	-64.9375	14.0625
18	12	03	12	37	08	-0.321344285785	0.450004068203	0.36095538578	-0.548828125	-0.8173828125	0.365234375	-24.875	-62.875	9.0
18	12	03	12	37	08	-0.313596943543	0.444333543984	0.366331034477	-0.50537109375	-0.87841796875	0.34765625	-23.8125	-62.0625	12.6875
18	12	03	12	37	08	-0.306019078745	0.438582588724	0.369859516792	-0.56103515625	-0.90234375	0.2890625	-9.4375	-63.6875	15.4375
18	12	03	12	37	08	-0.297301032794	0.432676456883	0.373167422399	-0.51611328125	-0.806640625	0.34619140625	-15.4375	-65.25	21.125
18	12	03	12	37	08	-0.288758462859	0.428285380233	0.37750392999	-0.529296875	-0.8681640625	0.27001953125	-19.4375	-58.25	19.625
18	12	03	12	37	08	-0.28021260068	0.423889460188	0.380798609375	-0.58251953125	-0.78955078125	0.29541015625	-17.25	-58.25	17.3125
18	12	03	12	37	08	-0.270686148856	0.420891021987	0.384819880167	-0.50146484375	-0.767578125	0.2431640625	-24.6875	-52.625	25.5
18	12	03	12	37	08	-0.250920289478	0.412056160122	0.386787125862	-0.51123046875	-0.80859375	0.13330078125	11.3125	-45.6875	24.6875
18	12	03	12	37	08	-0.245178545986	0.408752980451	0.386169942857	-0.49658203125	-0.84033203125	0.21728515625	11.875	-41.5	24.25
18	12	03	12	37	08	-0.239808108472	0.406800978102	0.38659825886	-0.47412109375	-0.8759765625	0.22509765625	3.625	-32.1875	23.875
18	12	03	12	37	08	-0.236503544803	0.405199234567	0.38536345339	-0.45458984375	-0.8955078125	0.224609375	16.4375	-23.125	20.8125
18	12	03	12	37	08	-0.234254735679	0.40503241948	0.38305959383	-0.416015625	-0.8623046875	0.1201171875	25.75	-14.125	22.6875
18	12	03	12	37	08	-0.232114117694	0.40557410257	0.378841001453	-0.52587890625	-0.8681640625	0.1240234375	35.0625	-11.9375	23.1875
18	12	03	12	37	08	-0.230043280429	0.40607003043	0.374880824726	-0.51025390625	-0.87255859375	0.21826171875	29.1875	-8.75	23.875
18	12	03	12	37	08	-0.227900553919	0.408438807399	0.370902963623	-0.55126953125	-0.82275390625	0.1474609375	27.5625	-1.5	23.5
18	12	03	12	37	08	-0.226002365966	0.408915974067	0.364789668209	-0.63916015625	-0.884765625	0.2646484375	40.125	-9.8125	24.1875
18	12	03	12	37	08	-0.22466738125	0.409296239789	0.357905331065	-0.55908203125	-0.96240234375	0.251953125	48.875	-6.8125	31.3125
18	12	03	12	37	08	-0.22399373606	0.408864860454	0.348624583209	-0.525390625	-0.8583984375	0.296875	61.0	-6.9375	32.5625
18	12	03	12	37	08	-0.222592769894	0.409053124165	0.338863465438	-0.529296875	-0.7890625	0.33740234375	57.625	-3.625	36.875
18	12	03	12	37	09	-0.220826698287	0.40997593488	0.329286909138	-0.59521484375	-0.74462890625	0.32666015625	54.0625	-2.5625	34.625
18	12	03	12	37	09	-0.22033114188	0.410877907794	0.320670310093	-0.5419921875	-0.80322265625	0.263671875	56.5625	-0.5625	31.375
18	12	03	12	37	09	-0.2216823661	0.411076744405	0.308963694162	-0.5087890625	-0.79296875	0.26123046875	79.1875	1.9375	32.25
18	12	03	12	37	09	-0.224426490668	0.413879802343	0.281128206694	-0.60302734375	-0.724609375	0.36376953125	86.625	10.375	35.625
18	12	03	12	37	09	-0.226735903101	0.414472010217	0.267444610333	-0.6015625	-0.79443359375	0.39013671875	87.1875	9.75	32.0
18	12	03	12	37	09	-0.229114652784	0.415811968412	0.253588540842	-0.59326171875	-0.70166015625	0.375	84.6875	14.5	30.25
18	12	03	12	37	09	-0.22845676263	0.421390726476	0.233217550096	-0.72998046875	-0.6796875	0.455078125	47.1875	11.5	31.625
18	12	03	12	37	09	-0.228331790566	0.421385373448	0.222960713964	-0.65234375	-0.7529296875	0.54541015625	59.9375	4.75	35.1875
18	12	03	12	37	09	-0.229552583433	0.420775195476	0.209655177902	-0.611328125	-0.65380859375	0.48828125	79.75	5.1875	34.4375
18	12	03	12	37	09	-0.231076949501	0.419917964227	0.193967920104	-0.66796875	-0.55029296875	0.5185546875	88.4375	5.5625	33.875
18	12	03	12	37	09	-0.232352512242	0.419418561631	0.181634115165	-0.59521484375	-0.5400390625	0.54833984375	69.9375	9.25	29.1875
18	12	03	12	37	09	-0.234311161616	0.420344092224	0.169858807704	-0.6796875	-0.5751953125	0.54052734375	67.6875	15.125	24.1875
18	12	03	12	37	09	-0.235772348635	0.421008972531	0.15911429275	-0.6552734375	-0.57666015625	0.57275390625	62.0625	14.4375	25.6875
18	12	03	12	37	09	-0.238152928194	0.420582221472	0.146968798332	-0.67822265625	-0.568359375	0.5673828125	73.6875	9.9375	23.9375
18	12	03	12	37	09	-0.241753714718	0.41997155036	0.122921479788	-0.66650390625	-0.36767578125	0.5830078125	66.125	13.5	22.625
18	12	03	12	37	09	-0.244077489009	0.420284468446	0.111449236041	-0.64990234375	-0.40576171875	0.58544921875	63.9375	16.4375	18.625
18	12	03	12	37	09	-0.256401327634	0.42619625586	0.0734842176793	-0.7998046875	-0.4775390625	0.53271484375	51.9375	22.625	11.75
18	12	03	12	37	09	-0.260188981889	0.427727981487	0.0657949149604	-0.92626953125	-0.5498046875	0.60791015625	54.5625	12.75	3.9375
18	12	03	12	37	09	-0.259514778476	0.428455725518	0.0586532695474	-0.66455078125	-0.2783203125	0.67578125	29.5	17.5625	20.5
18	12	03	12	37	09	-0.258728406133	0.431763327431	0.0514527120476	-0.755859375	-0.33349609375	0.5966796875	29.8125	26.1875	21.3125
18	12	03	12	37	09	-0.272341253927	0.433902728411	0.0243532407703	-0.88671875	-0.298828125	0.49755859375	57.0	22.1875	-3.3125
18	12	03	12	37	09	-0.283683984933	0.432788970989	0.00329581221738	-0.7763671875	-0.31591796875	0.6650390625	37.75	8.375	3.0
18	12	03	12	37	09	-0.290819092361	0.429606629827	-0.00653046020621	-0.4833984375	-0.2900390625	0.73486328125	34.9375	10.3125	-1.875
18	12	03	12	37	09	-0.306079684112	0.42729090099	-0.0172112604027	-0.7568359375	-0.5263671875	0.68310546875	54.625	7.875	-17.3125
18	12	03	12	37	09	-0.318282920237	0.431619714653	-0.032713258916	-0.9658203125	-0.2275390625	0.43603515625	44.8125	26.8125	2.3125
18	12	03	12	37	09	-0.319272781679	0.43175982749	-0.0372922327674	-0.93359375	-0.21875	0.68896484375	23.75	5.875	3.1875
18	12	03	12	37	09	-0.322558307145	0.431868038099	-0.0399764789366	-0.5537109375	-0.2529296875	0.59716796875	23.3125	15.375	-7.0
18	12	03	12	37	09	-0.327258702545	0.431686087859	-0.0444930239006	-0.80517578125	-0.25732421875	0.76513671875	34.125	16.6875	-13.0625
18	12	03	12	37	09	-0.335740307854	0.43211077615	-0.0493753697607	-0.69970703125	-0.275390625	0.583984375	48.1875	18.8125	-31.8125
18	12	03	12	37	09	-0.343682796326	0.434501478786	-0.0545034162883	-0.9052734375	-0.3017578125	0.53173828125	46.375	20.0625	-32.375
18	12	03	12	37	09	-0.351677241035	0.435720899645	-0.0577380544984	-0.75244140625	-0.3447265625	0.5830078125	40.4375	18.75	-31.6875
18	12	03	12	37	10	-0.357901397331	0.436329653738	-0.062681571463	-0.7236328125	-0.26220703125	0.67724609375	40.1875	24.3125	-20.375
18	12	03	12	37	10	-0.38402910299	0.434321534787	-0.0782462349068	-0.78173828125	-0.271484375	0.7041015625	42.25	10.75	-39.75
18	12	03	12	37	10	-0.393171538657	0.433086811287	-0.080929130745	-0.75	-0.3046875	0.69873046875	42.5	11.0	-38.875
18	12	03	12	37	10	-0.462031789378	0.417903786245	-0.110777767202	-0.705078125	-0.31103515625	0.5546875	31.4375	8.375	-48.25
18	12	03	12	37	10	-0.471609868886	0.417838897682	-0.111509153676	-0.74365234375	-0.349609375	0.56787109375	36.3125	6.875	-49.5
18	12	03	12	37	10	-0.479918635326	0.418822545543	-0.112914851247	-0.84423828125	-0.32373046875	0.5107421875	33.0	6.6875	-46.625
18	12	03	12	37	10	-0.487164029172	0.419417590638	-0.115168945508	-0.98095703125	-0.2919921875	0.583984375	32.0625	4.375	-42.3125
18	12	03	12	37	10	-0.49469269651	0.418032113313	-0.116699868689	-0.83203125	-0.2705078125	0.638671875	32.6875	0.6875	-40.0625
18	12	03	12	37	10	-0.525389069986	0.420469946925	-0.114257474328	-0.75439453125	-0.3564453125	0.6259765625	6.5	10.4375	-41.1875
18	12	03	12	37	10	-0.530436678305	0.42350708903	-0.110957758734	-0.67236328125	-0.3408203125	0.58642578125	-4.75	12.25	-42.0625
18	12	03	12	37	10	-0.535325544517	0.426258534136	-0.107480137258	-0.66552734375	-0.31689453125	0.65283203125	-8.375	14.1875	-42.9375
18	12	03	12	37	10	-0.550163560184	0.450189307734	-0.0853870446746	-0.6640625	-0.38134765625	0.53369140625	-34.125	18.0625	-47.125
18	12	03	12	37	10	-0.55325008239	0.455660795932	-0.0818431726955	-0.6962890625	-0.29833984375	0.4951171875	-22.1875	20.75	-45.6875
18	12	03	12	37	10	-0.556633785198	0.460321492102	-0.0798330034035	-0.77490234375	-0.2724609375	0.46923828125	-14.0625	18.3125	-46.6875
18	12	03	12	37	10	-0.561575236416	0.463493353477	-0.0781237150976	-0.74609375	-0.33740234375	0.5126953125	-2.9375	17.125	-49.3125
18	12	03	12	37	10	-0.567051415717	0.466897355531	-0.0777551935878	-0.8017578125	-0.4375	0.43115234375	9.25	18.3125	-48.0
18	12	03	12	37	10	-0.571394685271	0.470201309051	-0.0775734506494	-0.85546875	-0.44970703125	0.47607421875	5.5625	17.375	-41.625
18	12	03	12	37	10	-0.574554335032	0.4748892374	-0.0760457511632	-0.849609375	-0.490234375	0.41455078125	-4.75	16.1875	-39.375
18	12	03	12	37	10	-0.57694388473	0.479108166205	-0.0737277279968	-0.79931640625	-0.5458984375	0.439453125	-7.75	12.8125	-31.5
