18	12	12	16	24	41	0.738344852798	0.0152588421261	0.308350681684	-0.53369140625	-0.51416015625	0.7626953125	15.0	1.8125	27.4375
18	12	12	16	24	41	0.740251493321	0.0207524330252	0.308173630424	-0.5859375	-0.53076171875	0.74755859375	32.125	6.75	30.3125
18	12	12	16	24	41	0.741456805847	0.0299072962516	0.305481668856	-0.53955078125	-0.4501953125	0.7431640625	55.8125	12.6875	25.9375
18	12	12	16	24	42	0.743248261928	0.0399792733483	0.301706180398	-0.509765625	-0.3232421875	0.728515625	57.0625	11.5625	28.6875
18	12	12	16	24	42	0.746266851488	0.0477288523647	0.296138608278	-0.47216796875	-0.216796875	0.93017578125	42.5625	3.25	30.0625
18	12	12	16	24	42	0.7499979199	0.0535887185605	0.29016032806	-0.36181640625	-0.0185546875	0.92138671875	24.4375	0.0	27.8125
18	12	12	16	24	42	0.753106932214	0.058349155296	0.285886447078	-0.37548828125	-0.052734375	0.8564453125	18.125	1.25	24.9375
18	12	12	16	24	42	0.754844955746	0.0617694748294	0.282784562139	-0.45361328125	-0.14892578125	0.84521484375	17.3125	-1.0625	14.75
18	12	12	16	24	42	0.757420849385	0.0628691655143	0.279676229501	-0.45556640625	-0.1240234375	0.92578125	3.375	-7.5	16.75
18	12	12	16	24	42	0.761168731789	0.0602416436754	0.277404529387	-0.4775390625	-0.09423828125	0.97900390625	-21.1875	-17.75	19.625
18	12	12	16	24	42	0.765514442343	0.0563362964665	0.275699947063	-0.4736328125	-0.13623046875	0.92138671875	-27.4375	-22.375	25.375
18	12	12	16	24	42	0.769768518425	0.0526728696005	0.27404540499	-0.44873046875	-0.09912109375	0.955078125	-28.875	-19.0625	24.625
18	12	12	16	24	42	0.774151502375	0.0510852103034	0.271172747166	-0.44580078125	-0.05322265625	0.90771484375	-17.375	-19.5	26.875
18	12	12	16	24	42	0.778389775761	0.0471806866356	0.269534168412	-0.52392578125	-0.19677734375	0.97998046875	-24.75	-23.8125	26.6875
18	12	12	16	24	42	0.782908879114	0.0437017819791	0.267337716576	-0.43603515625	-0.1318359375	0.92578125	-24.5	-22.75	29.375
18	12	12	16	24	42	0.78753803519	0.0398560285964	0.265930653284	-0.4541015625	-0.158203125	0.88720703125	-27.25	-22.6875	31.75
18	12	12	16	24	42	0.791240624357	0.0346087660272	0.266005295144	-0.4921875	-0.2548828125	0.75390625	-29.6875	-25.875	26.375
18	12	12	16	24	42	0.794756292615	0.0278326449146	0.267889207303	-0.55419921875	-0.35986328125	0.7626953125	-37.5625	-26.25	27.9375
18	12	12	16	24	42	0.798479300597	0.0206913685142	0.269781264993	-0.50537109375	-0.318359375	0.6376953125	-40.875	-28.0625	29.0625
18	12	12	16	24	42	0.802554112786	0.010986367047	0.272645008884	-0.49853515625	-0.2822265625	0.73583984375	-62.125	-28.75	29.9375
18	12	12	16	24	42	0.806504725257	-0.000244136438704	0.276179346283	-0.49072265625	-0.34228515625	0.798828125	-70.75	-28.0	30.8125
18	12	12	16	24	42	0.809398553476	-0.0108033741019	0.279056646293	-0.46435546875	-0.50927734375	0.82080078125	-54.5	-24.875	26.125
18	12	12	16	24	42	0.811619091149	-0.0159918930496	0.280651619245	-0.48681640625	-0.48681640625	0.87646484375	-26.5	-13.4375	23.5
18	12	12	16	24	42	0.814022782759	-0.0174559882934	0.281187895342	-0.470703125	-0.40087890625	0.83349609375	-9.3125	-8.0625	26.375
18	12	12	16	24	42	0.816850433635	-0.0171512345402	0.280340285563	-0.44921875	-0.3056640625	0.84326171875	-3.0625	-8.4375	27.0625
18	12	12	16	24	42	0.819630104465	-0.0168454768659	0.280574844756	-0.45703125	-0.25830078125	0.8232421875	-8.9375	-4.375	28.5625
18	12	12	16	24	42	0.820389905804	-0.0181888395156	0.282781521731	-0.52734375	-0.44384765625	0.80126953125	-8.0625	-0.9375	14.375
18	12	12	16	24	42	0.821602998079	-0.0194704224342	0.284732039673	-0.54736328125	-0.3974609375	0.7939453125	-10.5625	-4.125	17.3125
18	12	12	16	24	42	0.824061936852	-0.0201422442161	0.283883569239	-0.3671875	-0.34130859375	0.92333984375	-6.625	-2.5	25.5
18	12	12	16	24	42	0.827529424369	-0.01806672884	0.28253678311	-0.25	-0.10888671875	0.7041015625	-2.875	0.5	34.625
18	12	12	16	24	42	0.828317711383	-0.0184328309511	0.282718122403	-0.4921875	-0.484375	0.78662109375	7.3125	-5.8125	13.5625
18	12	12	16	24	42	0.828011074565	-0.0205690499874	0.285952519854	-0.61181640625	-0.4814453125	0.83935546875	-11.625	0.625	5.0625
18	12	12	16	24	42	0.830723273933	-0.0231943309401	0.287365552805	-0.4775390625	-0.26806640625	0.86279296875	-28.4375	-6.0	28.25
18	12	12	16	24	42	0.833990424071	-0.0258790939554	0.287050421868	-0.5244140625	-0.29296875	0.8583984375	-22.75	-18.3125	29.125
18	12	12	16	24	42	0.836800474471	-0.023681880678	0.285830534059	-0.48779296875	-0.17138671875	0.89794921875	-1.875	-5.1875	26.125
18	12	12	16	24	42	0.839547709868	-0.0194704267138	0.283938636591	-0.4580078125	-0.20751953125	0.8642578125	13.9375	-1.9375	28.3125
18	12	12	16	24	42	0.840599955793	-0.0178227699021	0.281807289856	-0.4619140625	-0.4072265625	0.900390625	18.1875	-6.0	11.375
18	12	12	16	24	42	0.841676928985	-0.0157471100564	0.281433815776	-0.51953125	-0.4072265625	0.861328125	15.25	-0.8125	16.9375
18	12	12	16	24	42	0.843717022111	-0.0124515859445	0.280343795309	-0.4052734375	-0.31298828125	0.81396484375	16.75	1.9375	27.125
18	12	12	16	24	42	0.845621274052	-0.00872844248517	0.279004969229	-0.39990234375	-0.2626953125	0.7900390625	17.9375	2.4375	24.5
18	12	12	16	24	42	0.846434868934	-0.00604247562911	0.278930440657	-0.501953125	-0.41259765625	0.794921875	20.875	1.625	17.375
18	12	12	16	24	42	0.847198682515	-0.00311290582192	0.279307000806	-0.5107421875	-0.3544921875	0.748046875	17.875	2.4375	17.125
18	12	12	16	24	42	0.848475102988	-0.000671406814824	0.279000050051	-0.4892578125	-0.31787109375	0.787109375	14.0625	-0.1875	19.8125
18	12	12	16	24	42	0.850006901838	0.000549336644876	0.278452641547	-0.45458984375	-0.24169921875	0.80419921875	3.6875	-2.1875	18.3125
18	12	12	16	24	42	0.851776678768	0.000854523361	0.27802527924	-0.4794921875	-0.24951171875	0.9140625	-3.25	-2.125	20.1875
18	12	12	16	24	42	0.85285149803	0.000732428109666	0.278444753025	-0.5615234375	-0.31591796875	0.92431640625	-2.9375	-2.375	14.8125
18	12	12	16	24	42	0.854388105218	0.00189212968008	0.278448245178	-0.5185546875	-0.23681640625	0.91748046875	-0.5	0.3125	19.4375
18	12	12	16	24	42	0.856699962654	0.0045776928754	0.278018547299	-0.50537109375	-0.10888671875	0.85009765625	-0.125	-0.3125	26.1875
18	12	12	16	24	42	0.858203190846	0.00616490201105	0.278641363173	-0.64306640625	-0.2861328125	0.8759765625	3.6875	-3.6875	22.25
18	12	12	16	24	42	0.859659074872	0.00830116686897	0.279370887936	-0.552734375	-0.228515625	0.81201171875	3.875	1.75	22.875
18	12	12	16	24	42	0.861166401749	0.0115969676329	0.278815516563	-0.43310546875	-0.2509765625	0.8798828125	14.5	7.625	24.6875
18	12	12	16	24	42	0.862694357794	0.0151981671919	0.277717512945	-0.45947265625	-0.20166015625	0.84521484375	15.6875	3.1875	22.0
18	12	12	16	24	42	0.86346961314	0.0188599781198	0.276857154535	-0.4736328125	-0.353515625	0.8349609375	27.6875	4.4375	19.1875
18	12	12	16	24	43	0.863441500237	0.0225840064391	0.277661203491	-0.51904296875	-0.38134765625	0.77685546875	27.25	9.3125	15.0
18	12	12	16	24	43	0.863974272116	0.0266730312197	0.278144172238	-0.4794921875	-0.26318359375	0.7080078125	22.875	8.0	19.25
18	12	12	16	24	43	0.863962411391	0.0292972064619	0.279483142477	-0.56201171875	-0.3173828125	0.6953125	18.0	4.875	12.9375
18	12	12	16	24	43	0.864297451861	0.0300917121305	0.282239506879	-0.65380859375	-0.291015625	0.67431640625	1.5	1.3125	16.5625
18	12	12	16	24	43	0.865741128419	0.0303961563701	0.282537766741	-0.515625	-0.19921875	0.73095703125	-2.0625	-3.75	20.6875
18	12	12	16	24	43	0.867989073182	0.0300906133942	0.28143573704	-0.453125	-0.05810546875	0.798828125	-12.5	-6.875	21.1875
18	12	12	16	24	43	0.868736172427	0.0294807539719	0.28174567357	-0.54638671875	-0.1416015625	0.80029296875	-8.5625	-4.375	7.8125
18	12	12	16	24	43	0.869425814331	0.0274671171335	0.28400999116	-0.71826171875	-0.24755859375	0.7802734375	-15.5	-8.125	12.125
18	12	12	16	24	43	0.869542532118	0.0274669478768	0.28443550468	-0.7119140625	-0.54150390625	0.80322265625	19.8125	-10.5	13.5
18	12	12	16	24	43	0.868608565388	0.0292974570576	0.285039842623	-0.68994140625	-0.77490234375	0.7587890625	46.375	-4.6875	13.0625
18	12	12	16	24	43	0.867699037285	0.0394908045247	0.283271752394	-0.63916015625	-0.57421875	0.73291015625	84.3125	5.1875	17.0625
18	12	12	16	24	43	0.867761713127	0.0540786999951	0.280037331352	-0.5419921875	-0.42138671875	0.7265625	98.625	12.8125	32.875
18	12	12	16	24	43	0.868281809778	0.0728756137266	0.275206149324	-0.36865234375	-0.3388671875	0.8056640625	106.9375	21.375	39.125
18	12	12	16	24	43	0.8686757635	0.0895409882697	0.270881326476	-0.4052734375	-0.13916015625	0.84423828125	95.25	25.375	38.875
18	12	12	16	24	43	0.870143622641	0.103030473837	0.266792773188	-0.45458984375	0.1982421875	0.76806640625	56.5	13.3125	35.9375
18	12	12	16	24	43	0.873322110342	0.107852961209	0.262948815443	-0.44384765625	0.3330078125	0.6962890625	1.875	-9.1875	31.8125
18	12	12	16	24	43	0.877876478314	0.103699654916	0.25927965514	-0.41455078125	0.23046875	0.68115234375	-39.75	-29.4375	30.125
18	12	12	16	24	43	0.882756522609	0.0941777856866	0.25567773444	-0.40380859375	-0.00439453125	0.67578125	-53.375	-42.125	29.6875
18	12	12	16	24	43	0.887004998971	0.0850260090536	0.252026124467	-0.52734375	-0.15185546875	0.68896484375	-41.125	-48.875	28.8125
18	12	12	16	24	43	0.891071399813	0.0822161227171	0.246648368151	-0.5966796875	-0.10009765625	0.72998046875	-8.375	-47.3125	37.0625
18	12	12	16	24	43	0.895638823048	0.0847786782891	0.236818770167	-0.35205078125	0.11181640625	1.001953125	16.0625	-36.125	39.875
18	12	12	16	24	43	0.899690659015	0.0889924681712	0.225655113051	-0.130859375	0.3623046875	1.16064453125	14.625	-21.5625	27.5625
18	12	12	16	24	43	0.901894917264	0.0899087177267	0.217416736281	-0.23486328125	0.2841796875	1.35009765625	2.5	-14.125	4.25
18	12	12	16	24	43	0.902166211765	0.0881963450376	0.211732263623	-0.4384765625	0.064453125	1.478515625	2.875	-15.625	-16.75
18	12	12	16	24	43	0.902144478185	0.0888105694018	0.20759089109	-0.39404296875	0.13427734375	1.47900390625	7.0625	-0.3125	-12.9375
18	12	12	16	24	43	0.902233341034	0.0930187803907	0.203615912981	-0.27099609375	0.15087890625	1.39501953125	23.1875	14.0	-1.9375
18	12	12	16	24	43	0.901679398771	0.100342579813	0.201478622849	-0.3095703125	0.26953125	1.095703125	28.5	18.8125	-2.125
18	12	12	16	24	43	0.899914985907	0.105897483759	0.203371997629	-0.4541015625	0.16064453125	0.9013671875	20.1875	22.1875	-11.0625
18	12	12	16	24	43	0.898220038469	0.106143289406	0.208868508538	-0.56591796875	0.2001953125	0.74560546875	-18.9375	18.8125	-16.75
18	12	12	16	24	43	0.896507401204	0.10260273294	0.216131039465	-0.6328125	-0.1201171875	0.578125	-23.4375	10.5625	-12.4375
18	12	12	16	24	43	0.894329310542	0.0997971896489	0.223582327635	-0.71142578125	-0.396484375	0.56103515625	-2.1875	8.9375	-6.8125
18	12	12	16	24	43	0.893134621502	0.104554063188	0.227601927396	-0.5908203125	-0.29248046875	0.51171875	33.6875	14.0625	16.0625
18	12	12	16	24	43	0.892219153275	0.10998624396	0.22912783564	-0.6044921875	-0.30419921875	0.4755859375	44.1875	0.3125	17.0
18	12	12	16	24	43	0.89223747811	0.11444419698	0.227850766574	-0.59912109375	-0.23681640625	0.57666015625	40.5	-13.4375	19.25
18	12	12	16	24	43	0.892906094779	0.119021593056	0.225164439376	-0.45166015625	-0.10693359375	0.59765625	35.5	-10.75	21.1875
18	12	12	16	24	43	0.893203907717	0.119753045438	0.222782169138	-0.49755859375	-0.1103515625	0.71826171875	18.0	-17.25	6.375
18	12	12	16	24	43	0.893635194485	0.116823834591	0.220036532759	-0.4765625	-0.17041015625	0.8251953125	5.75	-23.3125	-1.6875
18	12	12	16	24	43	0.893396631792	0.115970048535	0.217596433172	-0.49853515625	-0.19775390625	0.908203125	18.625	-16.375	-3.125
18	12	12	16	24	43	0.892830226565	0.121338972547	0.214235308671	-0.52099609375	0.05078125	0.93212890625	37.75	-6.8125	-0.1875
18	12	12	16	24	43	0.892700697474	0.125061105505	0.211547970562	-0.58740234375	0.0732421875	0.96435546875	25.5	-10.4375	3.25
18	12	12	16	24	43	0.893718860254	0.128301942648	0.206857889455	-0.439453125	0.19970703125	1.04296875	17.6875	-10.625	9.6875
18	12	12	16	24	43	0.895460758006	0.128053757092	0.201541232563	-0.2744140625	0.15380859375	1.05517578125	3.6875	-12.125	9.6875
18	12	12	16	24	43	0.89655852453	0.12750430647	0.196841258194	-0.1630859375	0.26220703125	1.12060546875	-3.4375	-1.3125	-2.3125
18	12	12	16	24	43	0.897642439532	0.125427022047	0.19439662541	-0.232421875	0.2431640625	1.1875	-15.875	5.0	-1.5625
18	12	12	16	24	43	0.89917489785	0.124512407793	0.191041096271	-0.24658203125	0.3193359375	1.23388671875	-13.4375	2.5	4.5625
18	12	12	16	24	43	0.900490892941	0.121953555487	0.186653639979	-0.08203125	0.44384765625	1.28955078125	-26.0	4.375	-9.25
18	12	12	16	24	43	0.9005161909	0.117432096468	0.186402090756	-0.1630859375	0.30029296875	1.1142578125	-34.75	10.875	-21.0625
18	12	12	16	24	43	0.899387772498	0.112736288823	0.189887706837	-0.37060546875	0.212890625	1.00927734375	-37.75	14.4375	-26.75
18	12	12	16	24	43	0.898282511114	0.110171905454	0.193914761012	-0.55029296875	0.26708984375	1.0048828125	-33.375	11.0	-20.8125
18	12	12	16	24	43	0.898322589579	0.10650719655	0.19824376756	-0.57421875	0.24462890625	0.88037109375	-42.625	5.8125	-6.0
18	12	12	16	24	44	0.899438013392	0.101931425242	0.200200643589	-0.43994140625	0.208984375	0.9111328125	-42.3125	0.6875	2.875
18	12	12	16	24	44	0.899818595295	0.0960734275535	0.202279122562	-0.44287109375	0.01416015625	0.8349609375	-35.0625	-4.4375	-4.3125
18	12	12	16	24	44	0.899571964201	0.0924109074365	0.204842143565	-0.48681640625	-0.01708984375	0.826171875	-22.375	-0.125	-5.9375
18	12	12	16	24	44	0.899996078838	0.0891145659616	0.208198482531	-0.52392578125	-0.1123046875	0.7138671875	-19.5625	0.1875	9.6875
18	12	12	16	24	44	0.899481511167	0.0878302160935	0.209779327806	-0.4716796875	-0.197265625	0.80322265625	3.625	0.9375	-0.6875
18	12	12	16	24	44	0.899921136203	0.0880145332613	0.210514649943	-0.33154296875	-0.02978515625	0.76220703125	-0.875	7.4375	9.75
18	12	12	16	24	44	0.899166148497	0.0851436856607	0.212767661801	-0.35595703125	-0.22119140625	0.61962890625	-4.1875	2.625	-5.875
18	12	12	16	24	44	0.896819679647	0.0784328107497	0.219428758479	-0.689453125	-0.4287109375	0.66748046875	-18.0	-0.75	-20.8125
18	12	12	16	24	44	0.896795333764	0.072571268757	0.224732894502	-0.5439453125	-0.11328125	0.67138671875	-38.6875	3.25	2.3125
18	12	12	16	24	44	0.898675501467	0.064334984619	0.228346468178	-0.41943359375	-0.03515625	0.7900390625	-58.375	0.0	18.25
18	12	12	16	24	44	0.89964507731	0.0544425650584	0.23193020989	-0.462890625	-0.091796875	0.833984375	-61.25	-4.75	4.125
18	12	12	16	24	44	0.900418270048	0.0465712540704	0.235480862652	-0.509765625	-0.04443359375	0.88330078125	-55.1875	-1.5625	4.0
18	12	12	16	24	44	0.901694798822	0.0395517653582	0.238592362323	-0.57763671875	-0.0595703125	0.88134765625	-51.4375	-6.5	12.9375
18	12	12	16	24	44	0.902582704165	0.034484665124	0.240232994563	-0.4736328125	-0.09130859375	0.9990234375	-35.75	0.125	8.4375
18	12	12	16	24	44	0.902898446435	0.0310060441282	0.242921369351	-0.42041015625	-0.01416015625	1.04345703125	-34.3125	14.8125	4.1875
18	12	12	16	24	44	0.902647237746	0.0270385236542	0.246520535077	-0.56982421875	-0.12451171875	1.04736328125	-31.3125	10.125	0.4375
18	12	12	16	24	44	0.902534563353	0.0235597715192	0.249696956697	-0.529296875	-0.23828125	0.94384765625	-21.25	8.1875	6.1875
18	12	12	16	24	44	0.902612127794	0.0234381293666	0.25171574351	-0.388671875	-0.09619140625	0.9033203125	-9.625	16.4375	7.625
18	12	12	16	24	44	0.90202104579	0.0233775924034	0.255322373429	-0.43017578125	-0.0654296875	0.85400390625	-13.0	22.125	1.9375
18	12	12	16	24	44	0.900171211003	0.0213628915006	0.25983379748	-0.5126953125	-0.083984375	0.8076171875	-20.0625	18.0625	-17.5625
18	12	12	16	24	44	0.899203021782	0.0164800988244	0.264719217042	-0.55419921875	-0.0859375	0.81640625	-39.875	11.5	-8.3125
18	12	12	16	24	44	0.898326645645	0.0110475012136	0.268680112388	-0.46044921875	-0.12548828125	0.81689453125	-38.5625	11.1875	-8.6875
18	12	12	16	24	44	0.897012039898	0.00683623764756	0.273083278886	-0.5380859375	-0.1552734375	0.7841796875	-31.125	11.3125	-11.125
18	12	12	16	24	44	0.896028667892	0.00164800913032	0.276682421768	-0.54833984375	-0.162109375	0.822265625	-35.5625	6.0	-10.5
18	12	12	16	24	44	0.896069873941	-0.00579842231622	0.279239811544	-0.5576171875	-0.13720703125	0.9248046875	-52.0	-2.625	-3.75
18	12	12	16	24	44	0.896636766783	-0.0148930817628	0.280527064679	-0.47412109375	-0.26220703125	0.85888671875	-51.375	-10.6875	2.875
18	12	12	16	24	44	0.898061184485	-0.0223401341345	0.279984140096	-0.39501953125	-0.173828125	0.9501953125	-48.1875	-10.8125	9.25
18	12	12	16	24	44	0.899374393294	-0.0260626308746	0.279425583475	-0.37255859375	-0.0556640625	0.94140625	-35.25	-2.625	9.3125
18	12	12	16	24	44	0.899501417716	-0.0291146214461	0.280464749569	-0.52099609375	-0.15625	0.91064453125	-26.4375	-0.5	-0.6875
18	12	12	16	24	44	0.899285208264	-0.0333859786155	0.282285468184	-0.62939453125	-0.25634765625	0.92529296875	-28.75	-4.4375	-2.0625
18	12	12	16	24	44	0.899683833049	-0.0373545797711	0.284004672671	-0.5263671875	-0.22412109375	0.79736328125	-29.5625	-3.5625	8.375
18	12	12	16	24	44	0.900107709463	-0.039002429399	0.286445072253	-0.56005859375	-0.240234375	0.748046875	-18.1875	1.25	14.5
18	12	12	16	24	44	0.900337513748	-0.0414432358372	0.289309186846	-0.60888671875	-0.24560546875	0.74560546875	-23.0	-0.5625	12.375
18	12	12	16	24	44	0.900573557692	-0.0465087801397	0.291320744891	-0.513671875	-0.3251953125	0.73193359375	-30.125	-4.6875	10.4375
18	12	12	16	24	44	0.900241811379	-0.0532857211563	0.294811034576	-0.60498046875	-0.37646484375	0.62158203125	-37.5	-7.9375	7.5625
18	12	12	16	24	44	0.899917004142	-0.0593881745137	0.298649884785	-0.63818359375	-0.46484375	0.58251953125	-30.5	-7.6875	12.9375
18	12	12	16	24	44	0.900283236139	-0.0659190437308	0.300542010491	-0.53955078125	-0.46630859375	0.64453125	-31.25	-12.0625	16.9375
18	12	12	16	24	44	0.900813986771	-0.0708004759573	0.30132926707	-0.5869140625	-0.46435546875	0.72705078125	-21.75	-14.625	14.0
18	12	12	16	24	44	0.901744515977	-0.0719613364246	0.301639461078	-0.50146484375	-0.36328125	0.712890625	-7.1875	-6.625	18.8125
18	12	12	16	24	44	0.901539890268	-0.0718424137336	0.302751378181	-0.5068359375	-0.4873046875	0.6767578125	10.6875	1.375	8.9375
18	12	12	16	24	44	0.900524822694	-0.0730600659323	0.30524092709	-0.6416015625	-0.52978515625	0.6669921875	4.5625	-0.0625	0.4375
18	12	12	16	24	44	0.900021596003	-0.0736081679628	0.307372084462	-0.6162109375	-0.52685546875	0.60009765625	8.0	-2.6875	8.3125
18	12	12	16	24	44	0.900552633653	-0.071109110628	0.307936019844	-0.54052734375	-0.51708984375	0.6337890625	24.625	-1.75	20.5
18	12	12	16	24	44	0.902011827766	-0.0654321748115	0.306041907187	-0.4599609375	-0.38623046875	0.76123046875	36.8125	-1.8125	21.9375
18	12	12	16	24	44	0.903274342391	-0.0588388719552	0.303593930607	-0.36572265625	-0.28564453125	0.86083984375	37.375	6.8125	15.3125
18	12	12	16	24	44	0.903232323234	-0.0540181515111	0.302928910678	-0.4990234375	-0.2353515625	0.8544921875	25.75	7.6875	-1.8125
18	12	12	16	24	44	0.903574763482	-0.051758403096	0.302188506755	-0.52294921875	-0.27978515625	0.8564453125	12.75	0.6875	3.4375
18	12	12	16	24	44	0.90421055472	-0.0486469428994	0.300548992267	-0.44677734375	-0.177734375	0.90673828125	12.4375	3.0625	2.8125
18	12	12	16	24	44	0.904569111623	-0.0436414922274	0.299691925646	-0.50048828125	-0.1982421875	0.89306640625	23.5625	7.5	4.375
18	12	12	16	24	44	0.904638589508	-0.0383926639768	0.298046706198	-0.5166015625	-0.23486328125	0.9599609375	30.25	5.875	-3.0
18	12	12	16	24	45	0.905423153048	-0.0335703609395	0.294930880108	-0.39208984375	-0.07861328125	0.99755859375	20.4375	4.4375	-1.375
18	12	12	16	24	45	0.906459556525	-0.0321664659813	0.291634486639	-0.35107421875	-0.16162109375	1.0283203125	5.8125	0.1875	1.9375
18	12	12	16	24	45	0.906836965883	-0.0324110135885	0.288952426229	-0.384765625	-0.20458984375	0.95849609375	2.125	-3.0625	-6.625
18	12	12	16	24	45	0.907623315973	-0.0320445353655	0.286386590353	-0.39990234375	-0.2060546875	0.97265625	2.5625	-3.4375	1.625
18	12	12	16	24	45	0.909713217385	-0.03003079059	0.281813333647	-0.314453125	0.03173828125	1.0478515625	-2.4375	-6.125	9.0
18	12	12	16	24	45	0.912013698671	-0.0272835044375	0.27704659204	-0.47509765625	0.09716796875	1.05810546875	-2.625	-15.875	8.8125
18	12	12	16	24	45	0.914675797293	-0.0233765401283	0.272156638204	-0.4794921875	0.20703125	0.98095703125	-2.625	-18.875	13.0625
18	12	12	16	24	45	0.916222768215	-0.0211797548845	0.269843505315	-0.58740234375	0.01513671875	0.86669921875	-1.3125	-17.0625	10.1875
18	12	12	16	24	45	0.917748654674	-0.0223394524881	0.268744834167	-0.732421875	0.02197265625	0.91162109375	-24.0625	-23.875	9.6875
18	12	12	16	24	45	0.919867371296	-0.0298464033285	0.268495558777	-0.6142578125	-0.1328125	0.81640625	-53.8125	-27.375	25.5625
18	12	12	16	24	45	0.921170424485	-0.0397350878836	0.268501768971	-0.50732421875	-0.39013671875	0.8408203125	-50.125	-21.625	20.75
18	12	12	16	24	45	0.921890870088	-0.0457771552282	0.26959692619	-0.50244140625	-0.4619140625	0.78564453125	-25.5	-9.75	22.25
18	12	12	16	24	45	0.922747748948	-0.0470590365418	0.270085910113	-0.505859375	-0.43212890625	0.76708984375	0.125	-6.375	24.6875
18	12	12	16	24	45	0.923164312831	-0.0473026342112	0.270998317287	-0.50537109375	-0.46875	0.6982421875	10.3125	-3.8125	20.5
18	12	12	16	24	45	0.923254207614	-0.0459612864163	0.272776877815	-0.45703125	-0.35205078125	0.689453125	11.375	6.875	17.0625
18	12	12	16	24	45	0.923382442334	-0.0450460234296	0.275037102403	-0.4208984375	-0.22412109375	0.65234375	0.0625	10.0	17.0
18	12	12	16	24	45	0.922827190481	-0.0470599751214	0.277720994556	-0.60107421875	-0.39013671875	0.6416015625	-4.5625	-1.9375	6.625
18	12	12	16	24	45	0.922281255653	-0.0495016610413	0.279736267019	-0.6171875	-0.47705078125	0.62890625	0.75	-7.0625	5.375
18	12	12	16	24	45	0.923134677508	-0.0479146205927	0.279247629569	-0.47509765625	-0.328125	0.71533203125	13.0625	-5.5625	18.875
18	12	12	16	24	45	0.924262140341	-0.0433963139261	0.278017172902	-0.46826171875	-0.20947265625	0.7373046875	24.125	-4.375	18.375
18	12	12	16	24	45	0.924842705528	-0.0396134448183	0.277660339721	-0.5888671875	-0.251953125	0.7568359375	22.0625	-6.0625	12.25
18	12	12	16	24	45	0.92488437658	-0.037049087084	0.277654525775	-0.583984375	-0.298828125	0.7919921875	19.9375	-3.4375	4.5
18	12	12	16	24	45	0.924678598958	-0.0369871439583	0.277220475014	-0.55908203125	-0.443359375	0.91943359375	15.5625	-2.875	0.5
18	12	12	16	24	45	0.925224759251	-0.0339352837353	0.27532745491	-0.43212890625	-0.25927734375	1.03564453125	20.125	3.8125	5.4375
18	12	12	16	24	45	0.927154022927	-0.0266732263344	0.271371085315	-0.25439453125	0.1259765625	1.1591796875	18.75	11.3125	16.0
18	12	12	16	24	45	0.92819990853	-0.0209359221823	0.268687840952	-0.2978515625	-0.005859375	1.00537109375	21.75	9.0625	8.5625
18	12	12	16	24	45	0.926418740304	-0.0190435266158	0.27014951539	-0.51904296875	-0.20947265625	0.93896484375	16.25	15.0	-25.25
18	12	12	16	24	45	0.925148719347	-0.017517825589	0.273632097963	-0.63427734375	-0.0322265625	0.955078125	-5.625	18.375	-11.125
18	12	12	16	24	45	0.927071270074	-0.0151978896733	0.271791978777	-0.5263671875	0.2001953125	1.10986328125	-17.875	-2.6875	18.125
18	12	12	16	24	45	0.928893451241	-0.0151367091075	0.268432446189	-0.34765625	0.0693359375	1.02880859375	-15.4375	-6.125	12.25
18	12	12	16	24	45	0.929571758204	-0.016052355378	0.267702017825	-0.50244140625	0.01318359375	0.9814453125	-18.6875	-3.0	2.625
18	12	12	16	24	45	0.929866731921	-0.016846738743	0.268510158443	-0.57275390625	-0.15283203125	0.90576171875	-10.0	-0.4375	8.4375
18	12	12	16	24	45	0.9304050935	-0.0151374705234	0.268568025415	-0.55029296875	-0.1455078125	0.87353515625	4.75	-1.1875	12.625
18	12	12	16	24	45	0.931879312913	-0.0116584102159	0.267105775418	-0.470703125	-0.0048828125	0.7734375	7.0625	-7.0	22.5625
18	12	12	16	24	45	0.932268740982	-0.0118410459441	0.267644260129	-0.66162109375	-0.3115234375	0.78369140625	5.5	-10.6875	15.0
18	12	12	16	24	45	0.932906630386	-0.0125128146578	0.267591119315	-0.6181640625	-0.244140625	0.8994140625	-2.3125	-8.4375	15.0
18	12	12	16	24	45	0.9356848228	-0.00622569158027	0.26361531309	-0.146484375	0.27001953125	0.8056640625	5.6875	1.25	35.4375
18	12	12	16	24	45	0.936991909841	0.000183113525472	0.261730265741	-0.4443359375	-0.05712890625	0.76611328125	29.375	-4.125	26.25
18	12	12	16	24	45	0.935793745248	0.000488282674275	0.265564739471	-0.818359375	-0.47265625	0.671875	19.8125	-3.125	5.5625
18	12	12	16	24	45	0.93490118109	-0.00140384717406	0.269782804754	-0.66943359375	-0.39306640625	0.6689453125	0.0	4.8125	10.6875
18	12	12	16	24	45	0.935563025759	-0.00183108629781	0.271611134175	-0.546875	-0.119140625	0.47509765625	-9.125	-7.5625	25.5625
18	12	12	16	24	45	0.937039725416	-0.004211551658	0.271248341568	-0.619140625	-0.20703125	0.724609375	-15.5	-18.6875	31.25
18	12	12	16	24	45	0.938141858171	-0.00921661812517	0.271615567265	-0.60009765625	-0.1865234375	0.7783203125	-31.6875	-14.1875	23.6875
18	12	12	16	24	45	0.939235399877	-0.0136722595251	0.270942678714	-0.572265625	-0.21533203125	0.88037109375	-25.625	-14.3125	18.9375
18	12	12	16	24	45	0.940273298198	-0.0168461817788	0.270027203585	-0.5302734375	-0.21826171875	0.849609375	-16.875	-12.3125	18.4375
18	12	12	16	24	45	0.941729128397	-0.0171512013144	0.267888336544	-0.4951171875	-0.16259765625	0.8759765625	-4.0	-13.625	22.8125
18	12	12	16	24	45	0.942909736792	-0.0161749793015	0.266307300727	-0.38818359375	-0.18798828125	0.87890625	4.8125	-2.4375	23.875
18	12	12	16	24	45	0.943213749637	-0.0137334558771	0.266551119179	-0.509765625	-0.11572265625	0.890625	9.125	3.75	12.0
18	12	12	16	24	45	0.94372795785	-0.0110481055799	0.266741554609	-0.5458984375	-0.06787109375	1.0634765625	5.0	7.6875	15.75
18	12	12	16	24	45	0.944432924954	-0.00885043457108	0.266855861688	-0.46875	0.06494140625	1.08642578125	-6.4375	11.6875	16.75
18	12	12	16	24	46	0.945116687578	-0.00634798085173	0.266981425437	-0.43505859375	0.05615234375	1.0048828125	-3.5	11.5625	17.9375
18	12	12	16	24	46	0.945163358784	-0.00616477231108	0.268991599752	-0.462890625	-0.01806640625	0.92822265625	-12.3125	15.875	14.3125
18	12	12	16	24	46	0.944920893878	-0.00567648363353	0.272288102034	-0.56201171875	0.05615234375	0.7412109375	-15.5625	11.8125	13.6875
18	12	12	16	24	46	0.945369205796	-0.00726361928523	0.274369484766	-0.5810546875	0.09521484375	0.7470703125	-31.0	1.0	20.5
18	12	12	16	24	46	0.946295258102	-0.0122071111726	0.27545346361	-0.49267578125	-0.0654296875	0.689453125	-40.6875	-5.25	30.0625
18	12	12	16	24	46	0.946984950064	-0.0162357716221	0.275458786957	-0.53466796875	-0.1298828125	0.8349609375	-28.0	-6.6875	17.5
18	12	12	16	24	46	0.947966250806	-0.0186773338965	0.27515497126	-0.54150390625	-0.142578125	0.82666015625	-20.0	-8.25	27.1875
18	12	12	16	24	46	0.94877913092	-0.0186777157785	0.274061907992	-0.5712890625	-0.26904296875	0.904296875	4.625	-8.9375	21.875
18	12	12	16	24	46	0.950108978732	-0.0150762506583	0.272410148534	-0.486328125	-0.0048828125	0.931640625	6.375	-3.9375	29.4375
18	12	12	16	24	46	0.951187944687	-0.0120241289209	0.271000672126	-0.5087890625	-0.0712890625	0.876953125	9.4375	-5.9375	26.3125
18	12	12	16	24	46	0.952019455678	-0.0116583776389	0.270217998993	-0.5263671875	-0.03515625	0.849609375	-7.0	-6.75	20.4375
18	12	12	16	24	46	0.952502173649	-0.013855686858	0.270643680741	-0.50537109375	-0.10498046875	0.76611328125	-18.3125	-3.0	20.6875
18	12	12	16	24	46	0.953166208166	-0.0161750156995	0.270458470055	-0.57373046875	-0.00390625	0.67529296875	-24.25	-14.625	17.3125
18	12	12	16	24	46	0.953543192066	-0.0222180080599	0.270583598158	-0.64111328125	-0.302734375	0.69189453125	-26.3125	-18.5625	17.6875
18	12	12	16	24	46	0.95341234139	-0.0286267854105	0.271923942439	-0.69384765625	-0.3662109375	0.65771484375	-24.75	-15.375	14.5625
18	12	12	16	24	46	0.954252655197	-0.0278328777517	0.271248484054	-0.66748046875	-0.24072265625	0.63671875	6.5625	-22.25	30.625
18	12	12	16	24	46	0.956034626574	-0.0247202977566	0.267223366861	-0.603515625	-0.29296875	0.78466796875	24.9375	-31.4375	35.5
18	12	12	16	24	46	0.958482529452	-0.0148322775684	0.260755101944	-0.42626953125	-0.1005859375	0.7783203125	54.25	-31.6875	37.375
18	12	12	16	24	46	0.960085665228	-0.00427247276325	0.255676977218	-0.357421875	-0.12255859375	0.86328125	63.1875	-15.6875	25.25
18	12	12	16	24	46	0.960533824242	0.00238042950661	0.253546260781	-0.49609375	-0.0693359375	0.84619140625	40.5625	-9.625	4.6875
18	12	12	16	24	46	0.961490677279	0.00671432037206	0.250505189154	-0.47314453125	0.041015625	0.89599609375	18.0625	-13.75	12.25
18	12	12	16	24	46	0.962720590305	0.00567634659851	0.246707451088	-0.361328125	-0.08984375	1.0400390625	-3.75	-10.625	12.75
18	12	12	16	24	46	0.963612840153	0.00781291211374	0.243909350051	-0.2216796875	0.0517578125	1.04296875	4.9375	5.5625	10.875
18	12	12	16	24	46	0.964157625318	0.00561550402186	0.242382244248	-0.47119140625	-0.1630859375	0.95458984375	-5.875	-8.3125	8.5
18	12	12	16	24	46	0.964530128112	0.00488307873997	0.241102012786	-0.62890625	-0.15087890625	0.9619140625	2.875	-15.75	4.5625
18	12	12	16	24	46	0.965441353086	0.00842327285363	0.240124314538	-0.3984375	0.24267578125	1.00341796875	-6.4375	3.8125	31.9375
18	12	12	16	24	46	0.9672425087	0.00830093905365	0.237370235144	-0.236328125	0.4677734375	1.02001953125	-46.1875	0.875	48.0
18	12	12	16	24	46	0.968870733422	0.000976622675912	0.233534897377	-0.349609375	0.1123046875	1.00341796875	-58.5625	-17.0	27.5625
18	12	12	16	24	46	0.969821629655	-0.0040284616752	0.230965136045	-0.4208984375	0.06396484375	0.966796875	-39.0	-14.0	13.8125
18	12	12	16	24	46	0.970438291676	-0.00646999552913	0.230356255915	-0.400390625	0.09375	0.974609375	-30.875	0.125	27.5
18	12	12	16	24	46	0.97109646663	-0.00744649710426	0.229071341248	-0.35302734375	-0.00634765625	0.943359375	-14.125	-1.625	26.0
18	12	12	16	24	46	0.971398030192	-0.00811787232269	0.228154937911	-0.46875	-0.1953125	0.92919921875	4.1875	-6.125	11.4375
18	12	12	16	24	46	0.971533001341	-0.00640893165426	0.228219004336	-0.44970703125	-0.056640625	0.92919921875	7.4375	1.125	14.125
18	12	12	16	24	46	0.971562420276	-0.00567665421158	0.229080465119	-0.35400390625	-0.01416015625	0.86767578125	-2.375	9.875	20.4375
18	12	12	16	24	46	0.971110019261	-0.00866735529447	0.231332933564	-0.51123046875	-0.0703125	0.826171875	-18.0625	5.6875	6.1875
18	12	12	16	24	46	0.970508724883	-0.0141608820234	0.234020783094	-0.6083984375	-0.1650390625	0.7666015625	-26.5	0.1875	5.9375
18	12	12	16	24	46	0.970305400359	-0.0195928812679	0.235358723268	-0.52783203125	-0.0263671875	0.79248046875	-37.375	-1.8125	12.625
18	12	12	16	24	46	0.970005281813	-0.0267953887941	0.236641736571	-0.50537109375	-0.1103515625	0.798828125	-42.5625	-0.875	10.9375
18	12	12	16	24	46	0.969377272043	-0.0348516825549	0.238407481715	-0.55078125	-0.17138671875	0.751953125	-41.4375	-1.875	-2.0625
18	12	12	16	24	46	0.968485318207	-0.0416277170869	0.241098947937	-0.5986328125	-0.25048828125	0.7890625	-29.9375	2.8125	-0.5
18	12	12	16	24	46	0.968009327124	-0.0456567864739	0.242566937764	-0.53369140625	-0.18994140625	0.8408203125	-19.8125	1.9375	5.4375
18	12	12	16	24	46	0.967976139931	-0.0468149126255	0.242680694392	-0.49658203125	-0.240234375	0.8076171875	0.5	-4.1875	8.3125
18	12	12	16	24	46	0.967957527386	-0.0463867659256	0.242737063271	-0.49169921875	-0.30078125	0.8095703125	15.375	-3.125	3.5
18	12	12	16	24	46	0.96782712034	-0.0464503303846	0.243299628007	-0.416015625	-0.2080078125	0.92529296875	4.625	7.75	5.375
18	12	12	16	24	46	0.967697589215	-0.0463278964434	0.244152286922	-0.3388671875	0.05322265625	0.9423828125	-12.75	14.75	5.75
18	12	12	16	24	46	0.967027625959	-0.051638286408	0.245861722992	-0.49658203125	-0.15966796875	1.11376953125	-30.6875	15.4375	-2.0
18	12	12	16	24	46	0.966281325967	-0.0572529773077	0.247994506184	-0.53857421875	0.0029296875	0.96533203125	-45.0	10.0	2.8125
18	12	12	16	24	46	0.965675140774	-0.0604271783937	0.249948783356	-0.32080078125	-0.0205078125	0.9814453125	-29.625	23.8125	6.25
18	12	12	16	24	46	0.96464137474	-0.0665312008647	0.252696487688	-0.48046875	-0.02197265625	0.89306640625	-45.9375	15.5625	0.375
18	12	12	16	24	46	0.963832884414	-0.0714131134674	0.254401587121	-0.46923828125	-0.18505859375	0.8505859375	-25.1875	10.5625	-7.3125
18	12	12	16	24	47	0.963078286917	-0.0759891290457	0.256043691845	-0.52001953125	-0.12841796875	0.95751953125	-30.3125	10.25	-2.9375
18	12	12	16	24	47	0.962717464675	-0.0798348090912	0.256716519142	-0.47412109375	-0.0859375	0.9384765625	-33.375	5.4375	13.4375
18	12	12	16	24	47	0.962862896987	-0.0826444603816	0.255624076867	-0.4892578125	-0.044921875	0.93505859375	-28.5	-5.5625	8.0
18	12	12	16	24	47	0.962818376322	-0.0842328743074	0.255506385399	-0.49072265625	-0.1044921875	0.8583984375	-16.625	-2.0	8.0
18	12	12	16	24	47	0.962116682147	-0.0863054614322	0.257634620018	-0.5908203125	-0.11328125	0.7216796875	-17.4375	1.0	5.6875
18	12	12	16	24	47	0.961197558936	-0.0888686592463	0.260197180197	-0.7490234375	-0.25830078125	0.82177734375	-10.1875	-0.875	-2.1875
18	12	12	16	24	47	0.960324333279	-0.0932673731171	0.262100850893	-0.68310546875	-0.25	0.71728515625	-23.6875	-5.5625	9.25
18	12	12	16	24	47	0.960266832313	-0.0963135486805	0.261474805163	-0.5390625	-0.27294921875	0.72119140625	-16.5	-12.625	19.375
18	12	12	16	24	47	0.96016109589	-0.0993669991805	0.260868890969	-0.5107421875	-0.38037109375	0.7587890625	-8.875	-8.625	16.3125
18	12	12	16	24	47	0.959528161229	-0.101324220588	0.262466354535	-0.482421875	-0.34130859375	0.70458984375	-2.0	5.625	6.0625
18	12	12	16	24	47	0.958942471697	-0.103517690281	0.263799208368	-0.54248046875	-0.3271484375	0.81689453125	-6.5625	4.1875	7.75
18	12	12	16	24	47	0.958597909442	-0.106205690062	0.264049319086	-0.4697265625	-0.2724609375	0.75	-12.375	-0.375	8.0
18	12	12	16	24	47	0.958296596177	-0.10773206957	0.264599728944	-0.47802734375	-0.1787109375	0.8466796875	-14.6875	4.0	10.6875
18	12	12	16	24	47	0.957752619042	-0.109807976653	0.265760939603	-0.498046875	-0.1640625	0.74658203125	-16.3125	3.375	7.6875
18	12	12	16	24	47	0.957108041254	-0.111879283185	0.267216313029	-0.58349609375	-0.2001953125	0.841796875	-13.3125	4.8125	-3.6875
18	12	12	16	24	47	0.955903206165	-0.117801748796	0.268990832614	-0.5654296875	-0.3232421875	0.763671875	-27.6875	5.5625	-1.0625
18	12	12	16	24	47	0.95529851637	-0.121830927013	0.269358657769	-0.57177734375	-0.2509765625	0.85986328125	-24.1875	0.0625	0.0
18	12	12	16	24	47	0.955092935283	-0.125062974463	0.268619888048	-0.5908203125	-0.3095703125	0.775390625	-16.5625	-11.75	9.5
18	12	12	16	24	47	0.955179763251	-0.126470219788	0.267650537533	-0.5732421875	-0.41455078125	0.7880859375	2.0	-10.875	5.625
18	12	12	16	24	47	0.955432483948	-0.125311626496	0.26728670844	-0.5537109375	-0.20361328125	0.72216796875	3.875	-9.8125	8.375
18	12	12	16	24	47	0.956604497469	-0.120849671728	0.26507582036	-0.43896484375	-0.00146484375	0.84375	5.0	-12.5625	21.375
18	12	12	16	24	47	0.957261097161	-0.119085404614	0.263440597803	-0.49365234375	-0.1865234375	0.8486328125	4.375	-10.375	12.25
18	12	12	16	24	47	0.957937395422	-0.117560049929	0.261610786083	-0.53271484375	-0.236328125	0.8857421875	6.6875	-11.9375	9.125
18	12	12	16	24	47	0.958715716658	-0.115421876883	0.259653444876	-0.46142578125	-0.21435546875	0.9658203125	8.1875	-6.0625	9.4375
18	12	12	16	24	47	0.959156697443	-0.112920955216	0.258985736748	-0.53662109375	-0.1103515625	0.98046875	1.6875	-3.5625	14.875
18	12	12	16	24	47	0.959802176416	-0.110476434932	0.257391782381	-0.48388671875	-0.00439453125	0.970703125	-5.9375	-7.25	18.3125
18	12	12	16	24	47	0.960234667001	-0.109622518557	0.255867259348	-0.466796875	-0.091796875	1.00146484375	-9.0	-4.125	16.0
18	12	12	16	24	47	0.960695817274	-0.108466641292	0.254289267092	-0.43994140625	-0.06103515625	0.97021484375	-8.8125	-4.3125	17.0625
18	12	12	16	24	47	0.961410415304	-0.105839988581	0.25214820809	-0.37060546875	0.04150390625	0.884765625	-7.0	-8.0625	23.125
18	12	12	16	24	47	0.961824202774	-0.104373612561	0.250679781748	-0.4560546875	-0.02783203125	0.80126953125	-6.25	-10.9375	17.5625
18	12	12	16	24	47	0.962053859093	-0.104616185413	0.249150098517	-0.568359375	-0.15380859375	0.765625	-7.6875	-18.8125	17.375
18	12	12	16	24	47	0.962332102693	-0.10700039173	0.246351158599	-0.544921875	-0.17333984375	0.82080078125	-19.875	-22.9375	17.5625
18	12	12	16	24	47	0.962478647932	-0.111268855043	0.24219134219	-0.50244140625	-0.12451171875	0.87060546875	-41.0	-28.4375	37.375
18	12	12	16	24	47	0.962689893921	-0.116460329546	0.23682708524	-0.47802734375	-0.076171875	1.0078125	-51.6875	-29.875	34.0625
18	12	12	16	24	47	0.962575677287	-0.121588506605	0.232251138369	-0.37744140625	-0.09521484375	0.93896484375	-49.875	-21.5	36.625
18	12	12	16	24	47	0.961935864702	-0.128054660162	0.230229827516	-0.41455078125	-0.3193359375	0.83203125	-35.0625	-8.5625	15.9375
18	12	12	16	24	47	0.960730565593	-0.134404619151	0.23005041307	-0.6328125	-0.24658203125	0.93115234375	-42.3125	-8.4375	16.875
18	12	12	16	24	47	0.959358981043	-0.142640408366	0.2285176247	-0.48583984375	-0.2958984375	0.8212890625	-51.4375	-10.4375	26.375
18	12	12	16	24	47	0.957889785213	-0.14935365773	0.228089341617	-0.52099609375	-0.22998046875	0.80615234375	-46.3125	-6.9375	23.375
18	12	12	16	24	47	0.956738365194	-0.153627461894	0.227847165376	-0.5068359375	-0.2744140625	0.77001953125	-28.875	-7.3125	24.8125
18	12	12	16	24	47	0.955714123618	-0.158451517749	0.226629616873	-0.52783203125	-0.251953125	0.73974609375	-33.25	-14.6875	19.9375
18	12	12	16	24	47	0.954730191847	-0.163394241374	0.224491602456	-0.515625	-0.279296875	0.77392578125	-34.9375	-18.1875	24.8125
18	12	12	16	24	47	0.953804278404	-0.167603925801	0.221986699978	-0.466796875	-0.2041015625	0.77490234375	-36.6875	-19.0625	27.625
18	12	12	16	24	47	0.953076515897	-0.171266903849	0.219424276314	-0.5126953125	-0.3203125	0.7958984375	-25.625	-20.75	24.0
18	12	12	16	24	47	0.952633889861	-0.17267900778	0.217176355489	-0.4462890625	-0.23974609375	0.83056640625	-18.375	-16.0	25.4375
18	12	12	16	24	47	0.952109856168	-0.173527041547	0.214909853424	-0.42626953125	-0.23828125	0.8466796875	-17.25	-15.875	32.25
18	12	12	16	24	47	0.951157467767	-0.177254783187	0.214427015611	-0.63623046875	-0.57470703125	0.9296875	-8.875	-9.4375	16.0625
18	12	12	16	24	47	0.949697928586	-0.180734980818	0.214611345003	-0.609375	-0.3662109375	0.95166015625	-24.125	-5.5625	25.8125
18	12	12	16	24	47	0.948680532532	-0.180544104435	0.213564510283	-0.32470703125	-0.14306640625	0.978515625	-22.5	-1.1875	44.3125
18	12	12	16	24	47	0.947636103983	-0.180664876194	0.212464335821	-0.4365234375	-0.05908203125	1.03955078125	-29.125	-5.25	36.0625
18	12	12	16	24	48	0.946596101957	-0.18109166513	0.213745538014	-0.45068359375	-0.287109375	0.8134765625	-5.75	4.25	24.375
18	12	12	16	24	48	0.945106192834	-0.181464783731	0.216439328325	-0.52197265625	-0.1845703125	0.7587890625	-10.625	6.0625	25.25
18	12	12	16	24	48	0.943976432716	-0.181336737463	0.218141198146	-0.4609375	-0.27734375	0.67333984375	-0.5	1.25	26.9375
18	12	12	16	24	48	0.942697220903	-0.181642403976	0.220400107781	-0.54052734375	-0.26806640625	0.62158203125	-1.5	-0.6875	22.8125
18	12	12	16	24	48	0.941462463663	-0.181895626408	0.221876040937	-0.5791015625	-0.39990234375	0.59716796875	5.5	-8.6875	29.9375
18	12	12	16	24	48	0.940709801654	-0.182563133711	0.221321940099	-0.57373046875	-0.47314453125	0.564453125	7.25	-19.9375	25.9375
18	12	12	16	24	48	0.940293623205	-0.181039330505	0.219981708408	-0.49560546875	-0.4462890625	0.59521484375	15.1875	-23.0	35.1875
18	12	12	16	24	48	0.939633139323	-0.178660919761	0.218580373647	-0.5087890625	-0.27099609375	0.7119140625	4.875	-22.375	40.8125
18	12	12	16	24	48	0.939157860906	-0.176271391584	0.218141950665	-0.51416015625	-0.302734375	0.79736328125	9.9375	-13.25	31.3125
18	12	12	16	24	48	0.93834252428	-0.175668365633	0.218090017515	-0.64794921875	-0.3515625	1.02685546875	0.375	-8.0	26.0625
18	12	12	16	24	48	0.938202734593	-0.173101486911	0.217658639747	-0.5234375	-0.36767578125	1.0166015625	14.0	-5.375	24.4375
18	12	12	16	24	48	0.938225383281	-0.167123876093	0.219311938204	-0.41796875	-0.28076171875	0.974609375	31.625	7.0	28.3125
18	12	12	16	24	48	0.938180285015	-0.159730518892	0.223695969331	-0.46484375	-0.22412109375	0.783203125	45.375	12.625	21.625
18	12	12	16	24	48	0.937923111291	-0.154489352771	0.22895676106	-0.58642578125	-0.36865234375	0.75537109375	46.6875	14.0	13.3125
18	12	12	16	24	48	0.936853501167	-0.152836091402	0.234442263208	-0.64697265625	-0.40576171875	0.69384765625	29.625	15.125	13.625
18	12	12	16	24	48	0.935464168928	-0.150580066863	0.239634107217	-0.63818359375	-0.3251953125	0.7431640625	24.125	14.6875	23.5625
18	12	12	16	24	48	0.934228810091	-0.147037580263	0.243902935132	-0.61669921875	-0.25	0.78564453125	24.4375	9.6875	28.0625
18	12	12	16	24	48	0.93343557376	-0.140506682194	0.247565205465	-0.59130859375	-0.20458984375	0.77392578125	37.3125	3.625	33.375
18	12	12	16	24	48	0.933424508539	-0.129762669532	0.250797182082	-0.43408203125	-0.03125	0.83642578125	51.3125	6.6875	30.9375
18	12	12	16	24	48	0.933430227144	-0.118288614412	0.253179139619	-0.33984375	0.10546875	0.951171875	45.75	10.4375	31.5625
18	12	12	16	24	48	0.934223147438	-0.108339611048	0.254216608459	-0.3486328125	0.00146484375	0.85546875	48.8125	1.8125	15.0625
18	12	12	16	24	48	0.934679575687	-0.105657307224	0.255384271186	-0.51904296875	-0.35400390625	0.943359375	34.4375	7.125	3.5625
18	12	12	16	24	48	0.93422677055	-0.103884356689	0.257391499504	-0.541015625	-0.01513671875	0.951171875	6.75	11.9375	4.0
18	12	12	16	24	48	0.932999544914	-0.102113583582	0.256840382376	-0.4716796875	0.11962890625	1.03271484375	-14.1875	2.875	31.75
18	12	12	16	24	48	0.932196954559	-0.101685335317	0.255495086216	-0.47216796875	0.08251953125	0.990234375	-16.875	-1.0625	21.3125
18	12	12	16	24	48	0.931214030574	-0.0999822091033	0.256791913124	-0.56884765625	0.0205078125	0.85546875	0.375	1.75	18.4375
18	12	12	16	24	48	0.93065577868	-0.0954033568621	0.257705036898	-0.55859375	0.072265625	0.86474609375	13.375	-3.5625	19.375
18	12	12	16	24	48	0.929788334283	-0.0905190113399	0.258617027004	-0.55078125	0.072265625	0.75439453125	14.1875	-8.0	27.0625
18	12	12	16	24	48	0.92911638748	-0.087344997404	0.258616879106	-0.61328125	0.02001953125	0.7431640625	8.25	-14.8125	22.875
18	12	12	16	24	48	0.928125167613	-0.0867332541877	0.256720666512	-0.54736328125	-0.0400390625	0.72998046875	-7.8125	-18.375	32.6875
18	12	12	16	24	48	0.927748640299	-0.0869153989332	0.253971190282	-0.54443359375	-0.20947265625	0.76611328125	-0.25	-20.8125	26.6875
18	12	12	16	24	48	0.927110323203	-0.0860639644293	0.25153872157	-0.56298828125	-0.18994140625	0.6767578125	3.8125	-25.375	32.875
18	12	12	16	24	48	0.926821886108	-0.0831356301949	0.248979614952	-0.478515625	-0.2119140625	0.75634765625	16.8125	-21.5625	33.0625
18	12	12	16	24	48	0.926046817539	-0.0814838189701	0.246831883082	-0.47119140625	-0.05615234375	0.74609375	0.4375	-17.5	31.25
18	12	12	16	24	48	0.925623249603	-0.0816672540698	0.243842062787	-0.54541015625	-0.07177734375	0.880859375	-8.1875	-19.4375	22.375
18	12	12	16	24	48	0.924669882645	-0.0867965260494	0.239392387599	-0.5693359375	-0.0810546875	0.91162109375	-39.0	-20.125	22.625
18	12	12	16	24	48	0.923982076606	-0.0935090858344	0.234383087209	-0.45556640625	-0.14013671875	0.98681640625	-43.9375	-10.875	15.75
18	12	12	16	24	48	0.922877703607	-0.101809524446	0.229803872624	-0.4873046875	-0.044921875	1.01611328125	-59.4375	-6.75	10.9375
18	12	12	16	24	48	0.921549435426	-0.110600581335	0.225962114846	-0.46875	-0.1318359375	1.0	-55.5625	-1.1875	11.4375
18	12	12	16	24	48	0.919791425911	-0.120917566841	0.223401461201	-0.4951171875	-0.169921875	0.94580078125	-59.875	6.1875	8.5
18	12	12	16	24	48	0.917839734758	-0.128364498384	0.222669372375	-0.46533203125	-0.0390625	0.85498046875	-49.9375	9.75	9.125
18	12	12	16	24	48	0.915791938796	-0.136843876752	0.222233967552	-0.56884765625	-0.197265625	0.84375	-45.25	7.5625	9.3125
18	12	12	16	24	48	0.914557385727	-0.143006403815	0.222352679939	-0.55908203125	-0.23828125	0.6923828125	-25.875	2.6875	1.875
18	12	12	16	24	48	0.91350074366	-0.14630905269	0.223766786467	-0.67626953125	-0.4208984375	0.7626953125	1.9375	-0.0625	10.1875
18	12	12	16	24	48	0.912878340224	-0.14435392315	0.225228742674	-0.576171875	-0.36279296875	0.77783203125	25.25	-3.875	21.5625
18	12	12	16	24	48	0.912198998013	-0.1367840719	0.227485156614	-0.40673828125	-0.10693359375	0.92236328125	37.4375	4.4375	33.5625
18	12	12	16	24	48	0.912144244265	-0.12897221548	0.230233410691	-0.39697265625	-0.11865234375	0.84716796875	45.625	4.9375	21.5
18	12	12	16	24	48	0.912640423972	-0.12347990755	0.233653527486	-0.51611328125	-0.1357421875	0.74658203125	41.375	3.8125	1.375
18	12	12	16	24	48	0.913071743313	-0.120367503029	0.237133747093	-0.560546875	-0.1181640625	0.82275390625	29.1875	9.75	-6.8125
18	12	12	16	24	48	0.912681167398	-0.119448742366	0.239813034622	-0.462890625	0.0341796875	0.8466796875	3.6875	15.5625	-2.5
18	12	12	16	24	49	0.912751392069	-0.122745957567	0.240303746862	-0.5712890625	-0.166015625	0.80908203125	-8.0625	4.625	-11.4375
18	12	12	16	24	49	0.913667645575	-0.126286215425	0.239632518974	-0.61279296875	-0.236328125	0.80712890625	-4.875	-3.4375	-21.3125
18	12	12	16	24	49	0.913635340167	-0.12751097178	0.240250447548	-0.53759765625	-0.2646484375	0.8642578125	6.5	5.125	0.5
18	12	12	16	24	49	0.913726146817	-0.123966453185	0.241462968391	-0.4794921875	-0.09423828125	0.7744140625	21.6875	-0.8125	7.5625
18	12	12	16	24	49	0.914933599734	-0.11859346126	0.242863295086	-0.53662109375	-0.19677734375	0.81103515625	42.625	-4.5625	-3.1875
18	12	12	16	24	49	0.915970745317	-0.110292472632	0.245182547074	-0.52783203125	-0.05029296875	0.77197265625	50.9375	-6.0	1.1875
18	12	12	16	24	49	0.916174307459	-0.101444483611	0.247995750247	-0.52392578125	-0.0166015625	0.8486328125	49.625	-1.75	14.0625
18	12	12	16	24	49	0.917054935044	-0.0893005437946	0.249833988894	-0.40625	0.17529296875	0.90087890625	56.4375	-4.0625	8.0
18	12	12	16	24	49	0.91791310569	-0.0786747784583	0.250855965449	-0.3505859375	0.169921875	0.96484375	48.6875	-0.6875	5.875
18	12	12	16	24	49	0.919278936715	-0.0687277128173	0.251289514804	-0.2548828125	0.2060546875	1.080078125	45.5625	7.3125	-5.625
18	12	12	16	24	49	0.920666047284	-0.0671439801109	0.251179525597	-0.44091796875	-0.03271484375	1.07861328125	18.0	7.5625	-18.875
18	12	12	16	24	49	0.921854233138	-0.0725129331237	0.251231677388	-0.619140625	-0.0625	1.220703125	-15.5	15.375	-34.25
18	12	12	16	24	49	0.920867956603	-0.0813015256973	0.248726514427	-0.44970703125	0.3349609375	1.29736328125	-76.5625	20.125	-8.5625
18	12	12	16	24	49	0.918815394589	-0.0903372606119	0.24275086855	-0.3232421875	0.2177734375	1.0595703125	-85.8125	-0.3125	25.5
18	12	12	16	24	49	0.919700439759	-0.0982079909458	0.237798839481	-0.3369140625	-0.12939453125	1.0185546875	-42.75	1.6875	-18.0
18	12	12	16	24	49	0.91973304807	-0.105902365171	0.236098183564	-0.44921875	0.27294921875	0.94677734375	-62.1875	10.625	-30.25
18	12	12	16	24	49	0.919137988255	-0.11316035794	0.234987798312	-0.47265625	0.041015625	0.87060546875	-47.1875	9.1875	-13.1875
18	12	12	16	24	49	0.920012759123	-0.120365233264	0.230842450408	-0.4765625	0.1337890625	0.98876953125	-55.5625	-3.9375	-33.8125
18	12	12	16	24	49	0.919896716574	-0.127568451837	0.228036237351	-0.390625	-0.08349609375	0.84326171875	-42.875	3.3125	-13.5625
18	12	12	16	24	49	0.919967604551	-0.137641119179	0.225536113244	-0.49267578125	-0.0703125	0.8232421875	-56.3125	4.5625	-32.25
18	12	12	16	24	49	0.918980627979	-0.148199054512	0.224434894333	-0.58447265625	-0.0654296875	0.796875	-60.8125	6.8125	-22.6875
18	12	12	16	24	49	0.917568873925	-0.157292289503	0.2233953355	-0.4580078125	-0.11572265625	0.66748046875	-52.25	7.0625	-8.5625
18	12	12	16	24	49	0.916383636716	-0.165710774856	0.222656687541	-0.5234375	-0.19189453125	0.5703125	-41.75	0.8125	-11.3125
18	12	12	16	24	49	0.915144332814	-0.175362480369	0.22144625088	-0.65576171875	-0.34521484375	0.58984375	-40.6875	-5.8125	-12.3125
18	12	12	16	24	49	0.913441888411	-0.1850688811	0.219372545737	-0.60546875	-0.29296875	0.54052734375	-48.0	-9.6875	-5.375
18	12	12	16	24	49	0.911334055851	-0.194156696247	0.215580462478	-0.61572265625	-0.44775390625	0.595703125	-43.875	-20.6875	12.875
18	12	12	16	24	49	0.910448028062	-0.199900596132	0.211619959325	-0.56689453125	-0.46533203125	0.72021484375	-24.875	-19.5625	6.125
18	12	12	16	24	49	0.909828490643	-0.202218018885	0.210641226433	-0.4248046875	-0.30126953125	0.83447265625	-12.5625	3.125	6.125
18	12	12	16	24	49	0.908079135214	-0.20722784594	0.209791489395	-0.62451171875	-0.240234375	0.96435546875	-35.75	1.125	6.3125
18	12	12	16	24	49	0.90682805519	-0.212653223685	0.206549514624	-0.6171875	-0.2236328125	1.03564453125	-43.9375	-8.0625	0.0
18	12	12	16	24	49	0.904895350318	-0.217235922549	0.203624343249	-0.4755859375	-0.13232421875	1.0029296875	-48.25	-2.75	13.3125
18	12	12	16	24	49	0.90378479179	-0.22187193342	0.201912615063	-0.4130859375	-0.18994140625	0.90478515625	-36.1875	7.0625	-1.5
18	12	12	16	24	49	0.902673667343	-0.226934931042	0.202276052037	-0.56884765625	-0.2490234375	0.84130859375	-29.0625	10.0	-9.75
18	12	12	16	24	49	0.901587138373	-0.231393733774	0.202339812044	-0.51611328125	-0.22412109375	0.7939453125	-28.0625	8.625	-6.8125
18	12	12	16	24	49	0.900220427563	-0.234622504817	0.200747507374	-0.521484375	-0.04296875	0.78271484375	-38.3125	-6.625	0.8125
18	12	12	16	24	49	0.899077758189	-0.240181329156	0.19757737293	-0.51904296875	-0.42431640625	0.69970703125	-28.1875	-11.375	0.625
18	12	12	16	24	49	0.897456460821	-0.248184586118	0.195507926546	-0.662109375	-0.47412109375	0.546875	-32.625	-12.125	-8.625
18	12	12	16	24	49	0.896009156694	-0.25110229364	0.194582914955	-0.57763671875	-0.41357421875	0.5703125	-11.5625	-13.5	11.75
18	12	12	16	24	49	0.89378082733	-0.251843180603	0.193429723541	-0.6474609375	-0.38427734375	0.68505859375	-10.4375	-23.5625	33.3125
18	12	12	16	24	49	0.893470567171	-0.246897693961	0.192879286259	-0.61376953125	-0.40966796875	0.78759765625	23.6875	-25.4375	31.9375
18	12	12	16	24	49	0.893298979142	-0.237867176065	0.195750586	-0.54052734375	-0.14990234375	0.9072265625	34.9375	-8.0625	36.4375
18	12	12	16	24	49	0.894336730889	-0.227978957813	0.19825318741	-0.447265625	-0.24609375	0.93798828125	49.375	-3.0625	26.3125
18	12	12	16	24	49	0.894792502602	-0.221195636387	0.200626395365	-0.56689453125	-0.24560546875	1.033203125	32.5625	0.4375	18.4375
18	12	12	16	24	49	0.894811329077	-0.215523792836	0.203743534547	-0.37841796875	-0.05517578125	0.931640625	19.9375	14.0	14.9375
18	12	12	16	24	49	0.893655776283	-0.212778091396	0.205758733819	-0.35693359375	0.00390625	0.953125	-4.375	15.75	20.125
18	12	12	16	24	49	0.893050805697	-0.213939106963	0.20667555383	-0.4931640625	-0.2001953125	0.84765625	-8.1875	9.125	1.0625
18	12	12	16	24	49	0.892568676586	-0.216626289626	0.207348409653	-0.58203125	-0.23779296875	0.92626953125	-14.5	10.375	-7.1875
18	12	12	16	24	49	0.890916381756	-0.21693044812	0.206248729375	-0.47314453125	0.11376953125	0.8759765625	-33.0625	-4.625	13.625
