18	12	13	15	23	57	0.581364675603	0.611882506343	-0.157533042281	-0.4189453125	0.85205078125	0.2744140625	14.125	5.5625	-8.75
18	12	13	15	23	57	0.579963651171	0.613533426813	-0.156862406179	-0.42138671875	0.8544921875	0.25341796875	12.125	8.1875	-8.4375
18	12	13	15	23	57	0.578562398784	0.615306207632	-0.156679995535	-0.43359375	0.87255859375	0.22607421875	12.4375	7.625	-5.75
18	12	13	15	23	57	0.577109049005	0.61727168827	-0.156866235425	-0.41748046875	0.8720703125	0.19384765625	13.5	7.1875	-4.6875
18	12	13	15	23	57	0.576367109761	0.618604326742	-0.157351944188	-0.38623046875	0.9365234375	0.17822265625	8.1875	5.5625	-4.875
18	12	13	15	23	57	0.577776967332	0.617878326675	-0.155400397087	-0.39501953125	0.9560546875	0.1572265625	-16.1875	5.75	-7.6875
18	12	13	15	23	57	0.580687232707	0.616209617555	-0.151794108445	-0.39306640625	0.92724609375	0.173828125	-28.1875	10.4375	-7.875
18	12	13	15	23	57	0.582415064782	0.615558156396	-0.149174430762	-0.4296875	0.95166015625	0.15478515625	-19.5	8.6875	-6.1875
18	12	13	15	23	57	0.583805804103	0.615117082462	-0.147462082876	-0.447265625	0.98583984375	0.16455078125	-14.8125	6.5625	-4.0
18	12	13	15	23	57	0.585407368515	0.614644166504	-0.14703851014	-0.3408203125	0.96484375	0.15673828125	-11.625	5.25	-2.5
18	12	13	15	23	57	0.586257071648	0.61439496962	-0.148074925124	-0.3076171875	0.8935546875	0.169921875	-2.0	1.0625	-0.0625
18	12	13	15	23	57	0.586441063168	0.614029672718	-0.149478992891	-0.35888671875	0.8642578125	0.15234375	-0.625	-5.125	1.1875
18	12	13	15	23	57	0.586727027105	0.613338176987	-0.149596165966	-0.39990234375	0.85888671875	0.12109375	-8.5625	-5.75	-2.0625
18	12	13	15	23	57	0.586013796116	0.61409069917	-0.149662100623	-0.4267578125	0.810546875	0.09326171875	-0.25	-1.25	-1.5625
18	12	13	15	23	57	0.58453457223	0.615418407831	-0.151062239352	-0.47509765625	0.79248046875	0.12548828125	10.8125	-3.9375	4.4375
18	12	13	15	23	57	0.583198126641	0.616157518414	-0.153383243564	-0.4453125	0.78271484375	0.14013671875	11.875	-8.3125	6.5625
18	12	13	15	23	57	0.581441665707	0.618125104831	-0.157476327685	-0.38525390625	0.90625	0.08935546875	19.75	-5.9375	9.0
18	12	13	15	23	57	0.581721706481	0.618830802855	-0.159971943415	-0.3681640625	0.990234375	0.1083984375	4.125	-0.375	7.75
18	12	13	15	23	57	0.583440943339	0.618170297535	-0.15930336459	-0.5068359375	0.90380859375	0.13037109375	-13.0625	2.5	10.125
18	12	13	15	23	57	0.584498384195	0.61819127351	-0.158942543071	-0.4970703125	0.86181640625	0.16259765625	-4.6875	5.0625	10.1875
18	12	13	15	23	57	0.584725695188	0.61927211935	-0.160463867709	-0.4072265625	0.89404296875	0.15234375	7.0625	5.0	10.25
18	12	13	15	23	57	0.585400446285	0.620130177693	-0.161868625122	-0.3974609375	0.93359375	0.16455078125	5.125	6.5625	10.5
18	12	13	15	23	57	0.586332053451	0.620330278911	-0.162361363958	-0.43798828125	0.90576171875	0.15673828125	-1.125	4.0625	9.5625
18	12	13	15	23	57	0.587835878058	0.620123821106	-0.162599395613	-0.40380859375	0.90771484375	0.1650390625	-5.25	5.625	9.0
18	12	13	15	23	57	0.589115365153	0.620121437003	-0.161866343596	-0.47705078125	0.8125	0.15673828125	-5.6875	6.8125	11.1875
18	12	13	15	23	57	0.589533301208	0.620599917867	-0.16131447511	-0.48193359375	0.80859375	0.1806640625	0.625	6.0625	8.125
18	12	13	15	23	57	0.589729296433	0.621529023554	-0.161256965553	-0.4609375	0.81591796875	0.154296875	3.3125	7.0	9.125
18	12	13	15	23	57	0.590148096958	0.622496684339	-0.161010516059	-0.45849609375	0.7939453125	0.177734375	4.0	9.1875	10.3125
18	12	13	15	23	57	0.589904780761	0.623840327383	-0.160949705832	-0.4853515625	0.7763671875	0.19677734375	9.5	8.75	10.3125
18	12	13	15	23	58	0.588885578159	0.625263667357	-0.160588511208	-0.56396484375	0.763671875	0.27734375	16.3125	7.75	9.0625
18	12	13	15	23	58	0.58831667555	0.625670115267	-0.160400064669	-0.52294921875	0.79443359375	0.267578125	10.375	2.0625	5.75
18	12	13	15	23	58	0.587720416505	0.626661700723	-0.160159764556	-0.45654296875	0.76953125	0.27490234375	13.5625	7.5625	3.8125
18	12	13	15	23	58	0.58686088251	0.627816020541	-0.159914249836	-0.4814453125	0.779296875	0.2431640625	13.25	6.4375	4.0625
18	12	13	15	23	58	0.586560629124	0.628736840854	-0.159793519984	-0.421875	0.78955078125	0.23388671875	10.1875	7.8125	3.4375
18	12	13	15	23	58	0.586135784446	0.629410830908	-0.15906173636	-0.45166015625	0.771484375	0.14794921875	2.6875	3.625	1.4375
18	12	13	15	23	58	0.584605983859	0.6306884142	-0.157962026125	-0.5166015625	0.72265625	0.1884765625	10.125	3.8125	-0.6875
18	12	13	15	23	58	0.581681876382	0.631976300951	-0.156254522932	-0.6640625	0.68798828125	0.205078125	13.4375	-2.5	-3.1875
18	12	13	15	23	58	0.576843861265	0.634888355188	-0.15612809196	-0.62744140625	0.68896484375	0.220703125	31.9375	-2.9375	-5.6875
18	12	13	15	23	58	0.570494761742	0.639403351236	-0.157958750764	-0.5625	0.646484375	0.26806640625	52.75	0.25	-3.875
18	12	13	15	23	58	0.562993955567	0.644720853497	-0.162233080431	-0.50537109375	0.75732421875	0.2919921875	68.5625	-1.625	-3.75
18	12	13	15	23	58	0.556146835875	0.648980389141	-0.166258119065	-0.46630859375	0.8896484375	0.29541015625	61.625	-4.5	-10.4375
18	12	13	15	23	58	0.551209622393	0.6515516243	-0.16827426962	-0.45703125	0.94775390625	0.27197265625	41.3125	-3.75	-15.5
18	12	13	15	23	58	0.548177660209	0.652612798459	-0.168097235967	-0.47265625	0.93408203125	0.23291015625	20.75	-2.5625	-17.9375
18	12	13	15	23	58	0.545805402233	0.652988838412	-0.166207572163	-0.51318359375	0.865234375	0.2158203125	9.75	-1.6875	-19.6875
18	12	13	15	23	58	0.54346206229	0.652777039105	-0.164125054526	-0.5009765625	0.95751953125	0.13916015625	1.125	-8.4375	-26.5
18	12	13	15	23	58	0.541569748132	0.652593682749	-0.161927706728	-0.4482421875	0.95703125	0.10400390625	-2.75	-5.9375	-28.125
18	12	13	15	23	58	0.541458356512	0.651507890588	-0.158207649654	-0.4775390625	0.984375	0.0634765625	-19.4375	-3.0625	-26.3125
18	12	13	15	23	58	0.542255687714	0.650535920718	-0.154119271891	-0.47021484375	0.94091796875	0.04345703125	-23.5625	2.4375	-21.6875
18	12	13	15	23	58	0.543219899588	0.649788657418	-0.150026349796	-0.408203125	0.95068359375	0.03271484375	-24.4375	5.0625	-24.1875
18	12	13	15	23	58	0.54439323975	0.648828359518	-0.146734089961	-0.34912109375	0.900390625	0.0263671875	-23.625	3.1875	-21.8125
18	12	13	15	23	58	0.545277550613	0.648119801876	-0.143673981883	-0.38232421875	0.82763671875	0.04248046875	-19.3125	3.3125	-17.1875
18	12	13	15	23	58	0.545542071125	0.648327129055	-0.142092407874	-0.36865234375	0.8388671875	0.06494140625	-8.125	5.4375	-12.9375
18	12	13	15	23	58	0.544492183686	0.649899425164	-0.142272310298	-0.462890625	0.83935546875	0.056640625	6.625	4.8125	-3.375
18	12	13	15	23	58	0.543609490097	0.651098409035	-0.142464018626	-0.43310546875	0.8564453125	0.0625	5.125	3.4375	-5.4375
18	12	13	15	23	58	0.540835747203	0.653629389098	-0.144349005996	-0.43408203125	0.779296875	0.06103515625	22.25	1.5	-2.5
18	12	13	15	23	58	0.537964450373	0.656433817082	-0.147277991689	-0.4384765625	0.79833984375	0.0419921875	26.5625	0.1875	2.4375
18	12	13	15	23	58	0.534622254374	0.658099913992	-0.150455971804	-0.59765625	0.6455078125	0.11962890625	29.5625	-9.0	12.25
18	12	13	15	23	58	0.52887973333	0.661694770806	-0.156130912621	-0.66455078125	0.826171875	0.00830078125	45.625	-13.5	13.0625
18	12	13	15	23	58	0.523334990137	0.665063920286	-0.161566097375	-0.603515625	0.7509765625	0.02880859375	45.6875	-12.1875	12.25
18	12	13	15	23	58	0.515015424504	0.669983919742	-0.16827417935	-0.54541015625	0.62744140625	0.04150390625	66.4375	-13.3125	8.0625
18	12	13	15	23	58	0.504523566086	0.675546434725	-0.175966784542	-0.671875	0.6396484375	0.08251953125	82.4375	-17.3125	9.625
18	12	13	15	23	58	0.493409154339	0.680909515809	-0.182983751201	-0.79541015625	0.6611328125	0.078125	82.125	-18.6875	9.8125
18	12	13	15	23	58	0.481076547756	0.687679454905	-0.19085592043	-0.69873046875	0.73291015625	0.01953125	92.25	-13.3125	3.625
18	12	13	15	23	58	0.466612141648	0.696896982778	-0.201781522602	-0.61669921875	0.66357421875	0.0654296875	119.375	-5.0	3.0
18	12	13	15	23	58	0.453185635042	0.704223011059	-0.212463191324	-0.6640625	0.72119140625	0.0869140625	109.1875	-12.0	4.875
18	12	13	15	23	58	0.441460625524	0.709767124875	-0.220028419054	-0.65576171875	0.8046875	0.033203125	92.3125	-9.5625	1.3125
18	12	13	15	23	58	0.432313144701	0.714479411531	-0.223999610483	-0.65576171875	0.7646484375	-0.0595703125	64.0625	-2.875	-4.125
18	12	13	15	23	58	0.42401192074	0.71991083995	-0.226562868834	-0.6181640625	0.720703125	-0.1240234375	56.8125	7.6875	-6.4375
18	12	13	15	23	58	0.416082415449	0.725351830013	-0.229129145899	-0.6083984375	0.71435546875	-0.15576171875	55.3125	9.5	-4.5625
18	12	13	15	23	58	0.408582145262	0.730491651404	-0.232734347159	-0.52490234375	0.7998046875	-0.193359375	56.25	7.875	-5.5625
18	12	13	15	23	58	0.402539995738	0.734643121866	-0.236763099844	-0.47265625	0.89208984375	-0.1806640625	52.25	6.875	-4.8125
18	12	13	15	23	58	0.397830983965	0.737555938974	-0.241091191571	-0.3994140625	1.0244140625	-0.23876953125	43.0625	0.0625	-8.0625
18	12	13	15	23	58	0.395215450286	0.739159707022	-0.244758912069	-0.26318359375	1.09765625	-0.31396484375	26.1875	-6.1875	-14.875
18	12	13	15	23	58	0.394250627208	0.74064671165	-0.248306479561	-0.25146484375	1.13330078125	-0.33447265625	20.0625	0.125	-9.5625
18	12	13	15	23	58	0.393368701041	0.741876890791	-0.254087494559	-0.3369140625	1.12255859375	-0.33251953125	27.3125	0.4375	8.875
18	12	13	15	23	58	0.393206417208	0.740085037046	-0.262707298923	-0.09423828125	1.1015625	-0.27001953125	25.25	-25.125	9.125
18	12	13	15	23	58	0.391717260274	0.738452342171	-0.27483683749	0.21337890625	1.1435546875	-0.40966796875	36.0	-38.1875	4.8125
18	12	13	15	23	58	0.389905568151	0.737146140664	-0.285409899292	-0.16162109375	0.8515625	-0.18359375	41.9375	-22.0	29.125
18	12	13	15	23	58	0.386056157799	0.735734533772	-0.294257191581	-0.86181640625	1.02294921875	-0.16357421875	45.9375	-19.375	47.25
18	12	13	15	23	58	0.387573963379	0.730714250327	-0.297974187278	-0.828125	1.02783203125	-0.06787109375	-0.875	-24.6875	34.8125
18	12	13	15	23	58	0.38672245898	0.728095361928	-0.300967241987	-0.396484375	0.9599609375	-0.22265625	3.9375	-27.4375	0.8125
18	12	13	15	23	59	0.384455127891	0.725758997579	-0.302791219156	-0.37939453125	0.8173828125	-0.22607421875	2.4375	-33.3125	-8.1875
18	12	13	15	23	59	0.378426943326	0.724626559866	-0.30774655617	-0.58447265625	0.72998046875	-0.35205078125	21.8125	-40.25	9.0
18	12	13	15	23	59	0.368708956795	0.726187579532	-0.311702804561	-0.6904296875	0.72998046875	-0.43017578125	37.0625	-34.6875	-2.875
18	12	13	15	23	59	0.352971238264	0.731394492153	-0.320194901597	-0.6318359375	0.52197265625	-0.365234375	92.1875	-25.3125	3.9375
18	12	13	15	23	59	0.340644730384	0.734330182987	-0.331977546776	-0.61474609375	0.59375	-0.33837890625	89.8125	-22.25	32.0625
18	12	13	15	23	59	0.334161668318	0.733996022501	-0.334588906981	-0.701171875	0.64013671875	-0.15771484375	32.0625	-22.8125	5.3125
18	12	13	15	23	59	0.327216506226	0.734695968186	-0.334174663605	-0.6845703125	0.56298828125	-0.28466796875	17.5	-22.375	-11.125
18	12	13	15	23	59	0.319213688218	0.736449782417	-0.335998346777	-0.5947265625	0.60546875	-0.28759765625	36.625	-17.375	-9.125
18	12	13	15	23	59	0.309333824781	0.73762811217	-0.342659844578	-0.509765625	0.693359375	-0.296875	61.6875	-27.0625	1.5
18	12	13	15	23	59	0.298396590886	0.738575812296	-0.35137434521	-0.45849609375	0.767578125	-0.3173828125	75.0	-31.375	2.875
18	12	13	15	23	59	0.289552793513	0.738103274019	-0.359987853317	-0.4990234375	0.96826171875	-0.37890625	64.1875	-34.25	4.9375
18	12	13	15	23	59	0.283632613237	0.736639123985	-0.367373509592	-0.14306640625	0.970703125	-0.25927734375	53.3125	-35.0625	-10.125
18	12	13	15	23	59	0.280519093923	0.734440003738	-0.372011287525	-0.33447265625	1.13037109375	-0.1005859375	42.0625	-22.0	-10.0625
18	12	13	15	23	59	0.284069013598	0.728056552255	-0.37434363137	-0.49169921875	1.40087890625	-0.15673828125	-5.125	-31.8125	0.9375
18	12	13	15	23	59	0.288875295527	0.722157721671	-0.375666056194	-0.11572265625	1.07470703125	-0.24658203125	-25.125	-35.0625	-8.3125
18	12	13	15	23	59	0.29419128446	0.715885804031	-0.377687897974	-0.44384765625	1.078125	-0.37548828125	-33.5	-32.125	16.875
18	12	13	15	23	59	0.299006027561	0.709521345253	-0.381218952469	-0.27587890625	0.94140625	-0.42919921875	-32.6875	-37.5	19.1875
18	12	13	15	23	59	0.302130017464	0.704359677079	-0.386299167784	-0.21240234375	0.8896484375	-0.4921875	-19.75	-35.8125	20.0
18	12	13	15	23	59	0.305674004295	0.697959712283	-0.390942890877	-0.4267578125	0.8837890625	-0.47705078125	-29.375	-39.4375	32.9375
18	12	13	15	23	59	0.308540491227	0.691545749872	-0.396738514931	-0.20458984375	0.8427734375	-0.45458984375	-21.75	-44.1875	25.625
18	12	13	15	23	59	0.309017900583	0.686333456854	-0.401729374212	-0.353515625	0.685546875	-0.32666015625	-9.375	-38.5	26.3125
18	12	13	15	23	59	0.309999629226	0.679814111109	-0.407473424831	-0.724609375	0.9306640625	-0.3291015625	-9.0625	-38.4375	47.4375
18	12	13	15	23	59	0.311230042252	0.67403674379	-0.411514599894	-0.4609375	0.89453125	-0.322265625	-15.0	-38.1875	25.375
18	12	13	15	23	59	0.314454836472	0.668094456526	-0.416078924734	-0.2744140625	0.88134765625	-0.26708984375	-15.375	-30.1875	26.6875
18	12	13	15	23	59	0.317443239225	0.661863965807	-0.421630051254	-0.4296875	0.9169921875	-0.28076171875	-11.8125	-30.0625	40.1875
18	12	13	15	23	59	0.320014182111	0.655592662607	-0.424508608922	-0.41845703125	0.8701171875	-0.1962890625	-20.625	-32.5	26.0625
18	12	13	15	23	59	0.322703509221	0.649679620228	-0.427138104317	-0.412109375	0.84619140625	-0.240234375	-23.625	-30.625	26.3125
18	12	13	15	23	59	0.324160099844	0.645268419422	-0.428714091753	-0.48779296875	0.7685546875	-0.26416015625	-22.0625	-25.9375	22.75
18	12	13	15	23	59	0.324404749844	0.641851429794	-0.429935476557	-0.5	0.7666015625	-0.28759765625	-18.1875	-24.9375	16.1875
18	12	13	15	23	59	0.32384394228	0.638776988296	-0.430530563295	-0.5615234375	0.64599609375	-0.18310546875	-13.4375	-22.875	17.4375
18	12	13	15	23	59	0.321475704472	0.636115396243	-0.43066880022	-0.70849609375	0.6044921875	-0.0693359375	-3.3125	-23.375	17.1875
18	12	13	15	23	59	0.317496663869	0.634444025552	-0.430836015043	-0.7822265625	0.68505859375	-0.04931640625	7.25	-22.1875	12.375
18	12	13	15	23	59	0.314079320031	0.632675132423	-0.431263986658	-0.61083984375	0.78125	-0.076171875	6.25	-22.8125	2.1875
18	12	13	15	23	59	0.312505382601	0.630137806636	-0.431709095926	-0.490234375	0.82421875	-0.05126953125	0.8125	-21.0625	1.6875
18	12	13	15	23	59	0.311104819372	0.627519844607	-0.432201927796	-0.5419921875	0.83837890625	-0.0576171875	-0.375	-20.4375	4.9375
18	12	13	15	23	59	0.310352893775	0.62503913179	-0.432846159814	-0.45263671875	0.91748046875	-0.1103515625	-2.9375	-19.0625	0.625
18	12	13	15	23	59	0.309633188029	0.622928507199	-0.432985971984	-0.3271484375	0.8359375	-0.11572265625	-5.4375	-18.375	-7.0625
18	12	13	15	23	59	0.308593452828	0.620360730726	-0.433044016578	-0.4248046875	0.82470703125	-0.16845703125	-10.8125	-23.75	-2.5
18	12	13	15	23	59	0.307181400744	0.618207909425	-0.432910326938	-0.51513671875	0.77734375	-0.19921875	-12.0625	-22.9375	1.875
18	12	13	15	23	59	0.304865855383	0.616689610168	-0.43309872068	-0.4931640625	0.763671875	-0.19970703125	-5.5625	-22.375	-2.0625
18	12	13	15	23	59	0.302186596912	0.615176471475	-0.43365699274	-0.52783203125	0.72265625	-0.1455078125	-0.0625	-21.5	1.6875
18	12	13	15	23	59	0.299442565494	0.613533768517	-0.434332102743	-0.5849609375	0.716796875	-0.09619140625	3.125	-20.8125	5.6875
18	12	13	15	23	59	0.29705693577	0.611813997156	-0.436338613894	-0.4912109375	0.82080078125	-0.1396484375	7.4375	-20.625	4.0
18	12	13	15	23	59	0.295110206376	0.610118226046	-0.438362254848	-0.41796875	0.83447265625	-0.12744140625	7.1875	-18.6875	1.625
18	12	13	15	23	59	0.293266582613	0.608383204056	-0.44096796241	-0.4794921875	0.85546875	-0.1337890625	9.9375	-17.625	7.5625
18	12	13	15	23	59	0.29106449782	0.60690823366	-0.443890143142	-0.45849609375	0.85791015625	-0.17724609375	11.0625	-18.375	6.3125
18	12	13	15	23	59	0.287958650551	0.60619019018	-0.44646407986	-0.4189453125	0.880859375	-0.1435546875	16.875	-16.1875	-3.0625
18	12	13	15	23	59	0.285331793787	0.604415134518	-0.448291342324	-0.5625	0.8349609375	-0.08251953125	10.8125	-19.25	6.6875
18	12	13	15	23	59	0.281610014096	0.602708905331	-0.449697135643	-0.6376953125	0.7470703125	-0.05126953125	12.3125	-21.9375	7.25
18	12	13	15	23	59	0.277038843068	0.601379978134	-0.451538524128	-0.5068359375	0.7822265625	-0.10205078125	15.4375	-25.375	-3.875
18	12	13	15	24	00	0.272580108239	0.600274376294	-0.452815007395	-0.55615234375	0.720703125	-0.03759765625	16.5625	-21.0	-1.5
18	12	13	15	24	00	0.267952618641	0.599139613799	-0.455580488732	-0.64306640625	0.78515625	-0.1572265625	18.375	-23.5625	7.875
18	12	13	15	24	00	0.263492210009	0.598762700993	-0.458441044563	-0.44775390625	0.73486328125	-0.130859375	23.1875	-18.0	-2.3125
18	12	13	15	24	00	0.258239256428	0.59844857227	-0.462157326796	-0.49755859375	0.82666015625	-0.18408203125	28.125	-20.6875	-2.0
18	12	13	15	24	00	0.253352287728	0.597523222562	-0.466055906791	-0.52294921875	0.85107421875	-0.14794921875	28.75	-21.6875	1.8125
18	12	13	15	24	00	0.2481669498	0.596247646975	-0.469356577463	-0.5263671875	0.81396484375	-0.1259765625	26.0625	-24.6875	-0.5
18	12	13	15	24	00	0.242558409254	0.595043264171	-0.473153696159	-0.48974609375	0.859375	-0.15771484375	29.0625	-26.4375	-3.75
18	12	13	15	24	00	0.237547813107	0.593381253604	-0.476621498601	-0.40234375	0.83984375	-0.1640625	23.9375	-28.5	-6.9375
18	12	13	15	24	00	0.231685829441	0.592092790149	-0.479484688115	-0.5361328125	0.75927734375	-0.0654296875	29.1875	-24.75	-3.125
18	12	13	15	24	00	0.226687574559	0.589668459294	-0.483282772041	-0.5712890625	0.8955078125	-0.140625	25.1875	-29.8125	3.6875
18	12	13	15	24	00	0.222836261597	0.587821428495	-0.487175853208	-0.33837890625	0.84228515625	-0.15087890625	24.8125	-24.0625	-4.25
18	12	13	15	24	00	0.219672376166	0.586688213312	-0.490615882085	-0.48046875	0.89697265625	-0.18896484375	21.9375	-16.0625	1.8125
18	12	13	15	24	00	0.218014601957	0.58434260894	-0.493950776494	-0.44970703125	0.91162109375	-0.1650390625	14.6875	-17.5625	7.1875
18	12	13	15	24	00	0.215813632028	0.581830134084	-0.497360092589	-0.3798828125	0.83349609375	-0.171875	14.4375	-22.25	4.4375
18	12	13	15	24	00	0.212585164516	0.579466997392	-0.502501768435	-0.404296875	0.94775390625	-0.26611328125	24.0	-25.0625	5.0625
18	12	13	15	24	00	0.210566883006	0.575854649612	-0.508656348687	-0.26123046875	0.9326171875	-0.20703125	26.0625	-26.25	9.125
18	12	13	15	24	00	0.206723987625	0.571283296182	-0.515192553747	-0.40869140625	0.814453125	-0.15185546875	30.625	-35.125	18.75
18	12	13	15	24	00	0.202086606226	0.56683126307	-0.519773342985	-0.54638671875	0.84375	-0.1484375	22.4375	-38.5	14.875
18	12	13	15	24	00	0.196898171146	0.563839214211	-0.524288682623	-0.6240234375	0.83154296875	-0.16162109375	28.0	-30.5	14.3125
18	12	13	15	24	00	0.192495789806	0.560276268365	-0.52799019582	-0.64306640625	0.88134765625	-0.17822265625	19.4375	-32.4375	14.875
18	12	13	15	24	00	0.18731384727	0.557974321194	-0.53246204092	-0.48388671875	0.73486328125	-0.24853515625	24.9375	-29.9375	7.5
18	12	13	15	24	00	0.18108846481	0.557730499303	-0.535697153905	-0.697265625	0.763671875	-0.2177734375	30.625	-18.9375	6.125
18	12	13	15	24	00	0.17486340265	0.557060480275	-0.540581206727	-0.6552734375	0.85205078125	-0.31787109375	35.0	-21.875	8.0625
18	12	13	15	24	00	0.168333250871	0.556390832103	-0.544489097542	-0.40380859375	0.70947265625	-0.23486328125	33.75	-25.4375	-7.5625
18	12	13	15	24	00	0.159547207817	0.555241373188	-0.5489547005	-0.5693359375	0.6044921875	-0.15625	44.125	-30.3125	0.375
18	12	13	15	24	00	0.149655427309	0.553578599385	-0.554616177796	-0.6875	0.69384765625	-0.1552734375	55.0	-33.1875	5.9375
18	12	13	15	24	00	0.140195674505	0.552421005637	-0.559806150006	-0.5390625	0.7529296875	-0.1728515625	54.0625	-31.1875	-6.8125
18	12	13	15	24	00	0.132326754291	0.550913876491	-0.564280831837	-0.5498046875	0.75341796875	-0.19580078125	43.9375	-28.625	-2.5625
18	12	13	15	24	00	0.125362583941	0.548934313518	-0.569685666264	-0.505859375	0.771484375	-0.26708984375	43.25	-28.5625	2.0
18	12	13	15	24	00	0.118531415769	0.546575091766	-0.57636053507	-0.39306640625	0.81103515625	-0.28076171875	50.75	-28.875	0.4375
18	12	13	15	24	00	0.111260317703	0.543851174467	-0.582911296974	-0.47119140625	0.77490234375	-0.20654296875	54.4375	-28.625	5.0625
18	12	13	15	24	00	0.105037643649	0.538798557894	-0.590737567043	-0.52392578125	0.93896484375	-0.2587890625	53.0	-35.75	17.25
18	12	13	15	24	00	0.100033825102	0.53453095805	-0.597151278096	-0.3662109375	0.91064453125	-0.296875	41.9375	-33.3125	6.625
18	12	13	15	24	00	0.0953343575628	0.530381285032	-0.60392667611	-0.48046875	0.97705078125	-0.31396484375	45.375	-28.0625	12.8125
18	12	13	15	24	00	0.0913070335173	0.524527169818	-0.610158030797	-0.44921875	1.00439453125	-0.28857421875	36.125	-36.0625	15.8125
18	12	13	15	24	00	0.0881949838407	0.517817469138	-0.617181783112	-0.244140625	0.9951171875	-0.2978515625	36.625	-39.8125	13.375
18	12	13	15	24	00	0.0847143236679	0.510910377107	-0.62260145226	-0.32080078125	0.9541015625	-0.2978515625	24.875	-44.1875	13.8125
18	12	13	15	24	00	0.0810513355851	0.504190574751	-0.627232361301	-0.40673828125	0.87255859375	-0.287109375	19.625	-43.8125	17.6875
18	12	13	15	24	00	0.0770247514478	0.497365055109	-0.631273378942	-0.53369140625	0.90576171875	-0.32958984375	14.5	-45.5	21.1875
18	12	13	15	24	00	0.0731199868475	0.491515237131	-0.633787932741	-0.39208984375	0.82958984375	-0.3037109375	6.375	-45.375	8.0
18	12	13	15	24	00	0.0686015256035	0.486863318273	-0.636578213563	-0.626953125	0.75537109375	-0.265625	14.875	-33.875	19.0
18	12	13	15	24	00	0.0643305659231	0.481136481188	-0.638850126677	-0.68359375	0.8271484375	-0.25830078125	8.8125	-39.0	22.625
18	12	13	15	24	00	0.0600584866928	0.476256475268	-0.641600418815	-0.498046875	0.7607421875	-0.2421875	14.8125	-36.0	12.8125
18	12	13	15	24	00	0.0562132902208	0.470580312272	-0.644591268211	-0.57080078125	0.84033203125	-0.30615234375	11.1875	-38.5	19.375
18	12	13	15	24	00	0.0527343454342	0.465026594749	-0.64782678523	-0.38818359375	0.8310546875	-0.29443359375	13.1875	-39.1875	10.6875
18	12	13	15	24	00	0.0489503099222	0.45929062614	-0.651918030273	-0.4228515625	0.796875	-0.30029296875	18.9375	-38.0625	16.375
18	12	13	15	24	00	0.044247751104	0.453524190971	-0.655415998766	-0.56591796875	0.79345703125	-0.255859375	19.375	-38.9375	20.0
18	12	13	15	24	00	0.0388175587684	0.448416044452	-0.65806748214	-0.56494140625	0.7646484375	-0.2255859375	18.3125	-39.4375	13.375
18	12	13	15	24	00	0.0333241167221	0.443528124944	-0.659890750915	-0.58837890625	0.76123046875	-0.224609375	13.125	-39.625	11.4375
18	12	13	15	24	00	0.0281981582556	0.439146642098	-0.661863264337	-0.5712890625	0.74658203125	-0.25830078125	12.8125	-36.9375	10.75
18	12	13	15	24	01	0.0230096517049	0.434803073596	-0.663373751673	-0.4638671875	0.7578125	-0.24072265625	10.8125	-39.1875	2.4375
18	12	13	15	24	01	0.0175775424539	0.430344624454	-0.665383221642	-0.58642578125	0.71337890625	-0.185546875	17.4375	-35.375	11.6875
18	12	13	15	24	01	0.0120845620576	0.425523063969	-0.667092238839	-0.638671875	0.75927734375	-0.2431640625	12.0	-39.5	13.25
18	12	13	15	24	01	0.00775137033284	0.421259512104	-0.669120259519	-0.439453125	0.77587890625	-0.22119140625	15.0625	-33.75	4.0
18	12	13	15	24	01	0.00329576069111	0.41605927095	-0.67203001796	-0.62353515625	0.76513671875	-0.2509765625	17.9375	-34.375	20.25
18	12	13	15	24	01	-0.0024413371086	0.411975637077	-0.673259741125	-0.583984375	0.71435546875	-0.21240234375	12.5	-37.4375	7.0
18	12	13	15	24	01	-0.00744596175694	0.407330727589	-0.676606000307	-0.607421875	0.8193359375	-0.30078125	22.9375	-34.4375	13.8125
18	12	13	15	24	01	-0.0125115395366	0.40354292398	-0.678857825685	-0.59619140625	0.73193359375	-0.27880859375	16.6875	-32.3125	10.0
18	12	13	15	24	01	-0.0175780258259	0.399655948292	-0.68200298812	-0.560546875	0.71826171875	-0.26318359375	24.375	-30.4375	11.125
18	12	13	15	24	01	-0.0229486458435	0.394704501781	-0.685712861838	-0.63671875	0.798828125	-0.2763671875	28.375	-34.25	16.375
18	12	13	15	24	01	-0.02838040936	0.389635555601	-0.689003099496	-0.4658203125	0.68359375	-0.25048828125	24.8125	-37.6875	10.3125
18	12	13	15	24	01	-0.0336910398915	0.384334199632	-0.693657007911	-0.4931640625	0.70751953125	-0.28564453125	34.0625	-35.5625	15.3125
18	12	13	15	24	01	-0.0400376723534	0.379991689134	-0.697424515216	-0.61767578125	0.66064453125	-0.2333984375	34.5625	-32.4375	14.125
18	12	13	15	24	01	-0.0458989099389	0.374759716788	-0.701606342749	-0.70849609375	0.71875	-0.2412109375	35.75	-32.0	23.75
18	12	13	15	24	01	-0.0524296175863	0.370547390415	-0.705266858219	-0.62744140625	0.666015625	-0.24951171875	35.0	-32.375	12.875
18	12	13	15	24	01	-0.0574938863001	0.365531725107	-0.71018987366	-0.61767578125	0.73974609375	-0.234375	43.25	-26.125	20.3125
18	12	13	15	24	01	-0.06255955028	0.359000268046	-0.71574228891	-0.5634765625	0.7861328125	-0.28125	44.1875	-33.8125	22.875
18	12	13	15	24	01	-0.0671367874927	0.352162967121	-0.720988064228	-0.41455078125	0.87255859375	-0.2900390625	42.25	-36.5625	14.375
18	12	13	15	24	01	-0.0707968076111	0.344585151528	-0.725850373206	-0.41943359375	0.93896484375	-0.318359375	36.0	-37.9375	18.1875
18	12	13	15	24	01	-0.0740932503705	0.337142598885	-0.729153263736	-0.4619140625	0.8662109375	-0.291015625	22.375	-38.1875	21.5
18	12	13	15	24	01	-0.0789143115992	0.330488010294	-0.732627530114	-0.556640625	0.81884765625	-0.357421875	25.3125	-40.1875	20.1875
18	12	13	15	24	01	-0.084043453703	0.325370843639	-0.734968242187	-0.56005859375	0.81640625	-0.330078125	21.1875	-36.75	11.0625
18	12	13	15	24	01	-0.0885617519085	0.319640175565	-0.738157014184	-0.5791015625	0.83984375	-0.31689453125	27.5	-33.3125	17.125
18	12	13	15	24	01	-0.0939912405966	0.314199289994	-0.739784303423	-0.5859375	0.763671875	-0.248046875	19.375	-37.5625	13.9375
18	12	13	15	24	01	-0.098319860015	0.307470797489	-0.74206777028	-0.43408203125	0.83447265625	-0.27734375	20.5	-40.625	13.0
18	12	13	15	24	01	-0.102475567559	0.300835064026	-0.744244830742	-0.47509765625	0.78173828125	-0.28759765625	18.0625	-39.3125	17.125
18	12	13	15	24	01	-0.106746625461	0.293995708888	-0.74686018054	-0.4326171875	0.7939453125	-0.33154296875	19.9375	-41.6875	15.375
18	12	13	15	24	01	-0.111079137824	0.287279946011	-0.749845212808	-0.40283203125	0.771484375	-0.3076171875	25.0625	-39.8125	14.0625
18	12	13	15	24	01	-0.116570784531	0.280319169293	-0.753071680798	-0.64892578125	0.73828125	-0.2685546875	31.8125	-38.0625	26.625
18	12	13	15	24	01	-0.121943123768	0.274219446991	-0.754790095914	-0.66259765625	0.83544921875	-0.30908203125	19.5625	-39.375	19.0625
18	12	13	15	24	01	-0.126030837486	0.26988298468	-0.756062961151	-0.53173828125	0.76123046875	-0.3232421875	12.8125	-31.125	10.0
18	12	13	15	24	01	-0.130004141346	0.265440380618	-0.758113351955	-0.6337890625	0.74365234375	-0.314453125	19.75	-26.625	18.0
18	12	13	15	24	01	-0.134336406428	0.259090434024	-0.760303777772	-0.5107421875	0.7900390625	-0.30517578125	21.5625	-37.4375	16.8125
18	12	13	15	24	01	-0.139029633905	0.252853280627	-0.7628320431	-0.39013671875	0.701171875	-0.29150390625	25.1875	-38.9375	11.125
18	12	13	15	24	01	-0.144340664629	0.246203061782	-0.766317710394	-0.59521484375	0.70849609375	-0.33056640625	33.5625	-37.625	23.0
18	12	13	15	24	01	-0.150325264705	0.240654697009	-0.768654642184	-0.6650390625	0.685546875	-0.29931640625	28.25	-36.1875	19.1875
18	12	13	15	24	01	-0.155514089987	0.234796979663	-0.77165017257	-0.53955078125	0.69970703125	-0.31396484375	32.125	-35.1875	15.9375
18	12	13	15	24	01	-0.160457622036	0.228327106899	-0.774822940948	-0.5390625	0.70703125	-0.298828125	34.4375	-35.4375	19.125
18	12	13	15	24	01	-0.165704197978	0.221549259175	-0.778046819823	-0.53515625	0.7294921875	-0.28076171875	37.75	-36.5	18.6875
18	12	13	15	24	01	-0.170339973755	0.21367260771	-0.781147016874	-0.58251953125	0.8203125	-0.2802734375	37.375	-36.9375	25.1875
18	12	13	15	24	01	-0.174552608367	0.205862219588	-0.783533701473	-0.484375	0.8349609375	-0.30078125	29.3125	-39.6875	20.5625
18	12	13	15	24	01	-0.178525132249	0.197934018422	-0.785754718828	-0.47900390625	0.86328125	-0.30419921875	28.5	-39.5625	20.625
18	12	13	15	24	01	-0.183282077692	0.188591948075	-0.78756974044	-0.48876953125	0.95556640625	-0.33642578125	26.25	-49.375	22.125
18	12	13	15	24	01	-0.189016745346	0.180716365182	-0.788108890103	-0.470703125	0.86328125	-0.2978515625	18.3125	-50.75	14.0
18	12	13	15	24	01	-0.195370602459	0.174252755395	-0.788562381684	-0.60400390625	0.87353515625	-0.32666015625	18.75	-46.75	12.0625
18	12	13	15	24	01	-0.20043526243	0.168636610869	-0.788557731606	-0.51318359375	0.951171875	-0.37353515625	10.4375	-43.1875	4.5
18	12	13	15	24	01	-0.204580746875	0.163566945592	-0.787318506768	-0.4140625	0.826171875	-0.248046875	0.8125	-38.5	4.9375
18	12	13	15	24	01	-0.210013970018	0.158136064027	-0.785736660856	-0.58837890625	0.8125	-0.24267578125	0.75	-42.125	12.3125
18	12	13	15	24	01	-0.214653820845	0.153376471932	-0.78323926156	-0.55615234375	0.8720703125	-0.28564453125	-11.375	-41.5	8.75
18	12	13	15	24	01	-0.218431119988	0.149953970888	-0.781506144577	-0.5185546875	0.79833984375	-0.30712890625	-9.125	-33.1875	4.8125
18	12	13	15	24	01	-0.222103401039	0.145078258936	-0.780444130005	-0.5185546875	0.84521484375	-0.32568359375	-3.4375	-36.875	10.1875
18	12	13	15	24	02	-0.225517756824	0.13848438166	-0.780004582465	-0.35888671875	0.8330078125	-0.333984375	1.5625	-43.5	9.75
18	12	13	15	24	02	-0.229421773467	0.132013646185	-0.779814312207	-0.40625	0.7861328125	-0.275390625	7.5625	-41.6875	11.875
18	12	13	15	24	02	-0.234484671848	0.126458157228	-0.779011543849	-0.59423828125	0.7451171875	-0.279296875	3.9375	-41.5625	15.9375
18	12	13	15	24	02	-0.239434660926	0.122311256818	-0.777933772154	-0.61279296875	0.6865234375	-0.2734375	-0.3125	-36.8125	13.0
18	12	13	15	24	02	-0.244249524405	0.118706977753	-0.777362866652	-0.62109375	0.6123046875	-0.2734375	3.125	-33.1875	12.625
18	12	13	15	24	02	-0.24919968355	0.114437767979	-0.77744442054	-0.560546875	0.58837890625	-0.24609375	11.1875	-34.8125	12.25
18	12	13	15	24	02	-0.254565553377	0.109552905373	-0.778588531391	-0.60400390625	0.57763671875	-0.2333984375	23.4375	-34.5625	14.4375
18	12	13	15	24	02	-0.259270660096	0.103512956573	-0.78000918927	-0.6064453125	0.66552734375	-0.23583984375	27.0	-35.1875	18.75
18	12	13	15	24	02	-0.263718732616	0.0967965540218	-0.781879352821	-0.5361328125	0.681640625	-0.244140625	32.0	-36.5	17.5625
18	12	13	15	24	02	-0.268484316807	0.0895354609584	-0.783969322434	-0.59619140625	0.70068359375	-0.234375	36.6875	-37.3125	21.3125
18	12	13	15	24	02	-0.272755625362	0.0814788005948	-0.786285683942	-0.572265625	0.7841796875	-0.23193359375	41.0	-37.5	21.3125
18	12	13	15	24	02	-0.276599037132	0.0728727383794	-0.788417114226	-0.49853515625	0.87939453125	-0.212890625	42.1875	-37.9375	18.6875
18	12	13	15	24	02	-0.280985943488	0.0643875261469	-0.78912863799	-0.55615234375	0.90185546875	-0.18359375	33.3125	-41.125	20.9375
18	12	13	15	24	02	-0.28605626041	0.0569427119612	-0.788836604608	-0.57958984375	0.9287109375	-0.2265625	22.5	-43.875	15.4375
18	12	13	15	24	02	-0.29033015071	0.0502294963284	-0.788230795968	-0.50732421875	0.94140625	-0.27197265625	14.3125	-42.0625	11.125
18	12	13	15	24	02	-0.294596187377	0.0436981293064	-0.78742076021	-0.48095703125	0.861328125	-0.275390625	11.0625	-42.125	12.0
18	12	13	15	24	02	-0.299061139977	0.0373521260542	-0.786469765253	-0.55078125	0.8076171875	-0.27734375	9.1875	-42.0	16.25
18	12	13	15	24	02	-0.303270429886	0.0311265685736	-0.786342567651	-0.509765625	0.82373046875	-0.33984375	13.125	-41.6875	12.125
18	12	13	15	24	02	-0.307118930942	0.0259390988971	-0.785741080473	-0.4775390625	0.8017578125	-0.2568359375	10.75	-35.5625	8.375
18	12	13	15	24	02	-0.310598645634	0.0197137674474	-0.785010764422	-0.56787109375	0.85595703125	-0.27197265625	10.6875	-36.4375	18.5
18	12	13	15	24	02	-0.314868241587	0.0140375451764	-0.782806758401	-0.388671875	0.81884765625	-0.2275390625	-0.625	-42.875	7.3125
18	12	13	15	24	02	-0.318711552443	0.00756802613996	-0.781215601544	-0.36865234375	0.7802734375	-0.22265625	5.3125	-42.1875	11.1875
18	12	13	15	24	02	-0.323402365245	0.00189195571289	-0.779119568734	-0.54638671875	0.763671875	-0.1826171875	3.5625	-40.3125	16.25
18	12	13	15	24	02	-0.327510943096	-0.0037231024094	-0.777457024442	-0.52880859375	0.7802734375	-0.193359375	5.875	-38.0625	15.5625
18	12	13	15	24	02	-0.331459803299	-0.00878847572732	-0.775888138343	-0.54345703125	0.75732421875	-0.19482421875	5.0	-35.1875	15.125
18	12	13	15	24	02	-0.335182202995	-0.014281251912	-0.774544307758	-0.505859375	0.75244140625	-0.216796875	5.9375	-36.5625	15.1875
18	12	13	15	24	02	-0.339032715687	-0.0197743654154	-0.773458434907	-0.541015625	0.74658203125	-0.18359375	10.875	-35.375	16.25
18	12	13	15	24	02	-0.343182042981	-0.0259995643446	-0.772541045714	-0.662109375	0.775390625	-0.21533203125	13.75	-37.9375	23.3125
18	12	13	15	24	02	-0.348059772579	-0.0307596221953	-0.771492825735	-0.58203125	0.7236328125	-0.2431640625	9.0625	-39.1875	11.625
18	12	13	15	24	02	-0.352214224789	-0.0360697637932	-0.771929564224	-0.6240234375	0.7490234375	-0.2568359375	22.4375	-35.0625	13.25
18	12	13	15	24	02	-0.356489318783	-0.0418681172205	-0.772912298077	-0.66748046875	0.72900390625	-0.26708984375	29.125	-35.75	16.1875
18	12	13	15	24	02	-0.360525376116	-0.048338597915	-0.775370641304	-0.52880859375	0.6591796875	-0.20458984375	48.5	-33.8125	9.125
18	12	13	15	24	02	-0.365039844683	-0.0553571541762	-0.777868721031	-0.681640625	0.67529296875	-0.1767578125	54.5625	-33.75	16.875
18	12	13	15	24	02	-0.369908901676	-0.0602375987385	-0.779182799487	-0.69775390625	0.7001953125	-0.166015625	40.875	-30.625	9.375
18	12	13	15	24	02	-0.373706320618	-0.0637797003178	-0.780248506089	-0.599609375	0.70166015625	-0.1865234375	31.5	-23.8125	3.25
18	12	13	15	24	02	-0.376331788657	-0.0671977455905	-0.781410296816	-0.56640625	0.650390625	-0.18310546875	28.75	-18.1875	7.1875
18	12	13	15	24	02	-0.377779783151	-0.0717720557328	-0.783572639076	-0.52783203125	0.6484375	-0.212890625	37.4375	-15.8125	10.6875
18	12	13	15	24	02	-0.378206543456	-0.0776309058055	-0.786318074212	-0.44384765625	0.7216796875	-0.26513671875	42.6875	-16.5625	10.625
18	12	13	15	24	02	-0.378944034145	-0.0833689081402	-0.789197182402	-0.57080078125	0.64892578125	-0.22998046875	47.25	-13.875	17.875
18	12	13	15	24	02	-0.379868250492	-0.0902675357451	-0.79135149998	-0.685546875	0.7724609375	-0.31494140625	42.25	-19.5	26.5625
18	12	13	15	24	02	-0.379754678847	-0.0970443489821	-0.794054704564	-0.48193359375	0.76708984375	-0.37939453125	42.0625	-19.375	16.8125
18	12	13	15	24	02	-0.379738136289	-0.104913188088	-0.796827564672	-0.4755859375	0.796875	-0.31787109375	52.3125	-20.0	18.75
18	12	13	15	24	02	-0.380909970715	-0.11547535084	-0.798317964581	-0.4619140625	0.8779296875	-0.365234375	52.1875	-36.875	25.75
18	12	13	15	24	02	-0.381203852003	-0.126030412166	-0.799575995051	-0.3984375	0.90966796875	-0.30859375	52.5625	-31.4375	25.8125
18	12	13	15	24	02	-0.382420984924	-0.136709704154	-0.800728267188	-0.58984375	0.9443359375	-0.32080078125	57.3125	-32.5625	32.0625
18	12	13	15	24	02	-0.385535185333	-0.146841484235	-0.799510990638	-0.49560546875	0.90283203125	-0.30859375	37.125	-44.875	28.5625
18	12	13	15	24	02	-0.388218591186	-0.15611745893	-0.799995172657	-0.47119140625	0.85791015625	-0.37353515625	47.8125	-41.75	18.1875
18	12	13	15	24	02	-0.391947191438	-0.16387078932	-0.80110539315	-0.61572265625	0.88623046875	-0.36474609375	55.4375	-39.25	11.0
18	12	13	15	24	02	-0.395191052136	-0.172236162027	-0.801856377291	-0.546875	0.85498046875	-0.3466796875	55.0625	-39.625	13.1875
18	12	13	15	24	02	-0.398054257209	-0.180778397708	-0.801967638719	-0.46142578125	0.8505859375	-0.3525390625	48.625	-40.3125	13.8125
18	12	13	15	24	03	-0.401344502613	-0.187733529507	-0.800797022321	-0.3759765625	0.80029296875	-0.31005859375	31.1875	-40.0625	9.5
18	12	13	15	24	03	-0.405186928344	-0.192981031394	-0.79914409395	-0.4794921875	0.744140625	-0.2998046875	19.625	-35.3125	11.0
18	12	13	15	24	03	-0.409522836721	-0.197132453444	-0.796891159324	-0.5009765625	0.73193359375	-0.32666015625	8.375	-35.6875	9.5
18	12	13	15	24	03	-0.413248523103	-0.201100854176	-0.795370662101	-0.4833984375	0.70947265625	-0.3525390625	12.0625	-33.5	6.875
18	12	13	15	24	03	-0.416107959591	-0.207199548667	-0.793827549194	-0.49951171875	0.77880859375	-0.36376953125	19.875	-34.6875	16.5625
18	12	13	15	24	03	-0.419222026051	-0.214646071571	-0.792426668547	-0.48583984375	0.76904296875	-0.34716796875	31.0	-39.8125	17.5625
18	12	13	15	24	03	-0.42228512523	-0.223440647993	-0.790617359766	-0.47705078125	0.88232421875	-0.39697265625	33.875	-45.875	20.125
18	12	13	15	24	03	-0.424729015304	-0.231864568062	-0.788791176001	-0.40185546875	0.88818359375	-0.42431640625	29.5	-43.75	16.9375
18	12	13	15	24	03	-0.427426298878	-0.238584806842	-0.786432651869	-0.52490234375	0.8955078125	-0.3916015625	18.3125	-36.375	20.4375
18	12	13	15	24	03	-0.430399436997	-0.245105521693	-0.783654108202	-0.4326171875	0.83447265625	-0.40478515625	11.9375	-39.9375	17.625
18	12	13	15	24	03	-0.433451582379	-0.251209055629	-0.781518940069	-0.46923828125	0.720703125	-0.376953125	16.25	-38.0	17.5
18	12	13	15	24	03	-0.436572887429	-0.257683591602	-0.779947564443	-0.599609375	0.74658203125	-0.36767578125	27.625	-36.875	20.5
18	12	13	15	24	03	-0.439423652151	-0.263898315542	-0.778329143873	-0.515625	0.72607421875	-0.3408203125	26.5	-35.4375	16.875
18	12	13	15	24	03	-0.442174773623	-0.269760179353	-0.776567538934	-0.51220703125	0.7158203125	-0.34130859375	22.8125	-33.875	16.9375
18	12	13	15	24	03	-0.445102395927	-0.274641544176	-0.77497740621	-0.501953125	0.65966796875	-0.3203125	20.25	-32.125	13.3125
18	12	13	15	24	03	-0.44747989245	-0.279461323994	-0.773691025175	-0.60009765625	0.72216796875	-0.3671875	21.0	-27.75	16.625
18	12	13	15	24	03	-0.449067835497	-0.285565153885	-0.772411324551	-0.3291015625	0.67724609375	-0.3701171875	25.375	-33.8125	9.8125
18	12	13	15	24	03	-0.449670194491	-0.291907239448	-0.7717873615	-0.5302734375	0.73388671875	-0.34619140625	34.3125	-23.25	19.75
18	12	13	15	24	03	-0.450667021973	-0.300403992708	-0.769441921184	-0.5439453125	0.8427734375	-0.3564453125	32.5	-31.25	31.6875
18	12	13	15	24	03	-0.450588777719	-0.309058860947	-0.767825736487	-0.34619140625	0.7294921875	-0.35205078125	36.625	-30.625	25.1875
18	12	13	15	24	03	-0.451752226354	-0.316385239317	-0.765635190437	-0.5771484375	0.93896484375	-0.390625	30.5	-28.875	25.5
18	12	13	15	24	03	-0.452377548582	-0.324818309978	-0.762486874587	-0.35498046875	0.90771484375	-0.39892578125	23.9375	-34.0	26.125
18	12	13	15	24	03	-0.453526628651	-0.332378686534	-0.759173426697	-0.35009765625	0.90185546875	-0.36767578125	21.0	-33.6875	23.0
18	12	13	15	24	03	-0.455607221439	-0.339645570972	-0.755093441881	-0.45068359375	0.9814453125	-0.3740234375	15.6875	-35.5625	26.125
18	12	13	15	24	03	-0.458225783486	-0.34507306604	-0.750506454386	-0.39501953125	0.931640625	-0.35302734375	-1.0625	-32.375	23.0
18	12	13	15	24	03	-0.461650367512	-0.349350436758	-0.745634920663	-0.41064453125	0.9013671875	-0.35205078125	-9.8125	-33.1875	20.625
18	12	13	15	24	03	-0.465369774702	-0.352948643555	-0.740746617123	-0.4775390625	0.83349609375	-0.3642578125	-16.3125	-31.9375	24.125
18	12	13	15	24	03	-0.468475185765	-0.357032287223	-0.735608574	-0.43212890625	0.84619140625	-0.38623046875	-18.875	-31.125	27.5
18	12	13	15	24	03	-0.470840541401	-0.361048949181	-0.731435371185	-0.40771484375	0.775390625	-0.416015625	-14.6875	-29.4375	24.25
18	12	13	15	24	03	-0.473119379181	-0.366313533777	-0.726706972124	-0.43212890625	0.830078125	-0.40380859375	-10.0	-32.25	30.6875
18	12	13	15	24	03	-0.4754425234	-0.37199257768	-0.721891420639	-0.32958984375	0.76318359375	-0.36572265625	-7.0	-35.6875	27.8125
18	12	13	15	24	03	-0.477804892063	-0.377715477964	-0.717409184596	-0.447265625	0.73583984375	-0.34912109375	-2.0	-34.1875	32.375
18	12	13	15	24	03	-0.481668458734	-0.38267375016	-0.712981618719	-0.61474609375	0.705078125	-0.357421875	-2.6875	-38.9375	33.3125
18	12	13	15	24	03	-0.485135800731	-0.387241999703	-0.709363871166	-0.53515625	0.7177734375	-0.3212890625	4.5625	-36.8125	22.8125
18	12	13	15	24	03	-0.487762823779	-0.391577362033	-0.706377242545	-0.54833984375	0.779296875	-0.3310546875	7.875	-31.1875	21.3125
18	12	13	15	24	03	-0.49098193599	-0.395287756296	-0.702876191025	-0.48046875	0.7763671875	-0.2861328125	2.8125	-32.3125	17.0625
18	12	13	15	24	03	-0.494967600541	-0.398110192149	-0.699729166486	-0.48681640625	0.7724609375	-0.23583984375	5.875	-33.3125	9.1875
18	12	13	15	24	03	-0.499380293823	-0.400810362935	-0.696031883495	-0.62109375	0.861328125	-0.22998046875	2.75	-32.4375	15.9375
18	12	13	15	24	03	-0.503695105172	-0.402992703193	-0.692710462098	-0.50830078125	0.81103515625	-0.22607421875	1.875	-32.625	7.1875
18	12	13	15	24	03	-0.507791159579	-0.405073308429	-0.689118988318	-0.49072265625	0.857421875	-0.2197265625	-1.375	-30.9375	7.875
18	12	13	15	24	03	-0.512054325631	-0.407263231816	-0.685261736375	-0.4912109375	0.80224609375	-0.24609375	-4.9375	-33.4375	10.9375
18	12	13	15	24	03	-0.515662715785	-0.409466346337	-0.681914963128	-0.39794921875	0.8173828125	-0.27734375	-4.0625	-32.8125	3.9375
18	12	13	15	24	03	-0.520232399039	-0.410619847576	-0.678853234927	-0.56884765625	0.7470703125	-0.30029296875	-8.1875	-33.6875	6.9375
18	12	13	15	24	03	-0.523324178017	-0.41334981431	-0.676262999021	-0.46240234375	0.75634765625	-0.34375	1.5	-34.5	5.5625
18	12	13	15	24	03	-0.525727517216	-0.417090997522	-0.673607453856	-0.3984375	0.7578125	-0.31201171875	8.1875	-34.4375	6.6875
18	12	13	15	24	03	-0.530072118952	-0.420578810789	-0.669776791408	-0.56494140625	0.689453125	-0.21240234375	7.375	-40.5625	15.125
18	12	13	15	24	03	-0.534629347082	-0.423187202359	-0.666638853673	-0.76513671875	0.68994140625	-0.1962890625	9.5	-36.1875	19.125
18	12	13	15	24	03	-0.53750531105	-0.426488828616	-0.664267946573	-0.6435546875	0.791015625	-0.3037109375	11.9375	-33.6875	12.1875
18	12	13	15	24	03	-0.538732802025	-0.429973104142	-0.662567497313	-0.39990234375	0.88330078125	-0.29052734375	16.125	-26.9375	-0.1875
18	12	13	15	24	04	-0.540491807846	-0.433138026229	-0.660173880473	-0.5478515625	0.75244140625	-0.2197265625	10.8125	-23.0625	15.4375
18	12	13	15	24	04	-0.541717319843	-0.438939946407	-0.656823095555	-0.43359375	1.02392578125	-0.28515625	23.0	-34.9375	10.4375
18	12	13	15	24	04	-0.5445139917	-0.442593080902	-0.653087225418	-0.2158203125	0.9267578125	-0.212890625	10.625	-37.25	-5.9375
18	12	13	15	24	04	-0.548804237084	-0.445293117634	-0.648409276555	-0.44482421875	0.892578125	-0.220703125	-1.875	-39.125	7.5
18	12	13	15	24	04	-0.553131186219	-0.447729270893	-0.644129597193	-0.54541015625	0.81787109375	-0.25146484375	-2.875	-39.5	11.25
18	12	13	15	24	04	-0.5569060449	-0.449735961082	-0.641189578928	-0.47509765625	0.751953125	-0.25537109375	3.25	-37.375	0.1875
18	12	13	15	24	04	-0.560492277596	-0.452409544188	-0.637694230031	-0.5166015625	0.744140625	-0.2265625	4.625	-37.125	8.25
18	12	13	15	24	04	-0.563209005277	-0.456218824713	-0.63394581034	-0.46630859375	0.73876953125	-0.22314453125	9.0625	-36.3125	12.625
18	12	13	15	24	04	-0.56589485155	-0.46030834452	-0.629979147724	-0.41015625	0.81982421875	-0.24365234375	9.625	-39.25	8.125
18	12	13	15	24	04	-0.568674602813	-0.463642515301	-0.626103536195	-0.474609375	0.77490234375	-0.189453125	7.375	-33.75	12.9375
18	12	13	15	24	04	-0.571118613008	-0.467367636077	-0.62201762169	-0.57373046875	0.78466796875	-0.2197265625	5.6875	-32.3125	22.25
18	12	13	15	24	04	-0.572345641193	-0.471706063209	-0.618728951846	-0.41455078125	0.81640625	-0.2578125	11.9375	-30.9375	11.8125
18	12	13	15	24	04	-0.573465629636	-0.47575187133	-0.616005598118	-0.5068359375	0.78515625	-0.23681640625	15.4375	-28.5	13.8125
18	12	13	15	24	04	-0.574254633296	-0.480630804252	-0.613010260052	-0.54443359375	0.8916015625	-0.248046875	21.0625	-30.0625	16.1875
18	12	13	15	24	04	-0.575474983922	-0.484902826097	-0.609714189138	-0.439453125	0.8818359375	-0.20263671875	17.25	-29.25	10.375
18	12	13	15	24	04	-0.578092575793	-0.488131801224	-0.605739950881	-0.4951171875	0.876953125	-0.19384765625	8.375	-33.4375	11.375
18	12	13	15	24	04	-0.580766687399	-0.491173844072	-0.601822226192	-0.470703125	0.86669921875	-0.1982421875	7.1875	-33.6875	9.1875
18	12	13	15	24	04	-0.583332338689	-0.493861193207	-0.598406945056	-0.5087890625	0.81103515625	-0.19580078125	7.6875	-32.0625	9.3125
18	12	13	15	24	04	-0.585701396208	-0.496903278934	-0.594855841288	-0.45751953125	0.8291015625	-0.19384765625	9.625	-33.1875	7.3125
18	12	13	15	24	04	-0.587722378002	-0.500021749011	-0.591567290755	-0.47021484375	0.79443359375	-0.19677734375	11.0	-31.5625	8.5
18	12	13	15	24	04	-0.589866545722	-0.502652961259	-0.588462828128	-0.53857421875	0.82763671875	-0.23583984375	6.375	-30.875	9.75
18	12	13	15	24	04	-0.591696254114	-0.505032130252	-0.585959333239	-0.47509765625	0.732421875	-0.23828125	7.125	-29.125	5.875
18	12	13	15	24	04	-0.592982334077	-0.507965414422	-0.583827604753	-0.537109375	0.72119140625	-0.21533203125	15.3125	-28.0	7.9375
18	12	13	15	24	04	-0.593772337926	-0.511807464883	-0.581505071	-0.5712890625	0.78564453125	-0.21875	22.1875	-28.75	10.6875
18	12	13	15	24	04	-0.595122725888	-0.515476006856	-0.578705126333	-0.419921875	0.78759765625	-0.189453125	21.0625	-33.5	1.25
18	12	13	15	24	04	-0.596595087749	-0.519632795611	-0.575233626806	-0.50146484375	0.84814453125	-0.20166015625	21.625	-35.75	7.6875
18	12	13	15	24	04	-0.598908567379	-0.522679401919	-0.571932353501	-0.6328125	0.75244140625	-0.16162109375	17.625	-34.4375	12.375
18	12	13	15	24	04	-0.600316881047	-0.525796048212	-0.569617471615	-0.5654296875	0.79150390625	-0.2138671875	21.0	-33.0625	2.875
18	12	13	15	24	04	-0.600345472897	-0.529612484884	-0.567572725215	-0.46630859375	0.87646484375	-0.2548828125	22.625	-26.75	1.6875
18	12	13	15	24	04	-0.600317639109	-0.533669930497	-0.564857640297	-0.42529296875	0.89111328125	-0.2421875	19.9375	-25.0	6.3125
18	12	13	15	24	04	-0.600664086624	-0.537497318725	-0.561421350625	-0.37353515625	0.95263671875	-0.19384765625	16.3125	-23.5	7.3125
18	12	13	15	24	04	-0.601171231401	-0.541176173486	-0.557716011426	-0.431640625	0.9873046875	-0.2421875	10.5625	-23.4375	12.1875
18	12	13	15	24	04	-0.602499361112	-0.544092565267	-0.553430328866	-0.27978515625	1.0966796875	-0.2333984375	2.875	-25.9375	2.0
18	12	13	15	24	04	-0.604462678395	-0.546909335733	-0.547885850561	-0.216796875	1.07373046875	-0.11669921875	0.0	-23.5	8.875
18	12	13	15	24	04	-0.608858798146	-0.548680893678	-0.540136363632	-0.287109375	1.1435546875	-0.1435546875	-19.375	-33.6875	17.1875
18	12	13	15	24	04	-0.61486952367	-0.548469718037	-0.532602117426	-0.1474609375	0.962890625	-0.15283203125	-33.1875	-40.125	4.25
18	12	13	15	24	04	-0.619173332291	-0.549474372658	-0.526160009629	-0.29248046875	0.9111328125	-0.25048828125	-25.625	-38.125	12.375
18	12	13	15	24	04	-0.623448653942	-0.550331523504	-0.520181387914	-0.435546875	0.853515625	-0.2294921875	-22.8125	-37.8125	17.6875
18	12	13	15	24	04	-0.626674129449	-0.552459507185	-0.514497751388	-0.4287109375	0.86865234375	-0.26513671875	-13.1875	-40.0	16.3125
18	12	13	15	24	04	-0.630139937726	-0.554095931682	-0.508933359874	-0.46435546875	0.8671875	-0.2509765625	-15.375	-39.375	17.25
18	12	13	15	24	04	-0.633698855514	-0.555638484118	-0.503211698326	-0.451171875	0.81884765625	-0.18701171875	-13.4375	-37.75	18.5625
18	12	13	15	24	04	-0.637778682777	-0.556789944782	-0.497467372566	-0.48681640625	0.857421875	-0.1240234375	-10.9375	-39.8125	15.5625
18	12	13	15	24	04	-0.641775851949	-0.55748745903	-0.491997636002	-0.525390625	0.90283203125	-0.11962890625	-13.125	-35.6875	16.875
18	12	13	15	24	04	-0.64547239653	-0.557830720904	-0.487216919582	-0.447265625	0.9453125	-0.17333984375	-16.75	-34.5625	8.125
18	12	13	15	24	04	-0.64980335424	-0.55679120886	-0.483004014789	-0.388671875	0.8984375	-0.15625	-24.125	-32.125	0.125
18	12	13	15	24	04	-0.654077458684	-0.555144962601	-0.480075887843	-0.64599609375	0.7373046875	-0.19482421875	-24.375	-31.0	9.6875
18	12	13	15	24	04	-0.657670103152	-0.552818837634	-0.479825756401	-0.63916015625	0.73046875	-0.11083984375	-9.0625	-25.4375	-11.0
18	12	13	15	24	04	-0.660110010676	-0.551352980441	-0.479946849478	-0.6005859375	0.70947265625	-0.0546875	0.0	-18.8125	-9.8125
18	12	13	15	24	04	-0.663545410625	-0.548621200893	-0.479471371033	-0.568359375	0.6982421875	0.02197265625	-8.5625	-15.5625	-8.0
18	12	13	15	24	05	-0.66743324407	-0.5454936298	-0.47897001641	-0.494140625	0.69091796875	0.00537109375	-11.25	-19.4375	-16.4375
18	12	13	15	24	05	-0.671391727201	-0.542862413731	-0.477743336108	-0.513671875	0.6416015625	0.03173828125	-9.0625	-22.5	-11.1875
18	12	13	15	24	05	-0.673951486823	-0.54231032436	-0.476215109271	-0.5693359375	0.60009765625	0.041015625	4.4375	-22.75	-0.5625
18	12	13	15	24	05	-0.675015512631	-0.543918467321	-0.474402855306	-0.48974609375	0.720703125	0.0302734375	17.9375	-23.5	-3.125
18	12	13	15	24	05	-0.675758159586	-0.545696685771	-0.472640100057	-0.5478515625	0.7333984375	0.08154296875	21.625	-19.3125	3.0625
18	12	13	15	24	05	-0.676220800653	-0.54811723923	-0.470180961032	-0.541015625	0.873046875	-0.015625	16.375	-21.9375	5.25
18	12	13	15	24	05	-0.676154288384	-0.550431945748	-0.46846830198	-0.42236328125	0.9404296875	-0.00830078125	18.0	-16.5625	-5.25
18	12	13	15	24	05	-0.676548451905	-0.552407761677	-0.46604636705	-0.53076171875	1.0869140625	-0.09765625	5.9375	-18.4375	2.875
18	12	13	15	24	05	-0.678716425636	-0.552628112052	-0.462547593732	-0.35791015625	1.02880859375	-0.11865234375	-14.0	-21.6875	-1.0625
18	12	13	15	24	05	-0.679777798679	-0.553685059222	-0.45993944073	-0.35693359375	0.974609375	-0.1845703125	-8.5	-21.5625	-2.75
18	12	13	15	24	05	-0.680616102812	-0.555258725196	-0.456999047512	-0.42041015625	1.0087890625	-0.13037109375	-2.8125	-20.375	3.125
18	12	13	15	24	05	-0.681856427442	-0.556617491789	-0.453350299234	-0.31591796875	1.0576171875	-0.1044921875	-6.6875	-20.125	0.875
18	12	13	15	24	05	-0.684910756411	-0.555643158649	-0.449507014878	-0.35791015625	1.07177734375	-0.06298828125	-22.4375	-19.375	0.25
18	12	13	15	24	05	-0.68861482431	-0.55373591252	-0.445466595997	-0.3427734375	0.994140625	-0.05859375	-31.375	-18.375	3.4375
18	12	13	15	24	05	-0.691325053724	-0.552718256072	-0.441759577899	-0.32470703125	0.98583984375	-0.05419921875	-24.875	-15.125	5.1875
18	12	13	15	24	05	-0.694335793152	-0.551709200149	-0.437278364941	-0.30712890625	1.02392578125	-0.05712890625	-29.125	-17.125	8.375
18	12	13	15	24	05	-0.697707423073	-0.55025630917	-0.43277146055	-0.34765625	0.9775390625	-0.08056640625	-33.75	-19.4375	10.4375
18	12	13	15	24	05	-0.701267374846	-0.54825803553	-0.428755727441	-0.4052734375	0.9501953125	-0.07958984375	-35.125	-19.5625	10.1875
18	12	13	15	24	05	-0.704185912124	-0.546906739344	-0.425087092906	-0.42236328125	0.90625	-0.13525390625	-33.25	-20.8125	11.5625
18	12	13	15	24	05	-0.706257463218	-0.546720908702	-0.421606166255	-0.32861328125	0.921875	-0.119140625	-22.75	-21.375	5.0
18	12	13	15	24	05	-0.707911532364	-0.54696983818	-0.418314134221	-0.39599609375	0.8642578125	-0.12353515625	-19.5625	-21.0625	11.0
18	12	13	15	24	05	-0.709202945616	-0.54709941519	-0.415695461497	-0.46630859375	0.8837890625	-0.08984375	-16.4375	-16.125	13.9375
18	12	13	15	24	05	-0.711012968765	-0.546656065341	-0.413180926913	-0.4755859375	0.85400390625	-0.099609375	-19.8125	-19.25	10.625
18	12	13	15	24	05	-0.712546214999	-0.545990444487	-0.41141533493	-0.50830078125	0.765625	-0.0419921875	-15.3125	-13.8125	12.5625
18	12	13	15	24	05	-0.713328669368	-0.546043087341	-0.410432520662	-0.5966796875	0.72314453125	-0.0029296875	-4.1875	-12.375	14.75
18	12	13	15	24	05	-0.714011169588	-0.545868527292	-0.410194809026	-0.60693359375	0.6728515625	0.126953125	6.3125	-7.5625	10.9375
18	12	13	15	24	05	-0.713588185148	-0.547214477252	-0.409892084455	-0.61376953125	0.77001953125	0.1484375	17.125	-6.4375	12.4375
18	12	13	15	24	05	-0.714739142546	-0.546963726027	-0.408605461476	-0.451171875	0.86376953125	0.20654296875	5.5625	-7.0625	1.5625
18	12	13	15	24	05	-0.717862976323	-0.544286857919	-0.406902947045	-0.56005859375	0.8779296875	0.2080078125	-12.375	-10.375	3.5
18	12	13	15	24	05	-0.722615605346	-0.539093213009	-0.405128580092	-0.609375	0.826171875	0.2001953125	-32.0	-9.4375	6.5
18	12	13	15	24	05	-0.726286957162	-0.534461754947	-0.404767655454	-0.490234375	0.73095703125	0.11279296875	-28.625	-6.625	-4.3125
18	12	13	15	24	05	-0.728525884896	-0.531151945736	-0.405489317186	-0.42724609375	0.720703125	0.1640625	-12.3125	-0.6875	-11.25
18	12	13	15	24	05	-0.729826451696	-0.528968544644	-0.406476347909	-0.595703125	0.6982421875	0.22216796875	-0.8125	0.875	1.5625
18	12	13	15	24	05	-0.730295513135	-0.527672990687	-0.407808341866	-0.529296875	0.76318359375	0.224609375	5.4375	4.4375	-3.5625
18	12	13	15	24	05	-0.730568039699	-0.526411808054	-0.409166928834	-0.45166015625	0.81201171875	0.1552734375	-0.0625	5.625	-6.6875
18	12	13	15	24	05	-0.730763466756	-0.524955865495	-0.410089345455	-0.37646484375	0.90478515625	0.1142578125	-9.75	10.375	-4.25
18	12	13	15	24	05	-0.73092024593	-0.523044965566	-0.410745929786	-0.33154296875	0.93505859375	0.06982421875	-20.75	15.6875	2.125
18	12	13	15	24	05	-0.730809357851	-0.521588172056	-0.410874277355	-0.2685546875	0.98486328125	-0.01806640625	-27.0	14.4375	4.25
18	12	13	15	24	05	-0.730671674446	-0.520783611598	-0.410255178385	-0.14013671875	1.0693359375	-0.052734375	-27.3125	10.0	-3.375
18	12	13	15	24	05	-0.729806562038	-0.520959091282	-0.409577842268	-0.2099609375	1.21142578125	-0.07861328125	-24.4375	9.5	1.0625
18	12	13	15	24	05	-0.7305615778	-0.519632520751	-0.406783033921	-0.13330078125	1.2490234375	-0.1494140625	-49.0625	3.9375	7.5625
18	12	13	15	24	05	-0.73036847194	-0.519320241309	-0.404214121305	-0.083984375	1.1572265625	-0.140625	-40.6875	7.375	11.625
18	12	13	15	24	05	-0.729319005468	-0.520410306245	-0.401461122843	-0.1240234375	1.08544921875	-0.1279296875	-30.3125	5.6875	19.125
18	12	13	15	24	05	-0.727981704533	-0.52212302836	-0.39883974171	-0.1435546875	1.05322265625	-0.11474609375	-22.5625	3.4375	19.125
18	12	13	15	24	05	-0.726165059834	-0.524574608276	-0.396467324649	-0.140625	1.0546875	-0.14697265625	-17.8125	0.8125	17.3125
18	12	13	15	24	05	-0.724675523353	-0.526143480447	-0.394195654821	-0.1484375	1.0771484375	-0.15673828125	-25.125	3.8125	18.4375
18	12	13	15	24	05	-0.722906119687	-0.527059286587	-0.39297530643	-0.16455078125	1.017578125	-0.13525390625	-24.625	11.125	19.25
18	12	13	15	24	05	-0.722140622208	-0.525675894107	-0.392746357666	-0.27734375	0.97265625	-0.07568359375	-32.625	17.0	20.125
18	12	13	15	24	05	-0.722270595215	-0.52232480597	-0.393666160143	-0.4072265625	0.9267578125	-0.03076171875	-37.8125	20.5	18.6875
18	12	13	15	24	05	-0.723897489949	-0.516389567697	-0.395546718856	-0.51220703125	0.802734375	0.05322265625	-43.625	22.875	14.4375
