18	12	13	15	09	44	0.53735893057	0.238955044659	0.117310752448	-0.53759765625	0.07861328125	0.923828125	-9.0	-5.625	-13.125
18	12	13	15	09	44	0.535882720882	0.23785136256	0.11932240539	-0.37255859375	0.03125	0.70849609375	-8.5625	3.875	-12.9375
18	12	13	15	09	44	0.53448909743	0.235841712055	0.121644030053	-0.5888671875	0.01123046875	0.98876953125	-11.0625	-3.0625	-12.5625
18	12	13	15	09	44	0.532769602262	0.237301891808	0.121214392266	-0.44287109375	0.0380859375	0.7314453125	9.9375	4.875	-8.125
18	12	13	15	09	44	0.529354972869	0.238096823379	0.123229296693	-0.650390625	-0.0966796875	0.765625	7.75	-1.5	-17.1875
18	12	13	15	09	44	0.524722786155	0.240724283889	0.126648805545	-0.619140625	-0.05810546875	0.712890625	-3.6875	-1.6875	-11.4375
18	12	13	15	09	44	0.523432034357	0.238644969022	0.132383871563	-0.59033203125	-0.08837890625	0.78125	-23.4375	1.4375	-12.1875
18	12	13	15	09	44	0.522240487734	0.236521960025	0.138617128056	-0.5830078125	-0.12890625	0.7939453125	-24.375	4.0	-10.9375
18	12	13	15	09	44	0.521726361169	0.233946787829	0.14636170029	-0.6240234375	-0.18994140625	0.81396484375	-31.125	5.25	-6.625
18	12	13	15	09	44	0.520877367761	0.230958514133	0.15130712382	-0.55908203125	-0.15869140625	1.0263671875	-21.3125	6.0	-8.875
18	12	13	15	09	44	0.520697532556	0.229800282508	0.154604014766	-0.40087890625	-0.06689453125	0.833984375	-15.125	11.9375	-3.5
18	12	13	15	09	44	0.519343027266	0.227964062385	0.155271907552	-0.54296875	-0.0869140625	0.947265625	-1.5625	-3.9375	-9.6875
18	12	13	15	09	44	0.518244517251	0.231198943746	0.15124365961	-0.41455078125	0.0283203125	0.751953125	28.25	6.8125	0.0
18	12	13	15	09	44	0.508354099366	0.242427960461	0.143125268701	-0.64013671875	-0.1611328125	0.67626953125	44.0	-13.625	-0.1875
18	12	13	15	09	44	0.508550654661	0.243777162112	0.138551366548	-0.4970703125	0.04443359375	0.71044921875	24.0625	-10.25	6.5625
18	12	13	15	09	44	0.508485880429	0.244996077787	0.137024463037	-0.62158203125	0.03369140625	0.767578125	9.875	-6.125	2.875
18	12	13	15	09	45	0.509462907002	0.244080767353	0.136109055063	-0.52685546875	0.09033203125	0.8212890625	-3.6875	-7.9375	3.3125
18	12	13	15	09	45	0.510993609445	0.241824734905	0.136903806257	-0.431640625	0.017578125	0.8994140625	-12.4375	-0.5625	5.4375
18	12	13	15	09	45	0.509408849494	0.240238824779	0.138674443572	-0.5224609375	-0.07861328125	0.97265625	-3.6875	2.6875	-10.9375
18	12	13	15	09	45	0.506093656305	0.239924525197	0.138974343392	-0.64208984375	-0.111328125	0.97265625	11.375	-2.625	-17.4375
18	12	13	15	09	45	0.505251433611	0.238587563903	0.134827303316	-0.43798828125	0.17626953125	1.16259765625	9.1875	-2.875	-9.8125
18	12	13	15	09	45	0.498900912772	0.240112085985	0.135009642654	-0.4326171875	-0.12890625	1.0439453125	27.5625	27.6875	-27.4375
18	12	13	15	09	45	0.492880246789	0.247813473927	0.130254668315	-0.5634765625	-0.01611328125	0.92724609375	57.5	26.0625	-20.125
18	12	13	15	09	45	0.489814703303	0.254398465217	0.121644947499	-0.6103515625	0.13037109375	0.86572265625	59.375	4.0	-3.5625
18	12	13	15	09	45	0.486161714478	0.258248614433	0.115055220564	-0.4765625	0.1416015625	0.78369140625	43.5	1.25	-13.75
18	12	13	15	09	45	0.48339298207	0.263607864844	0.111265834131	-0.55810546875	0.265625	0.64404296875	24.875	7.875	-12.5
18	12	13	15	09	45	0.481996092302	0.263916816907	0.114197124059	-0.79150390625	0.02880859375	0.7373046875	-9.125	-8.1875	-9.4375
18	12	13	15	09	45	0.482013872284	0.261424011016	0.111637757681	-0.6630859375	0.0537109375	0.90771484375	7.0625	-25.125	0.3125
18	12	13	15	09	45	0.489008315202	0.256344848209	0.0968617319302	-0.31982421875	0.2373046875	0.85498046875	4.0	-26.4375	20.625
18	12	13	15	09	45	0.487664487374	0.253719809013	0.0927111835196	-0.40673828125	-0.009765625	0.85498046875	21.625	-19.875	-4.75
18	12	13	15	09	45	0.483761760496	0.25713957822	0.0882563090685	-0.74072265625	0.107421875	0.82080078125	36.875	-11.5625	-13.5625
18	12	13	15	09	45	0.483095609396	0.262513482756	0.0851444567413	-0.7734375	0.109375	0.80322265625	30.0	1.8125	8.6875
18	12	13	15	09	45	0.482680060971	0.263679547723	0.0818505262724	-0.45947265625	0.18212890625	0.98095703125	16.5625	4.6875	0.125
18	12	13	15	09	45	0.482300056227	0.26098646424	0.0811768001495	-0.345703125	0.09619140625	1.2001953125	1.0625	6.8125	-5.75
18	12	13	15	09	45	0.480647580545	0.259336072348	0.0806877589182	-0.2470703125	0.15625	1.046875	0.125	11.875	-15.75
18	12	13	15	09	45	0.47809718005	0.26123527775	0.0837417759515	-0.5712890625	0.03662109375	0.853515625	-0.9375	14.8125	-14.375
18	12	13	15	09	45	0.476120243437	0.264945260449	0.0812962651273	-0.623046875	0.32421875	0.9208984375	13.125	7.9375	-11.5625
18	12	13	15	09	45	0.475155874311	0.266233773121	0.0806269633866	-0.39013671875	0.18798828125	0.84228515625	3.9375	12.25	-7.375
18	12	13	15	09	45	0.471241740803	0.26665654262	0.0789166650509	-0.52490234375	0.2919921875	1.03173828125	7.625	2.375	-28.0
18	12	13	15	09	45	0.465828453948	0.266911403186	0.077393930766	-0.37890625	0.0732421875	0.9326171875	21.125	6.5625	-31.5
18	12	13	15	09	45	0.460193562092	0.268120731866	0.0774516751054	-0.47998046875	0.0205078125	0.96337890625	19.4375	11.5	-30.875
18	12	13	15	09	45	0.455433816147	0.2687315857	0.0775128580148	-0.49853515625	0.13330078125	1.07763671875	10.25	11.625	-30.1875
18	12	13	15	09	45	0.452211704783	0.26751841032	0.0789798820339	-0.30712890625	0.0791015625	1.02001953125	-1.125	15.6875	-24.0625
18	12	13	15	09	45	0.447013507042	0.267268179593	0.0820297861092	-0.3994140625	0.01806640625	0.94384765625	-0.75	16.5	-34.375
18	12	13	15	09	45	0.440787143881	0.271540017049	0.0820906547383	-0.50390625	0.046875	0.8125	23.875	22.0	-31.625
18	12	13	15	09	45	0.435117881536	0.278380229722	0.0829464442429	-0.57568359375	-0.1171875	0.5322265625	32.75	23.6875	-18.8125
18	12	13	15	09	45	0.426516194256	0.286378646744	0.0788578882339	-0.8173828125	-0.0517578125	0.7392578125	63.0	11.0625	-29.125
18	12	13	15	09	45	0.418033330355	0.296938553391	0.0737921297122	-0.72119140625	-0.224609375	0.1708984375	79.0625	7.25	-16.3125
18	12	13	15	09	45	0.408508235343	0.306396435294	0.0685424694891	-1.107421875	-0.2919921875	0.4111328125	85.6875	-11.1875	-16.125
18	12	13	15	09	45	0.406379258282	0.315313194395	0.0632335403394	-0.81689453125	0.1904296875	0.1962890625	41.0625	-1.875	6.75
18	12	13	15	09	45	0.403989255896	0.318418484364	0.0672603353976	-0.95361328125	-0.3798828125	0.26611328125	15.3125	-15.25	8.25
18	12	13	15	09	45	0.404354347684	0.318722777903	0.0618891031776	-0.81494140625	0.32080078125	0.7861328125	17.25	-23.6875	6.4375
18	12	13	15	09	45	0.405943460165	0.32098280815	0.0581663084555	-0.4931640625	-0.0830078125	0.42138671875	29.125	-5.1875	27.6875
18	12	13	15	09	45	0.4008805012	0.325074535535	0.0532228680035	-0.73876953125	0.02734375	0.72900390625	50.5	-2.25	-9.8125
18	12	13	15	09	45	0.396846853811	0.330441228319	0.0438838646401	-0.60888671875	0.30908203125	0.98876953125	61.8125	14.25	-6.5625
18	12	13	15	09	45	0.394474657266	0.332034989251	0.0368656495418	-0.1552734375	0.4345703125	1.11767578125	34.5	29.25	-15.625
18	12	13	15	09	45	0.390693432533	0.331244064733	0.0399787843007	-0.6171875	0.23291015625	1.16455078125	-6.6875	15.875	-30.625
18	12	13	15	09	45	0.385622289983	0.328187884337	0.0398561816016	-0.57568359375	0.32275390625	1.2001953125	2.1875	-1.6875	-39.25
18	12	13	15	09	45	0.379572990986	0.329768913056	0.0375971960841	-0.44580078125	0.17236328125	0.85693359375	28.375	11.4375	-31.625
18	12	13	15	09	45	0.369263136884	0.330078519714	0.02960208618	-0.6982421875	0.263671875	1.0693359375	60.5625	-15.5	-47.375
18	12	13	15	09	45	0.359995739114	0.328439652793	0.0166020415461	-0.35009765625	0.34033203125	0.966796875	75.25	-22.8125	-40.6875
18	12	13	15	09	45	0.350468062743	0.32806789224	0.0070801628837	-0.41357421875	0.1845703125	0.8662109375	68.125	-15.875	-39.5
18	12	13	15	09	45	0.340143192057	0.329096014995	-0.00195309207712	-0.65771484375	0.3349609375	0.8330078125	61.75	-21.8125	-45.4375
18	12	13	15	09	45	0.333074218494	0.328984797083	-0.00677501159114	-0.5830078125	0.2314453125	0.71875	36.25	-18.0625	-31.875
18	12	13	15	09	45	0.328188275572	0.328310346718	-0.00793462447915	-0.5361328125	0.36474609375	0.6943359375	4.625	-11.0	-32.6875
18	12	13	15	09	45	0.323537464542	0.3292745937	-0.00549299600241	-0.6767578125	0.16748046875	0.560546875	-2.0	-7.625	-27.1875
18	12	13	15	09	46	0.317066836911	0.331470643169	-0.00451644772501	-0.7763671875	0.05419921875	0.49267578125	15.4375	-12.5625	-27.875
18	12	13	15	09	46	0.310479465743	0.335320264358	-0.00683579716201	-0.94775390625	0.00439453125	0.5078125	38.5625	-17.0625	-16.75
18	12	13	15	09	46	0.30578742176	0.337953084688	-0.012207082705	-0.7841796875	0.1630859375	0.52587890625	40.625	-17.9375	-9.0
18	12	13	15	09	46	0.300529288798	0.34123867865	-0.0132442842545	-0.86572265625	0.021484375	0.58837890625	29.5	-8.4375	-13.0625
18	12	13	15	09	46	0.297422949154	0.342588757152	-0.0143431957831	-0.80322265625	0.25537109375	0.79248046875	12.75	-6.0625	-12.75
18	12	13	15	09	46	0.296067064534	0.342695643652	-0.0156852681066	-0.4638671875	0.29931640625	0.84814453125	7.375	8.5	-10.3125
18	12	13	15	09	46	0.289793718701	0.345823759512	-0.0131225041114	-0.72314453125	0.0087890625	0.81884765625	16.875	14.3125	-27.9375
18	12	13	15	09	46	0.282838270119	0.348573448565	-0.0164185357493	-0.66796875	0.22998046875	0.92578125	37.5	10.4375	-30.1875
18	12	13	15	09	46	0.278749038867	0.349733302542	-0.0211182762093	-0.44189453125	0.1806640625	0.86474609375	38.875	10.125	-13.3125
18	12	13	15	09	46	0.27221631772	0.350951530693	-0.0241088442824	-0.46142578125	0.1904296875	0.8017578125	33.25	8.1875	-30.5625
18	12	13	15	09	46	0.265741297403	0.353691046957	-0.0272821221725	-0.61962890625	0.224609375	0.70458984375	33.1875	4.9375	-28.25
18	12	13	15	09	46	0.261102405811	0.355338524224	-0.0304558439691	-0.62255859375	0.2392578125	0.666015625	26.9375	-2.125	-18.4375
18	12	13	15	09	46	0.255738812818	0.355104633168	-0.0344850666449	-0.58544921875	0.248046875	0.67578125	29.375	-12.375	-22.375
18	12	13	15	09	46	0.250296164047	0.35411322697	-0.0391221265921	-0.58740234375	0.2392578125	0.6806640625	32.375	-17.8125	-21.25
18	12	13	15	09	46	0.244314354822	0.352281402956	-0.0440046589624	-0.60302734375	0.22216796875	0.76416015625	36.0625	-20.8125	-22.4375
18	12	13	15	09	46	0.238708258217	0.349181780941	-0.0506591292049	-0.482421875	0.35009765625	0.859375	38.0	-20.3125	-24.3125
18	12	13	15	09	46	0.231996041964	0.348451829405	-0.0549319752084	-0.52783203125	0.181640625	0.6513671875	36.25	-15.25	-26.5625
18	12	13	15	09	46	0.220395604758	0.350277035643	-0.0579827816451	-1.02099609375	0.0927734375	0.8408203125	51.125	-19.875	-43.0625
18	12	13	15	09	46	0.214164415899	0.350572928163	-0.0659765555961	-0.59423828125	0.49609375	0.7783203125	43.1875	-10.0625	-27.3125
18	12	13	15	09	46	0.207945944587	0.352476615788	-0.0693356598329	-0.6748046875	0.0517578125	0.58837890625	40.4375	-7.5625	-16.3125
18	12	13	15	09	46	0.199705276256	0.35339044912	-0.0720818860813	-0.88232421875	0.3212890625	0.7177734375	28.3125	-19.25	-36.5625
18	12	13	15	09	46	0.196353385291	0.352789110034	-0.0761121142237	-0.5087890625	0.1826171875	0.6337890625	29.6875	-9.4375	-7.75
18	12	13	15	09	46	0.193908259794	0.352843452902	-0.0772093007993	-0.45751953125	0.326171875	0.658203125	6.625	1.8125	-16.1875
18	12	13	15	09	46	0.189086086041	0.354673739828	-0.0757442972167	-0.810546875	0.302734375	0.732421875	2.25	-1.9375	-27.0625
18	12	13	15	09	46	0.185661597093	0.352891306507	-0.0745209763481	-0.6455078125	0.2275390625	0.8095703125	1.3125	-11.0625	-19.1875
18	12	13	15	09	46	0.182067004967	0.351316688097	-0.0747066758566	-0.48828125	0.22216796875	0.75732421875	8.4375	-5.1875	-19.5625
18	12	13	15	09	46	0.174497310978	0.352473581985	-0.0769033269786	-0.76318359375	0.1689453125	0.71875	32.0	-9.8125	-30.125
18	12	13	15	09	46	0.168883422974	0.35320866236	-0.0814815213843	-0.677734375	0.25927734375	0.63916015625	34.625	-11.25	-19.625
18	12	13	15	09	46	0.164484813501	0.352101257545	-0.0870945561652	-0.60205078125	0.275390625	0.73388671875	36.875	-14.0625	-12.1875
18	12	13	15	09	46	0.159790613198	0.349427525041	-0.0907596034474	-0.5400390625	0.2548828125	0.63671875	24.75	-23.4375	-17.875
18	12	13	15	09	46	0.149839041227	0.349420982088	-0.096617190331	-0.6669921875	0.0966796875	0.62646484375	57.25	-20.5	-32.75
18	12	13	15	09	46	0.13946552998	0.354736831616	-0.106628569311	-0.92626953125	0.39599609375	0.53271484375	69.625	-7.3125	-34.5
18	12	13	15	09	46	0.133300863435	0.359131080792	-0.119506909618	-0.96435546875	0.3779296875	0.48486328125	77.0625	-13.375	-2.9375
18	12	13	15	09	46	0.126277287485	0.358324772752	-0.132807819027	-0.6982421875	0.27734375	0.60595703125	84.3125	-26.375	-4.375
18	12	13	15	09	46	0.120538901069	0.358381988394	-0.145440101898	-0.45166015625	0.4365234375	0.6416015625	73.3125	-5.0	-11.1875
18	12	13	15	09	46	0.114313409034	0.359479967545	-0.148125276949	-0.62353515625	0.4384765625	0.87109375	27.625	6.5625	-31.5625
18	12	13	15	09	46	0.1104128899	0.358216280166	-0.144775773821	-0.7509765625	0.5576171875	0.84765625	-18.75	-10.6875	-33.9375
18	12	13	15	09	46	0.108885754366	0.354550082463	-0.13946409682	-0.6162109375	0.17626953125	0.87890625	-17.3125	-14.3125	-10.5625
18	12	13	15	09	46	0.103758287353	0.349055085511	-0.139158173626	-0.3525390625	0.16162109375	0.9912109375	18.0625	-13.4375	-23.5
18	12	13	15	09	46	0.0947833597219	0.345809733538	-0.148674993099	-0.32958984375	0.29833984375	0.7529296875	68.875	-15.8125	-31.0
18	12	13	15	09	46	0.0819071869205	0.344901276667	-0.15551379454	-0.798828125	0.13330078125	0.74267578125	71.8125	-28.875	-40.5625
18	12	13	15	09	46	0.0697644832006	0.344305730301	-0.168154987942	-0.69287109375	0.43359375	0.6728515625	86.75	-23.25	-39.3125
18	12	13	15	09	46	0.0607890219324	0.349353776648	-0.182244999488	-0.63818359375	0.36572265625	0.35009765625	89.1875	4.375	-22.25
18	12	13	15	09	46	0.0532228372713	0.354859605385	-0.192810714381	-0.99755859375	0.50048828125	0.39794921875	63.75	-4.75	-18.1875
18	12	13	15	09	46	0.0457747218298	0.35649353361	-0.203422863811	-0.84619140625	0.43359375	0.57373046875	69.75	-12.0	-13.8125
18	12	13	15	09	46	0.0405258612458	0.355821944372	-0.213126969082	-0.49658203125	0.3876953125	0.4716796875	59.375	-10.625	-9.1875
18	12	13	15	09	46	0.0310658671607	0.356860756952	-0.220634793293	-0.732421875	0.25634765625	0.486328125	63.375	-15.625	-24.5
18	12	13	15	09	46	0.0219717640491	0.357407361866	-0.228018084687	-0.771484375	0.365234375	0.5283203125	58.75	-17.625	-25.8125
18	12	13	15	09	46	0.0167848415172	0.356082783315	-0.234377423368	-0.587890625	0.3603515625	0.572265625	46.125	-13.25	-10.4375
18	12	13	15	09	46	0.0107417807225	0.353685336857	-0.239187719611	-0.65380859375	0.439453125	0.63720703125	37.3125	-21.25	-17.625
18	12	13	15	09	47	0.0047607689944	0.350465840588	-0.24640031321	-0.677734375	0.4111328125	0.5986328125	50.4375	-27.625	-8.9375
18	12	13	15	09	47	-0.00445553882017	0.346738575854	-0.257505729894	-0.70556640625	0.396484375	0.60986328125	80.6875	-33.6875	-15.0
18	12	13	15	09	47	-0.0169060773186	0.342210741969	-0.272328220201	-0.76416015625	0.52783203125	0.62451171875	104.9375	-37.375	-27.5625
18	12	13	15	09	47	-0.0301505100903	0.337636886275	-0.288260848495	-0.71044921875	0.62109375	0.66455078125	113.5	-35.6875	-30.75
18	12	13	15	09	47	-0.0418692625303	0.333428252483	-0.302667161644	-0.6435546875	0.642578125	0.57666015625	101.9375	-32.125	-27.25
18	12	13	15	09	47	-0.0524285956113	0.329219842523	-0.313839160225	-0.6376953125	0.67919921875	0.65185546875	79.0	-29.3125	-32.1875
18	12	13	15	09	47	-0.060912550189	0.326230040842	-0.322384859818	-0.5869140625	0.65966796875	0.64501953125	62.375	-18.9375	-29.125
18	12	13	15	09	47	-0.0698814408463	0.322858359893	-0.328046065108	-0.5400390625	0.66943359375	0.7392578125	50.25	-18.8125	-38.0625
18	12	13	15	09	47	-0.0793416785875	0.31870941968	-0.332868857705	-0.5419921875	0.552734375	0.70947265625	50.3125	-26.0	-35.0625
18	12	13	15	09	47	-0.0897794074855	0.312732619956	-0.336962684383	-0.56201171875	0.48193359375	0.70751953125	50.625	-39.75	-33.75
18	12	13	15	09	47	-0.0997892809191	0.303945332708	-0.341663849899	-0.4912109375	0.501953125	0.73876953125	53.625	-50.375	-27.75
18	12	13	15	09	47	-0.109614701783	0.293567213573	-0.343003688208	-0.49072265625	0.49951171875	0.78271484375	35.3125	-62.0625	-27.875
18	12	13	15	09	47	-0.120479393677	0.281912015903	-0.341541381467	-0.5	0.4404296875	0.828125	24.9375	-73.75	-32.0
18	12	13	15	09	47	-0.130975450113	0.269213751375	-0.339034774175	-0.4306640625	0.47509765625	0.8994140625	19.4375	-75.4375	-33.0
18	12	13	15	09	47	-0.14031156761	0.256820824926	-0.337382490539	-0.28369140625	0.48974609375	0.83203125	19.0	-67.5625	-32.4375
18	12	13	15	09	47	-0.153678109987	0.249314963978	-0.334576409431	-0.578125	0.42236328125	0.724609375	16.5625	-66.6875	-52.4375
18	12	13	15	09	47	-0.166562572687	0.245601975997	-0.3361158255	-0.71435546875	0.556640625	0.54638671875	27.25	-51.1875	-53.875
18	12	13	15	09	47	-0.174674022802	0.24522719204	-0.339949093993	-0.85888671875	0.638671875	0.427734375	23.25	-32.1875	-32.125
18	12	13	15	09	47	-0.179867388548	0.244563497086	-0.340203876405	-0.74658203125	0.62158203125	0.40771484375	-2.75	-30.0	-23.0625
18	12	13	15	09	47	-0.1864520241	0.241136480268	-0.33903142189	-0.4775390625	0.51708984375	0.47802734375	0.1875	-34.75	-31.5625
18	12	13	15	09	47	-0.195247365161	0.24108380506	-0.337395259334	-0.60205078125	0.4853515625	0.52587890625	2.5	-24.4375	-46.0625
18	12	13	15	09	47	-0.203720463276	0.242169801762	-0.334448214127	-0.64990234375	0.50341796875	0.60888671875	-4.5625	-18.625	-48.125
18	12	13	15	09	47	-0.213548690572	0.244430553227	-0.328043501522	-0.85498046875	0.3505859375	0.6591796875	-14.9375	-27.4375	-49.125
18	12	13	15	09	47	-0.221666412378	0.2430274378	-0.323833145396	-0.703125	0.423828125	0.7373046875	-4.125	-31.0	-38.875
18	12	13	15	09	47	-0.229119258054	0.241997298398	-0.326345410979	-0.5576171875	0.28759765625	0.57421875	34.5625	-15.25	-29.25
18	12	13	15	09	47	-0.237914150549	0.24114900175	-0.333250708568	-0.63818359375	0.533203125	0.52392578125	49.375	-13.5	-40.375
18	12	13	15	09	47	-0.245292207478	0.239371992468	-0.341053211094	-0.59912109375	0.5537109375	0.427734375	49.625	-15.6875	-31.75
18	12	13	15	09	47	-0.252255735813	0.239438483328	-0.346920300595	-0.74853515625	0.53759765625	0.3369140625	34.0625	-19.125	-30.4375
18	12	13	15	09	47	-0.259944681264	0.239009948774	-0.351007715883	-0.833984375	0.3310546875	0.33935546875	35.8125	-29.6875	-23.125
18	12	13	15	09	47	-0.266894676687	0.235157829699	-0.35801604698	-0.64501953125	0.490234375	0.3896484375	49.375	-29.5	-21.3125
18	12	13	15	09	47	-0.274036876952	0.231558109389	-0.363144636496	-0.63818359375	0.4306640625	0.548828125	47.5625	-25.5625	-22.3125
18	12	13	15	09	47	-0.281848715004	0.228078962315	-0.365280328995	-0.60693359375	0.52880859375	0.703125	32.6875	-23.875	-33.3125
18	12	13	15	09	47	-0.291547600172	0.225267362829	-0.365456778277	-0.61767578125	0.3046875	0.7529296875	36.3125	-26.25	-37.125
18	12	13	15	09	47	-0.304924049863	0.224176548268	-0.366812157662	-0.9306640625	0.30029296875	0.79296875	49.875	-32.5625	-50.375
18	12	13	15	09	47	-0.314016498399	0.218987598884	-0.372120231436	-0.64453125	0.494140625	0.75537109375	59.6875	-26.0	-32.6875
18	12	13	15	09	47	-0.320793868556	0.213313274468	-0.375968460865	-0.49853515625	0.56494140625	0.7294921875	44.0	-22.5	-27.5625
18	12	13	15	09	47	-0.329579096572	0.207573797674	-0.37529293793	-0.48876953125	0.640625	0.75732421875	19.6875	-35.6875	-44.0625
18	12	13	15	09	47	-0.339164744539	0.204035944034	-0.372489191277	-0.39306640625	0.4091796875	0.58154296875	9.5	-34.3125	-48.6875
18	12	13	15	09	47	-0.353574100253	0.204283188943	-0.369198987128	-0.9130859375	0.3544921875	0.6279296875	14.75	-45.5625	-67.4375
18	12	13	15	09	47	-0.364609361146	0.201224818162	-0.368881650279	-0.7802734375	0.490234375	0.5712890625	22.375	-45.4375	-49.75
18	12	13	15	09	47	-0.371261095887	0.19414459083	-0.365340937035	-0.4560546875	0.53564453125	0.71728515625	3.4375	-46.5	-27.75
18	12	13	15	09	47	-0.3810228809	0.187612419652	-0.357525554431	-0.287109375	0.4189453125	0.83251953125	-6.6875	-48.25	-48.6875
18	12	13	15	09	47	-0.396149827995	0.185288996733	-0.345250281462	-0.4755859375	0.35888671875	0.96142578125	-22.8125	-51.375	-83.875
18	12	13	15	09	47	-0.408118109175	0.186451446617	-0.330791109874	-0.69384765625	0.29833984375	1.056640625	-43.75	-42.5625	-68.0
18	12	13	15	09	47	-0.416552345035	0.187738463491	-0.318654914788	-0.599609375	0.1923828125	0.9404296875	-37.25	-30.875	-46.75
18	12	13	15	09	47	-0.425206262209	0.187488680566	-0.309368529229	-0.52734375	0.24951171875	0.8837890625	-23.75	-30.1875	-49.6875
18	12	13	15	09	47	-0.432979249083	0.186094408015	-0.305172856698	-0.5068359375	0.4384765625	0.703125	-10.1875	-26.5625	-49.6875
18	12	13	15	09	47	-0.442613816813	0.188043735466	-0.303396757222	-0.80419921875	0.4609375	0.576171875	-5.6875	-25.5625	-63.125
18	12	13	15	09	47	-0.450123702467	0.189936944011	-0.301384521055	-0.74462890625	0.53076171875	0.44189453125	-17.5	-25.9375	-55.375
18	12	13	15	09	47	-0.458172161207	0.192558034982	-0.297534206192	-0.72412109375	0.2958984375	0.470703125	-15.375	-26.0	-52.625
18	12	13	15	09	48	-0.465734054676	0.199146929683	-0.292281534248	-0.79150390625	0.28466796875	0.4619140625	-32.5625	-13.625	-58.375
18	12	13	15	09	48	-0.473678249829	0.206353068248	-0.289480213753	-0.8984375	0.12548828125	0.42236328125	-12.875	-10.5625	-55.0
18	12	13	15	09	48	-0.47947953333	0.212274671197	-0.288505569507	-0.91845703125	0.1923828125	0.4970703125	-7.5	-5.6875	-42.0
18	12	13	15	09	48	-0.484095922508	0.217330506814	-0.289468855327	-0.837890625	0.0712890625	0.48193359375	8.375	1.25	-28.9375
18	12	13	15	09	48	-0.489123744533	0.221369081785	-0.2917408908	-0.7841796875	0.11474609375	0.423828125	14.9375	1.25	-32.5
18	12	13	15	09	48	-0.493083377725	0.224295260941	-0.29588664627	-0.77294921875	0.16259765625	0.478515625	23.4375	7.0	-25.4375
18	12	13	15	09	48	-0.496634310852	0.22838952823	-0.300165606584	-0.75634765625	0.22216796875	0.5263671875	18.5	16.8125	-29.25
18	12	13	15	09	48	-0.499475681239	0.231001399498	-0.30368902613	-0.7392578125	0.36767578125	0.60986328125	10.9375	13.8125	-28.3125
18	12	13	15	09	48	-0.502438069907	0.235349999704	-0.307004797331	-0.8095703125	0.10400390625	0.56005859375	18.25	16.25	-20.875
18	12	13	15	09	48	-0.507422716662	0.235218565073	-0.308640447217	-0.7314453125	0.30419921875	0.8828125	21.0	6.4375	-33.375
18	12	13	15	09	48	-0.510217146951	0.23325956168	-0.313576040793	-0.33203125	0.17626953125	0.6396484375	38.875	19.4375	-14.25
18	12	13	15	09	48	-0.519997394071	0.2337546971	-0.318834082937	-0.69091796875	-0.0712890625	0.58544921875	64.0625	6.5	-47.9375
18	12	13	15	09	48	-0.527939287398	0.232049152681	-0.330129896594	-0.99951171875	0.22998046875	0.63037109375	82.6875	8.25	-39.75
18	12	13	15	09	48	-0.532377359657	0.226243594205	-0.340677567535	-0.77099609375	0.31640625	0.6640625	77.75	3.0625	-13.9375
18	12	13	15	09	48	-0.537144923759	0.223072911753	-0.347883884266	-0.71044921875	0.22802734375	0.61474609375	59.0	4.3125	-20.3125
18	12	13	15	09	48	-0.54458577094	0.21892067246	-0.355936816779	-0.80322265625	0.3203125	0.6064453125	69.5	-3.5625	-38.0625
18	12	13	15	09	48	-0.551491449167	0.214407864201	-0.363693840813	-0.8671875	0.28271484375	0.673828125	71.4375	-4.75	-30.75
18	12	13	15	09	48	-0.559345751811	0.20860270373	-0.371249340782	-0.76708984375	0.27294921875	0.6181640625	77.0625	-9.9375	-35.0625
18	12	13	15	09	48	-0.567730614055	0.199334356644	-0.375293006431	-0.66796875	0.33251953125	0.82470703125	71.9375	-24.0625	-31.4375
18	12	13	15	09	48	-0.576621088277	0.188341731417	-0.378636455511	-0.40869140625	0.27734375	0.7802734375	76.9375	-25.9375	-32.4375
18	12	13	15	09	48	-0.589208668192	0.181449903722	-0.380599259876	-0.69580078125	0.15771484375	0.7734375	75.375	-31.25	-58.1875
18	12	13	15	09	48	-0.600613681288	0.172964045602	-0.384927394359	-0.779296875	0.2177734375	0.71923828125	85.75	-33.75	-49.5
18	12	13	15	09	48	-0.609635376054	0.163134984502	-0.39010805123	-0.70068359375	0.2412109375	0.6162109375	84.875	-33.1875	-34.0
18	12	13	15	09	48	-0.620036386412	0.15551262059	-0.392504577322	-0.96435546875	0.19287109375	0.74560546875	74.375	-43.125	-39.9375
18	12	13	15	09	48	-0.626662023039	0.145924123207	-0.396637756889	-0.7099609375	0.37744140625	0.62353515625	68.25	-32.75	-24.75
18	12	13	15	09	48	-0.634121138152	0.136284167612	-0.396218905571	-0.603515625	0.5390625	0.8447265625	45.9375	-37.75	-35.4375
18	12	13	15	09	48	-0.640272457076	0.131765154402	-0.395356493846	-0.5654296875	0.39111328125	0.595703125	24.875	-27.875	-34.875
18	12	13	15	09	48	-0.650593637582	0.129630477132	-0.3951166238	-0.94775390625	0.2509765625	0.72802734375	42.125	-33.6875	-59.375
18	12	13	15	09	48	-0.656838239181	0.121394839038	-0.396165862342	-0.734375	0.4794921875	0.84521484375	49.8125	-29.9375	-28.8125
18	12	13	15	09	48	-0.663109046394	0.114556436271	-0.39231154627	-0.55029296875	0.412109375	0.859375	23.875	-37.0625	-26.6875
18	12	13	15	09	48	-0.672210467833	0.112848842839	-0.384320802247	-0.6123046875	0.2021484375	0.90283203125	4.9375	-41.75	-46.3125
18	12	13	15	09	48	-0.680868609285	0.10979586125	-0.376198826428	-0.53369140625	0.33349609375	0.91650390625	1.5	-42.875	-48.125
18	12	13	15	09	48	-0.688505584811	0.108332365308	-0.365156361486	-0.423828125	0.2890625	0.908203125	-20.3125	-44.25	-41.125
18	12	13	15	09	48	-0.696879442719	0.108090164044	-0.355153396145	-0.416015625	0.10986328125	0.78466796875	-11.75	-42.0625	-45.5625
18	12	13	15	09	48	-0.706357706862	0.106567057477	-0.350767972119	-0.751953125	0.1025390625	0.767578125	22.4375	-42.3125	-55.3125
18	12	13	15	09	48	-0.713152665236	0.099969539209	-0.349710292837	-0.69140625	0.44189453125	0.70166015625	30.25	-42.125	-42.1875
18	12	13	15	09	48	-0.718405401187	0.0940500147166	-0.345684155324	-0.49853515625	0.44775390625	0.75146484375	10.625	-39.4375	-30.4375
18	12	13	15	09	48	-0.723652697189	0.0927071305584	-0.34031267939	-0.431640625	0.46044921875	0.5087890625	-18.5	-36.625	-41.9375
18	12	13	15	09	48	-0.732549100361	0.0988083806953	-0.335911876063	-1.10595703125	-0.02880859375	0.634765625	-5.0	-41.5625	-63.25
18	12	13	15	09	48	-0.740255685645	0.0971627546828	-0.331464146157	-0.822265625	0.47802734375	0.69384765625	-4.25	-49.5	-60.875
18	12	13	15	09	48	-0.745347564467	0.0949079153903	-0.325921715874	-0.541015625	0.2890625	0.78125	-3.25	-35.875	-31.8125
18	12	13	15	09	48	-0.751236482505	0.0967959266596	-0.321696929018	-0.54833984375	0.14794921875	0.625	-6.5625	-23.375	-47.0
18	12	13	15	09	48	-0.757943412361	0.0978936495231	-0.323158899143	-0.97509765625	0.07568359375	0.59912109375	26.625	-24.875	-55.0
18	12	13	15	09	48	-0.76230008231	0.0961877445733	-0.325121900598	-0.7978515625	0.3193359375	0.6533203125	21.0625	-16.8125	-41.1875
18	12	13	15	09	48	-0.765146354508	0.0981379387453	-0.324685220227	-0.6962890625	0.20654296875	0.6826171875	-2.3125	-7.4375	-29.1875
18	12	13	15	09	48	-0.768589010736	0.100643474843	-0.32127789665	-0.59228515625	0.2109375	0.72216796875	-15.3125	-13.3125	-32.5625
18	12	13	15	09	48	-0.771762911112	0.106014407007	-0.317066692228	-0.5107421875	0.07373046875	0.72509765625	-24.0625	-2.875	-32.5625
18	12	13	15	09	48	-0.776100124348	0.111813103791	-0.313894537553	-0.73828125	0.0322265625	0.6591796875	-17.1875	-13.0	-43.125
18	12	13	15	09	48	-0.779375566817	0.114434548769	-0.309919273946	-0.673828125	0.04443359375	0.81201171875	-10.375	-15.9375	-25.6875
18	12	13	15	09	49	-0.782574649117	0.115597908706	-0.306816624638	-0.513671875	0.00439453125	0.69677734375	-0.125	-12.8125	-22.9375
18	12	13	15	09	49	-0.786340871709	0.114435667064	-0.306443458309	-0.60107421875	0.10107421875	0.75634765625	17.5625	-9.75	-30.8125
18	12	13	15	09	49	-0.788039969064	0.114678369104	-0.306683770489	-0.630859375	0.2646484375	0.6943359375	-2.4375	-4.4375	-23.0
18	12	13	15	09	49	-0.790779006461	0.116386166962	-0.305094099969	-0.6787109375	0.10888671875	0.73046875	-3.6875	-11.125	-26.9375
18	12	13	15	09	49	-0.793597035357	0.11602153074	-0.304609921054	-0.72216796875	0.1201171875	0.74462890625	9.1875	-14.125	-24.5625
18	12	13	15	09	49	-0.796111512537	0.113215796976	-0.302783595039	-0.603515625	0.25439453125	0.77783203125	5.5625	-20.3125	-19.0
18	12	13	15	09	49	-0.799091628969	0.114312886356	-0.300277309595	-0.7275390625	-0.02099609375	0.8271484375	3.8125	-17.3125	-20.8125
18	12	13	15	09	49	-0.802956006828	0.111508104627	-0.29778217979	-0.50048828125	0.32763671875	0.9150390625	4.5625	-13.625	-35.875
18	12	13	15	09	49	-0.805602870801	0.112784401912	-0.298622336881	-0.7763671875	0.0087890625	0.75	12.25	-6.0	-26.375
18	12	13	15	09	49	-0.809010099782	0.10949559555	-0.299007203232	-0.7119140625	0.1748046875	0.8837890625	24.4375	-13.125	-28.6875
18	12	13	15	09	49	-0.812215202046	0.10759959432	-0.298263878299	-0.54345703125	0.2705078125	0.92431640625	9.0	-3.6875	-33.625
18	12	13	15	09	49	-0.81521372487	0.109187493733	-0.297473361909	-0.66064453125	0.0849609375	0.77783203125	1.5	-6.0	-32.625
18	12	13	15	09	49	-0.817221841916	0.110346309947	-0.298569772267	-0.77783203125	0.14453125	0.6865234375	3.3125	-7.5	-27.5
18	12	13	15	09	49	-0.82004196093	0.108211848521	-0.300100202582	-0.77783203125	0.14892578125	0.75732421875	22.3125	-12.1875	-28.5625
18	12	13	15	09	49	-0.823061577395	0.105339187497	-0.299234088237	-0.76171875	0.25927734375	0.78369140625	11.125	-24.5625	-27.8125
18	12	13	15	09	49	-0.826304888483	0.101617374941	-0.29807763316	-0.693359375	0.0205078125	0.7890625	28.625	-25.1875	-18.125
18	12	13	15	09	49	-0.829434024882	0.0966147212206	-0.299304227963	-0.70703125	0.01318359375	0.65966796875	42.1875	-22.6875	-19.0
18	12	13	15	09	49	-0.831459714485	0.0913671872997	-0.302054916464	-0.724609375	-0.0537109375	0.56689453125	48.8125	-19.125	-7.5625
18	12	13	15	09	49	-0.833558397963	0.0855041232645	-0.303261947538	-0.5908203125	0.04052734375	0.6337890625	42.0	-18.8125	-7.625
18	12	13	15	09	49	-0.836049318556	0.0841603044228	-0.300694575701	-0.53515625	0.08642578125	0.7421875	7.1875	-19.0625	-16.625
18	12	13	15	09	49	-0.838276052871	0.0867266305882	-0.294968195379	-0.5146484375	0.08447265625	0.86767578125	-21.9375	-18.4375	-15.75
18	12	13	15	09	49	-0.839879005861	0.0906344250929	-0.288687428074	-0.4072265625	0.15771484375	0.83935546875	-37.4375	-13.0	-15.75
18	12	13	15	09	49	-0.840788042274	0.0971032066824	-0.284290846466	-0.56103515625	0.02783203125	0.6845703125	-38.8125	-10.875	-14.1875
18	12	13	15	09	49	-0.84158504579	0.097469817835	-0.282766227946	-0.56640625	0.28173828125	0.73291015625	-16.0	-11.125	-13.9375
18	12	13	15	09	49	-0.840892512231	0.103875675411	-0.279036185653	-0.58544921875	0.30322265625	0.65478515625	-58.5625	-9.6875	-9.0
18	12	13	15	09	49	-0.841223878344	0.110226389341	-0.269767796726	-0.5087890625	0.27685546875	0.96875	-71.9375	-22.625	-8.75
18	12	13	15	09	49	-0.842653484525	0.115226318446	-0.261151174062	-0.48583984375	0.078125	0.9658203125	-49.3125	-23.0625	-13.0
18	12	13	15	09	49	-0.844406218491	0.113950589803	-0.25725856241	-0.45361328125	0.119140625	0.962890625	-5.9375	-14.875	-11.6875
18	12	13	15	09	49	-0.845967077368	0.110712378497	-0.255724843386	-0.5322265625	0.1376953125	0.9345703125	9.3125	-13.5625	-9.75
18	12	13	15	09	49	-0.847609724155	0.103815102303	-0.254807790779	-0.505859375	0.20703125	0.95751953125	24.625	-18.9375	-5.1875
18	12	13	15	09	49	-0.848585830041	0.101251718357	-0.253892193108	-0.54833984375	0.21484375	0.84912109375	2.3125	-13.5625	-8.5625
18	12	13	15	09	49	-0.849073409024	0.101190606107	-0.250962468222	-0.54833984375	0.3125	0.94873046875	-23.125	-13.9375	-8.8125
18	12	13	15	09	49	-0.849364693046	0.104301520473	-0.244428080452	-0.4755859375	0.2998046875	1.05224609375	-50.5	-16.5625	-7.1875
18	12	13	15	09	49	-0.849858301291	0.104119085242	-0.239425071164	-0.306640625	0.2939453125	0.97412109375	-29.1875	-10.9375	-4.9375
18	12	13	15	09	49	-0.850724773611	0.103266110693	-0.239733618677	-0.4267578125	0.1181640625	0.875	3.125	4.0	-11.5625
18	12	13	15	09	49	-0.851926784303	0.0933768880281	-0.245038042767	-0.6123046875	0.2490234375	0.94482421875	55.8125	-3.5625	-6.9375
18	12	13	15	09	49	-0.852521350748	0.0801374952414	-0.250483077282	-0.525390625	0.3310546875	0.8515625	66.5625	-9.5	3.9375
18	12	13	15	09	49	-0.852763783613	0.0709822702792	-0.254693907029	-0.53857421875	0.17578125	0.77001953125	52.5625	-8.6875	5.8125
18	12	13	15	09	49	-0.85293101618	0.0665866002613	-0.258961452712	-0.70751953125	-0.04296875	0.65576171875	43.5625	-9.375	4.6875
18	12	13	15	09	49	-0.852434658147	0.0678676408577	-0.26225472371	-0.89599609375	-0.251953125	0.681640625	24.6875	-8.9375	11.625
18	12	13	15	09	49	-0.852921592901	0.0684168233017	-0.262193285374	-0.6943359375	-0.21728515625	0.76904296875	18.1875	-13.1875	6.5625
18	12	13	15	09	49	-0.852354762363	0.0664014020802	-0.261028305788	-0.2890625	0.04833984375	0.58837890625	5.5625	-7.5625	14.6875
18	12	13	15	09	49	-0.85097645521	0.0701263678574	-0.257984470786	-0.3134765625	-0.052734375	0.6181640625	-24.3125	-1.625	19.5625
18	12	13	15	09	49	-0.850616158295	0.0729954025487	-0.257192831388	-0.52734375	-0.00830078125	0.68603515625	-11.3125	-3.6875	3.9375
18	12	13	15	09	49	-0.851422786749	0.0766585677532	-0.254938564893	-0.45166015625	-0.01220703125	0.77099609375	-16.1875	-2.25	-8.875
18	12	13	15	09	49	-0.852548481432	0.0817821580012	-0.253280563959	-0.55517578125	-0.15087890625	0.861328125	-11.3125	1.375	-12.625
18	12	13	15	09	49	-0.853874130172	0.0814201636633	-0.253537751017	-0.8291015625	-0.1494140625	1.13525390625	22.75	-10.0	-5.0625
18	12	13	15	09	49	-0.854828034935	0.0736668169475	-0.25603338616	-0.4794921875	0.21142578125	0.8818359375	41.3125	-5.8125	-3.25
18	12	13	15	09	49	-0.855297210112	0.0671347888628	-0.257126241344	-0.3544921875	0.3212890625	0.9228515625	23.375	-0.625	-2.25
18	12	13	15	09	49	-0.854404640745	0.061582561791	-0.260489964047	-0.35693359375	0.42578125	0.61474609375	14.5	3.5	2.75
18	12	13	15	09	50	-0.852957321044	0.0624993414489	-0.264035303816	-0.78369140625	0.34521484375	0.74560546875	-10.75	1.0	1.0625
18	12	13	15	09	50	-0.851951904509	0.0660371058585	-0.265308039896	-0.62841796875	0.4326171875	0.7197265625	-35.1875	4.8125	-9.1875
18	12	13	15	09	50	-0.851618852356	0.0762270278481	-0.260538976688	-0.4404296875	0.1826171875	0.85546875	-69.5625	7.0625	-11.0625
18	12	13	15	09	50	-0.851210732301	0.0857497009309	-0.258042516396	-0.62158203125	-0.16845703125	0.85693359375	-38.5625	6.625	-1.8125
18	12	13	15	09	50	-0.85214239458	0.0853851317875	-0.25877981328	-0.9755859375	-0.25341796875	1.103515625	29.4375	-16.3125	3.125
18	12	13	15	09	50	-0.854144506881	0.0762901488818	-0.260485084342	-0.58056640625	0.037109375	0.9921875	59.1875	-15.375	-3.5625
18	12	13	15	09	50	-0.854366060767	0.0624997032595	-0.262144751464	-0.00341796875	0.63623046875	0.669921875	38.4375	-4.1875	2.3125
18	12	13	15	09	50	-0.851645278247	0.0653046042514	-0.259814673176	-0.23046875	0.279296875	0.34814453125	-43.4375	-4.0	24.0
18	12	13	15	09	50	-0.849640199276	0.0706761978853	-0.257620234261	-0.71044921875	0.07666015625	0.70947265625	-37.8125	-13.1875	20.125
18	12	13	15	09	50	-0.848459266079	0.0747635304954	-0.258651299787	-0.876953125	-0.0068359375	0.64990234375	-14.0	-12.8125	9.1875
18	12	13	15	09	50	-0.84838317061	0.0781799037156	-0.256388583536	-0.52978515625	0.04833984375	0.7490234375	-21.25	-7.625	0.125
18	12	13	15	09	50	-0.847204230605	0.0835546856637	-0.253410558711	-0.43603515625	0.00537109375	0.857421875	-33.5625	4.1875	10.5625
18	12	13	15	09	50	-0.845696231813	0.0941154438117	-0.250608308879	-0.8349609375	-0.22998046875	0.99267578125	-43.6875	1.0	11.0
18	12	13	15	09	50	-0.846061993404	0.0941696354197	-0.24839301112	-0.54931640625	-0.05126953125	1.00048828125	1.375	-9.0625	4.6875
18	12	13	15	09	50	-0.846220515905	0.0921596090166	-0.248342681516	-0.44873046875	-0.1064453125	0.8388671875	20.125	-3.1875	8.9375
18	12	13	15	09	50	-0.844086889276	0.0883148032381	-0.250601646231	-0.5224609375	0.330078125	0.80908203125	3.5	-0.5625	20.625
18	12	13	15	09	50	-0.841928555593	0.0910588912609	-0.249496479541	-0.5322265625	0.359375	0.85791015625	-39.8125	1.0625	10.4375
18	12	13	15	09	50	-0.83991229094	0.0987485893577	-0.246078066928	-0.3984375	0.431640625	0.8623046875	-75.125	11.5	-2.3125
18	12	13	15	09	50	-0.83730660654	0.107722586234	-0.241689201975	-0.4638671875	0.3935546875	0.90869140625	-84.25	8.5	2.9375
18	12	13	15	09	50	-0.834630187059	0.112606412806	-0.236870183252	-0.40869140625	0.38134765625	0.97705078125	-66.8125	0.0	13.25
18	12	13	15	09	50	-0.831876083241	0.115840117828	-0.235220133882	-0.521484375	0.2421875	0.82568359375	-40.6875	-0.625	17.5625
18	12	13	15	09	50	-0.829803466484	0.115474268799	-0.234305347737	-0.63427734375	0.17822265625	1.00439453125	-15.9375	-8.4375	20.4375
18	12	13	15	09	50	-0.828327827936	0.113397664626	-0.234241246951	-0.50244140625	0.0703125	0.87939453125	3.125	-5.75	20.375
18	12	13	15	09	50	-0.826122792657	0.109185407511	-0.234300044401	-0.30712890625	0.23486328125	0.8017578125	1.25	-2.4375	26.5625
18	12	13	15	09	50	-0.82314445693	0.111079032521	-0.232594611504	-0.52099609375	0.04833984375	0.8271484375	-22.5625	-4.875	30.0625
18	12	13	15	09	50	-0.820290832984	0.114620995859	-0.230523696144	-0.60888671875	0.02880859375	0.8623046875	-29.75	-6.0	25.5
18	12	13	15	09	50	-0.817959184638	0.121760078597	-0.226858251701	-0.5712890625	-0.04541015625	0.80810546875	-46.25	-2.3125	15.625
18	12	13	15	09	50	-0.815114929974	0.130186457928	-0.2220432883	-0.53076171875	-0.091796875	0.8642578125	-54.8125	0.8125	19.0625
18	12	13	15	09	50	-0.811771245419	0.138295890694	-0.219711035524	-0.44775390625	-0.09228515625	0.57568359375	-46.875	7.625	20.375
18	12	13	15	09	50	-0.808012546927	0.148919904411	-0.217825876575	-1.0341796875	-0.1884765625	0.783203125	-51.8125	-10.0	19.6875
18	12	13	15	09	50	-0.803294825075	0.157460921493	-0.217881972764	-1.125	-0.37255859375	0.7744140625	-27.75	-11.5625	37.75
18	12	13	15	09	50	-0.803155020775	0.156053752897	-0.221783080965	-0.4462890625	-0.0498046875	0.681640625	21.9375	12.875	2.3125
18	12	13	15	09	50	-0.800744971485	0.155510532572	-0.225819847141	-0.591796875	-0.12109375	0.62646484375	16.6875	6.1875	25.375
18	12	13	15	09	50	-0.79781648657	0.152581182407	-0.223989175774	-0.494140625	0.00146484375	0.90771484375	-2.625	-15.3125	38.4375
18	12	13	15	09	50	-0.797334284207	0.148432101898	-0.224662239756	-0.4208984375	-0.3212890625	0.67724609375	37.9375	-10.9375	26.3125
18	12	13	15	09	50	-0.79611719749	0.1426956461	-0.229118672139	-0.56884765625	-0.1435546875	0.62158203125	46.625	-8.8125	27.8125
18	12	13	15	09	50	-0.794422697111	0.135984462904	-0.231808343856	-0.61572265625	-0.0537109375	0.94140625	39.0625	-11.6875	33.6875
18	12	13	15	09	50	-0.791959968139	0.133356391059	-0.234304432621	-0.47509765625	-0.01953125	0.68115234375	16.875	0.3125	29.375
18	12	13	15	09	50	-0.790252138034	0.137079572291	-0.230154526763	-0.8095703125	-0.0908203125	1.26416015625	-26.6875	-10.375	17.9375
18	12	13	15	09	50	-0.787321398455	0.131647461742	-0.234243374207	-0.26611328125	0.25146484375	0.6748046875	17.5	10.625	28.4375
18	12	13	15	09	50	-0.7847075036	0.138546008647	-0.229241765849	-0.6806640625	-0.06396484375	1.03955078125	-47.75	-3.5	18.125
18	12	13	15	09	50	-0.781539561768	0.135068102319	-0.231806892276	-0.4697265625	0.2470703125	0.88427734375	3.8125	4.6875	28.375
18	12	13	15	09	50	-0.779383731849	0.133111661642	-0.233387892764	-0.3525390625	0.20703125	0.63330078125	-1.4375	3.125	17.25
18	12	13	15	09	50	-0.776945733719	0.132868096018	-0.232290295564	-0.4775390625	0.12548828125	0.7802734375	-13.875	-5.9375	22.125
18	12	13	15	09	50	-0.775058984498	0.126277426484	-0.235038361233	-0.3857421875	0.19970703125	0.7578125	24.875	-5.1875	24.5625
18	12	13	15	09	50	-0.773757233941	0.122612264	-0.236680119358	-0.44091796875	0.0732421875	0.68994140625	17.75	-6.1875	18.8125
18	12	13	15	09	50	-0.772989293513	0.120235997491	-0.237542386921	-0.62060546875	0.05517578125	0.94091796875	13.5	-7.9375	13.1875
18	12	13	15	09	50	-0.772380074848	0.115170383346	-0.238030998965	-0.5068359375	0.1513671875	1.0810546875	19.75	-7.375	14.6875
18	12	13	15	09	50	-0.771453482758	0.113948073759	-0.236745890792	-0.345703125	0.07373046875	1.02294921875	0.0625	5.0625	12.5625
18	12	13	15	09	50	-0.770485948423	0.112850801539	-0.237114853424	-0.51025390625	0.03564453125	1.0888671875	9.4375	5.5625	13.5
18	12	13	15	09	50	-0.769183049556	0.11004023156	-0.239549588948	-0.58642578125	0.1982421875	0.9912109375	13.4375	1.375	12.75
18	12	13	15	09	51	-0.767310266724	0.109188519501	-0.240410049366	-0.44921875	0.244140625	0.87890625	-5.375	5.6875	12.9375
18	12	13	15	09	51	-0.765149828694	0.111992497061	-0.240402422846	-0.46826171875	0.16796875	0.78515625	-21.1875	10.0	11.1875
18	12	13	15	09	51	-0.763281334517	0.115169668818	-0.240470850631	-0.53076171875	0.10400390625	0.7626953125	-17.875	7.5625	10.3125
18	12	13	15	09	51	-0.761867380911	0.114985031293	-0.241322087969	-0.419921875	0.18701171875	0.67041015625	-5.75	2.375	8.5
18	12	13	15	09	51	-0.761451499718	0.118831842734	-0.240898450576	-0.77587890625	-0.2021484375	0.8349609375	0.0	-5.1875	8.5625
18	12	13	15	09	51	-0.760281590747	0.112421826295	-0.243336493723	-0.35693359375	0.2744140625	0.82421875	23.125	-2.8125	15.1875
18	12	13	15	09	51	-0.760039887105	0.113764904004	-0.242421780421	-0.52197265625	-0.13818359375	0.8955078125	5.875	0.8125	9.5
18	12	13	15	09	51	-0.758987927099	0.11052807462	-0.243210589377	-0.37744140625	0.26171875	0.92724609375	5.8125	2.625	9.4375
18	12	13	15	09	51	-0.758449080885	0.111261983942	-0.242298451043	-0.494140625	0.03955078125	0.89404296875	-2.875	0.5	7.375
18	12	13	15	09	51	-0.757833252716	0.112115622553	-0.241442244322	-0.5234375	0.13134765625	0.990234375	-8.25	2.75	3.9375
18	12	13	15	09	51	-0.756317275742	0.113459797902	-0.24162847762	-0.50341796875	0.1650390625	0.7275390625	-12.5	1.5	8.5625
18	12	13	15	09	51	-0.756475443213	0.12315993904	-0.236066721609	-0.98681640625	-0.27978515625	1.0625	-36.875	-13.0625	-0.125
18	12	13	15	09	51	-0.755756291434	0.12023256837	-0.239061406246	-0.50732421875	0.048828125	0.8486328125	25.3125	3.375	11.9375
18	12	13	15	09	51	-0.755399740909	0.118586224173	-0.240529238016	-0.3740234375	0.14599609375	0.93505859375	9.6875	11.625	2.8125
18	12	13	15	09	51	-0.752889646801	0.117669523268	-0.244127641635	-0.373046875	0.22607421875	0.73876953125	4.625	18.5625	15.3125
18	12	13	15	09	51	-0.751111294443	0.120719764395	-0.244979339879	-0.6533203125	0.10205078125	0.81884765625	-13.0625	6.1875	9.5
18	12	13	15	09	51	-0.749308473662	0.121944964599	-0.246087135766	-0.58056640625	0.19873046875	0.76171875	-10.6875	3.5625	9.25
18	12	13	15	09	51	-0.747353201832	0.123104239126	-0.246818811614	-0.45751953125	0.181640625	0.720703125	-11.5625	7.5	10.875
18	12	13	15	09	51	-0.744412518146	0.1278629356	-0.246265844939	-0.52294921875	0.12158203125	0.77294921875	-29.625	13.4375	14.6875
18	12	13	15	09	51	-0.742208228939	0.129448536599	-0.244554590359	-0.43115234375	0.2373046875	0.86865234375	-26.5	5.3125	11.6875
18	12	13	15	09	51	-0.741175035888	0.131951616238	-0.241748543903	-0.4375	0.01416015625	0.880859375	-18.5625	2.9375	8.375
18	12	13	15	09	51	-0.741277397964	0.129262763781	-0.244305402935	-0.5439453125	0.033203125	0.85595703125	25.6875	0.5	5.75
18	12	13	15	09	51	-0.741681080026	0.125057976709	-0.249261482128	-0.623046875	-0.01416015625	0.7666015625	45.0	-1.8125	6.6875
18	12	13	15	09	51	-0.743307599489	0.118707059776	-0.254075830255	-0.61865234375	-0.091796875	0.83447265625	61.9375	-8.375	4.625
18	12	13	15	09	51	-0.744847135119	0.113033177175	-0.259207291286	-0.65478515625	-0.18408203125	0.76904296875	66.0625	-8.75	7.0625
18	12	13	15	09	51	-0.746242391592	0.106745558428	-0.263659698346	-0.63916015625	-0.0126953125	0.91845703125	57.9375	-7.1875	4.0
18	12	13	15	09	51	-0.74616464677	0.103691619079	-0.267193589364	-0.4306640625	0.20849609375	0.7001953125	22.625	5.875	0.5
18	12	13	15	09	51	-0.745628901956	0.10643994475	-0.265794701483	-0.45654296875	0.15185546875	0.79345703125	-18.25	6.3125	-0.25
18	12	13	15	09	51	-0.745269971712	0.110835334422	-0.263600115291	-0.51416015625	0.08154296875	0.83984375	-23.5	6.4375	-1.6875
18	12	13	15	09	51	-0.744974100555	0.111447051255	-0.263603403269	-0.322265625	0.22265625	0.720703125	-8.6875	10.375	-3.75
18	12	13	15	09	51	-0.746356149266	0.118889670355	-0.263717795484	-0.9306640625	-0.337890625	0.7783203125	1.875	0.75	-7.75
18	12	13	15	09	51	-0.747844211118	0.115963764068	-0.268059395677	-1.0390625	-0.14013671875	0.97314453125	51.6875	-15.5625	4.4375
18	12	13	15	09	51	-0.750210345856	0.107172906551	-0.273730345034	-0.46875	0.1767578125	0.9306640625	64.9375	1.1875	-8.8125
18	12	13	15	09	51	-0.749286033088	0.102106013957	-0.276351483084	-0.28662109375	0.37841796875	0.8125	16.6875	9.0625	5.75
18	12	13	15	09	51	-0.748510449874	0.102169479215	-0.27379467369	-0.46826171875	0.27294921875	0.93798828125	-17.375	-3.3125	5.4375
18	12	13	15	09	51	-0.749062032004	0.104794223821	-0.272880008563	-0.591796875	0.2451171875	0.90185546875	-16.625	4.1875	-11.8125
18	12	13	15	09	51	-0.749377545341	0.105650149127	-0.271663092875	-0.43798828125	0.35107421875	0.89404296875	-18.125	5.0625	-11.3125
18	12	13	15	09	51	-0.74918229723	0.107967697255	-0.268484963382	-0.30712890625	0.2490234375	0.78515625	-28.5625	5.0625	-5.3125
18	12	13	15	09	51	-0.749469609716	0.111749092458	-0.265610076668	-0.57470703125	0.08740234375	0.9072265625	-21.9375	0.3125	-5.0625
18	12	13	15	09	51	-0.749967889594	0.114924278654	-0.265430529935	-0.7197265625	-0.0439453125	0.79931640625	-1.5625	-2.0625	-2.5625
18	12	13	15	09	51	-0.751432303951	0.111262271776	-0.267078278273	-0.49462890625	0.10205078125	0.88232421875	28.5625	-2.3125	-5.1875
18	12	13	15	09	51	-0.751793076067	0.107599544821	-0.270127955404	-0.43017578125	0.1787109375	0.787109375	26.0625	5.25	-0.625
18	12	13	15	09	51	-0.751983739427	0.105769646979	-0.2711071967	-0.5341796875	0.20849609375	0.92333984375	10.1875	1.1875	-0.5625
18	12	13	15	09	51	-0.752693370977	0.105766448707	-0.269573227893	-0.51318359375	0.20166015625	0.95166015625	-5.5	-2.125	-6.0625
18	12	13	15	09	51	-0.753765729975	0.105283067547	-0.266961239102	-0.37109375	0.1787109375	1.013671875	-5.3125	1.5	-7.4375
18	12	13	15	09	51	-0.754152241715	0.10777962765	-0.267374036656	-0.53369140625	0.0751953125	0.8017578125	-3.4375	8.8125	-7.0625
18	12	13	15	09	51	-0.75462012816	0.108761975767	-0.271599771135	-0.91552734375	0.08056640625	0.94873046875	20.125	5.125	-5.1875
18	12	13	15	09	51	-0.754226925273	0.105767540176	-0.27805938433	-0.6494140625	0.34423828125	0.6171875	24.8125	5.5625	-4.4375
18	12	13	15	09	51	-0.753617904635	0.102288921944	-0.280867314312	-0.54541015625	0.17431640625	0.75244140625	23.125	-1.25	9.6875
18	12	13	15	09	51	-0.75234491353	0.098200938255	-0.283800101234	-0.35595703125	0.30615234375	0.6728515625	16.375	5.5625	9.5625
18	12	13	15	09	52	-0.751623561475	0.0969817165395	-0.284597699323	-0.4267578125	0.11376953125	0.69580078125	9.0	1.75	9.25
18	12	13	15	09	52	-0.751272308096	0.0993029527396	-0.285579911413	-0.7705078125	-0.00146484375	0.79638671875	4.125	-0.6875	6.1875
18	12	13	15	09	52	-0.750898891888	0.0980813231946	-0.286492676463	-0.66162109375	0.0322265625	0.8505859375	17.25	-5.3125	12.5
18	12	13	15	09	52	-0.751316267195	0.0974697058254	-0.286122718165	-0.58154296875	-0.107421875	0.91357421875	20.3125	-2.375	10.25
18	12	13	15	09	52	-0.751288740953	0.0916071811674	-0.289407896799	-0.41357421875	0.15576171875	0.86279296875	40.5625	3.875	8.5625
18	12	13	15	09	52	-0.751133527728	0.0910002510639	-0.291310662862	-0.4853515625	-0.04736328125	0.755859375	23.3125	7.875	8.375
18	12	13	15	09	52	-0.75174486895	0.0908172740925	-0.294423743429	-0.56689453125	0.08935546875	0.77783203125	21.625	10.6875	-5.25
18	12	13	15	09	52	-0.752507013068	0.0921561711057	-0.297279940037	-0.7109375	-0.015625	0.76904296875	20.8125	6.375	-4.0
18	12	13	15	09	52	-0.751918412991	0.089656505575	-0.301377688584	-0.49169921875	0.2373046875	0.68603515625	22.625	10.0	2.25
18	12	13	15	09	52	-0.751424104236	0.089106497091	-0.306257809865	-0.62744140625	0.1220703125	0.58837890625	23.75	9.125	1.9375
18	12	13	15	09	52	-0.751323429104	0.0875831942132	-0.311576450494	-0.787109375	0.1533203125	0.57421875	28.6875	-1.4375	1.375
18	12	13	15	09	52	-0.751357735245	0.0831858170042	-0.316630974775	-0.6962890625	-0.029296875	0.3505859375	46.9375	-16.125	13.625
18	12	13	15	09	52	-0.751966036904	0.0743360630589	-0.32316047118	-0.72607421875	-0.0693359375	0.466796875	77.9375	-21.5625	18.4375
18	12	13	15	09	52	-0.751557776012	0.0631689376459	-0.331713213629	-0.630859375	0.21923828125	0.5537109375	80.5625	-9.6875	16.0625
18	12	13	15	09	52	-0.753088461493	0.0543805672413	-0.334461850149	-0.615234375	0.30419921875	0.8818359375	54.4375	-16.8125	1.5625
18	12	13	15	09	52	-0.754063475625	0.0529766974377	-0.329151301016	-0.37255859375	0.3583984375	1.017578125	-13.5	-10.5625	-0.125
18	12	13	15	09	52	-0.756713458181	0.0566360262272	-0.322544610572	-0.3427734375	0.259765625	1.1328125	-28.125	3.75	-21.375
18	12	13	15	09	52	-0.759626461297	0.0645737422507	-0.323418015299	-0.68701171875	0.0087890625	0.98291015625	-3.125	26.875	-34.25
18	12	13	15	09	52	-0.761989841653	0.063839917851	-0.329636134143	-0.875	0.3017578125	1.0380859375	39.6875	16.6875	-29.125
18	12	13	15	09	52	-0.761740754937	0.0590790041486	-0.3366526724	-0.64453125	0.37353515625	0.84716796875	45.8125	17.0625	-4.875
18	12	13	15	09	52	-0.761995356685	0.0517558720439	-0.342394389347	-0.4033203125	0.49658203125	0.76123046875	45.375	12.0625	-10.4375
18	12	13	15	09	52	-0.762120083899	0.0471785717029	-0.348743025499	-0.47607421875	0.56396484375	0.63427734375	31.375	15.125	-19.0
18	12	13	15	09	52	-0.762843552553	0.045835307462	-0.353011209534	-0.60400390625	0.53857421875	0.74169921875	14.5	13.0625	-23.5
18	12	13	15	09	52	-0.763325762284	0.04858137897	-0.355693814871	-0.52099609375	0.28759765625	0.73291015625	2.6875	23.5	-18.625
18	12	13	15	09	52	-0.766359071494	0.0496177371287	-0.354647811137	-0.32275390625	0.287109375	0.99609375	6.75	18.25	-33.6875
18	12	13	15	09	52	-0.769931358929	0.0498639651403	-0.355151056489	-0.12353515625	0.14208984375	1.0419921875	27.5	34.75	-38.875
18	12	13	15	09	52	-0.776089010032	0.0531592896931	-0.352523601914	-0.62939453125	0.4443359375	1.30224609375	-2.1875	10.4375	-66.25
18	12	13	15	09	52	-0.779729270028	0.0568806887654	-0.350560811447	-0.75341796875	0.16357421875	1.10205078125	0.5	3.5	-31.4375
18	12	13	15	09	52	-0.785468568442	0.057369110671	-0.344947035652	-0.45458984375	0.20703125	1.2236328125	4.625	-5.8125	-42.5
18	12	13	15	09	52	-0.790897782341	0.0565755262158	-0.345129019148	-0.2578125	0.0849609375	0.8251953125	33.3125	11.5625	-51.3125
18	12	13	15	09	52	-0.796994888264	0.057734678329	-0.34921546448	-0.7578125	0.18017578125	0.7744140625	37.75	7.375	-70.875
18	12	13	15	09	52	-0.799583554117	0.0565768990662	-0.355695973849	-0.9150390625	0.42236328125	0.73095703125	32.75	8.4375	-45.8125
18	12	13	15	09	52	-0.803134878346	0.0561504740542	-0.354968649021	-0.58056640625	0.494140625	0.7822265625	-0.25	-5.8125	-45.25
18	12	13	15	09	52	-0.806715748658	0.0595668460198	-0.353128863802	-0.4921875	0.28173828125	0.6845703125	-12.5	-0.1875	-45.125
18	12	13	15	09	52	-0.811078834562	0.0659165581554	-0.352775653831	-0.87451171875	0.15283203125	0.7421875	-8.9375	-3.375	-56.0
18	12	13	15	09	52	-0.813067028692	0.0679285094531	-0.352215119545	-0.66357421875	0.35986328125	0.7255859375	-11.3125	-2.5	-31.375
18	12	13	15	09	52	-0.816298788461	0.0719563567548	-0.349467428989	-0.486328125	0.06640625	0.61474609375	-11.125	-4.875	-33.875
18	12	13	15	09	52	-0.818495580039	0.0757402889291	-0.349528311601	-0.6865234375	0.15380859375	0.62548828125	-7.0625	-0.375	-32.5625
18	12	13	15	09	52	-0.820443833359	0.0812326669792	-0.350441753414	-0.71533203125	0.01171875	0.53515625	-6.25	4.1875	-31.9375
18	12	13	15	09	52	-0.821916389987	0.0863601167173	-0.350384049522	-0.75927734375	0.126953125	0.56201171875	-16.25	-2.3125	-28.25
18	12	13	15	09	52	-0.823565611394	0.0930127457955	-0.349163988646	-0.7255859375	-0.068359375	0.63134765625	-16.5	0.9375	-23.5
18	12	13	15	09	52	-0.825425262359	0.0991804237898	-0.346856829783	-0.61279296875	0.14599609375	0.7861328125	-27.8125	6.75	-33.4375
18	12	13	15	09	52	-0.826730131682	0.109551202301	-0.346352686941	-0.7216796875	-0.16015625	0.6416015625	-27.0625	16.375	-32.75
18	12	13	15	09	52	-0.828502891178	0.118218055264	-0.346781099644	-0.91064453125	-0.099609375	0.73681640625	-16.5	11.6875	-38.9375
18	12	13	15	09	52	-0.828600918792	0.122984004962	-0.347467960422	-0.72705078125	0.07080078125	0.62353515625	-16.4375	8.5625	-18.25
18	12	13	15	09	52	-0.829612238704	0.126642050711	-0.348616575258	-0.615234375	-0.04296875	0.548828125	-0.875	10.0625	-22.75
18	12	13	15	09	52	-0.828342893075	0.128535966167	-0.355945752462	-0.82275390625	0.19189453125	0.34521484375	8.625	20.8125	-20.625
18	12	13	15	09	52	-0.827409033074	0.129204464337	-0.365825016172	-1.0712890625	-0.06982421875	0.216796875	38.25	13.8125	-15.5625
18	12	13	15	09	52	-0.826739958292	0.12249129605	-0.376933853714	-1.03271484375	0.04833984375	0.08740234375	69.5	-1.8125	-4.3125
18	12	13	15	09	53	-0.829435662392	0.10625809332	-0.382309417897	-0.90673828125	0.04296875	0.587890625	105.125	-17.0625	4.9375
18	12	13	15	09	53	-0.83075753442	0.0921572051847	-0.385473448971	-0.5244140625	0.27685546875	0.55419921875	72.375	-15.5	10.6875
18	12	13	15	09	53	-0.834386644462	0.0847752943572	-0.388538174138	-0.4443359375	-0.28857421875	0.46630859375	83.0	-3.6875	-15.0
18	12	13	15	09	53	-0.836637736143	0.0786712898955	-0.398055975717	-1.1396484375	-0.01953125	0.650390625	89.625	13.125	-38.5
18	12	13	15	09	53	-0.837334485122	0.0689691645301	-0.406429793456	-0.9921875	0.19384765625	0.74853515625	85.0	14.3125	-16.1875
18	12	13	15	09	53	-0.838697840206	0.0638391748549	-0.411842019045	-0.828125	0.078125	0.7529296875	62.4375	16.375	-23.0
18	12	13	15	09	53	-0.840187010962	0.0567611448638	-0.41673666358	-0.81298828125	0.24267578125	0.802734375	63.125	13.625	-25.875
18	12	13	15	09	53	-0.840638276904	0.0504724738638	-0.421539754507	-0.62939453125	0.37890625	0.67431640625	46.5625	18.625	-24.25
18	12	13	15	09	53	-0.841307502078	0.0479090597846	-0.423979921432	-0.828125	0.42724609375	0.72900390625	19.0	7.8125	-26.5
18	12	13	15	09	53	-0.843303023641	0.0456532287532	-0.423574074261	-0.66552734375	0.244140625	0.67236328125	19.5625	-4.5625	-22.25
18	12	13	15	09	53	-0.846564836168	0.0405857988646	-0.42282468351	-0.63037109375	0.19091796875	0.6923828125	42.0625	-11.5625	-28.3125
18	12	13	15	09	53	-0.850359812307	0.030027777769	-0.423562556335	-0.7548828125	0.26123046875	0.74658203125	77.0	-17.625	-31.9375
18	12	13	15	09	53	-0.853173127052	0.0176383885627	-0.426250884851	-0.794921875	0.181640625	0.6357421875	93.3125	-16.5625	-23.3125
18	12	13	15	09	53	-0.857309412809	0.0042111731675	-0.425145395432	-0.77490234375	0.3935546875	0.82080078125	84.25	-30.0625	-29.75
18	12	13	15	09	53	-0.860812354102	-0.00683571920444	-0.423570457847	-0.5205078125	0.25634765625	0.76611328125	73.875	-18.6875	-23.3125
18	12	13	15	09	53	-0.865527138774	-0.0108030677359	-0.42064826461	-0.70068359375	0.263671875	0.8134765625	42.125	-23.3125	-50.1875
18	12	13	15	09	53	-0.869732317572	-0.0132443447658	-0.419119426299	-0.8759765625	0.03466796875	0.7841796875	48.8125	-22.5625	-44.1875
18	12	13	15	09	53	-0.87363093362	-0.0166010628716	-0.417895137802	-0.712890625	0.08642578125	0.7685546875	50.9375	-15.25	-47.4375
18	12	13	15	09	53	-0.87660311856	-0.0190419949169	-0.417581183401	-0.8623046875	0.12744140625	0.81591796875	43.75	-11.0	-42.3125
18	12	13	15	09	53	-0.879783109229	-0.0189200668651	-0.415142886506	-0.955078125	0.18505859375	0.7568359375	17.125	-26.1875	-36.8125
18	12	13	15	09	53	-0.883806641858	-0.0188589360082	-0.411112598547	-0.724609375	0.1416015625	0.951171875	21.8125	-16.1875	-43.0625
18	12	13	15	09	53	-0.886876239271	-0.0180048510485	-0.406543433335	-0.5693359375	0.50244140625	0.8369140625	-12.9375	-14.375	-41.625
18	12	13	15	09	53	-0.890403746388	-0.0169670465074	-0.403913358942	-0.6181640625	-0.01318359375	0.5927734375	22.1875	-21.0	-46.0
18	12	13	15	09	53	-0.892481846485	-0.018065692851	-0.405501565209	-0.8701171875	0.24462890625	0.5390625	31.6875	-13.125	-63.75
18	12	13	15	09	53	-0.893156092872	-0.024962473827	-0.407333863867	-0.875	0.283203125	0.498046875	48.9375	-16.6875	-27.125
18	12	13	15	09	53	-0.894998591494	-0.0295403244874	-0.406667731528	-0.7109375	0.25830078125	0.50341796875	36.125	-21.625	-35.75
18	12	13	15	09	53	-0.896475823261	-0.0320409699239	-0.406706711567	-0.77685546875	0.22998046875	0.4775390625	27.0	-19.5625	-37.875
18	12	13	15	09	53	-0.897908245489	-0.0348494839705	-0.406658689484	-0.8056640625	0.1650390625	0.4697265625	31.375	-21.875	-33.5
18	12	13	15	09	53	-0.898522660859	-0.0382674710202	-0.407942226952	-0.7841796875	0.16796875	0.41455078125	33.75	-15.0625	-29.125
18	12	13	15	09	53	-0.899384694443	-0.0431504464557	-0.408983227298	-0.796875	0.091796875	0.47705078125	49.6875	-15.9375	-30.125
18	12	13	15	09	53	-0.899885803477	-0.0491934317419	-0.410514915504	-0.80908203125	0.10791015625	0.50634765625	56.4375	-12.5625	-29.875
18	12	13	15	09	53	-0.90006109679	-0.0550522214216	-0.412586493138	-0.8408203125	0.0908203125	0.556640625	58.625	-7.5	-30.0
18	12	13	15	09	53	-0.900432047364	-0.0603014209175	-0.413748312145	-0.77197265625	0.20263671875	0.638671875	49.3125	-4.0625	-33.8125
18	12	13	15	09	53	-0.900900880404	-0.0621310952003	-0.414532808055	-0.8447265625	0.10107421875	0.60498046875	31.0625	-8.125	-27.4375
18	12	13	15	09	53	-0.90144917235	-0.0636568372891	-0.415569899426	-0.796875	0.02685546875	0.59423828125	38.0	-6.125	-36.375
18	12	13	15	09	53	-0.900970880423	-0.0673195285941	-0.41813788794	-0.88037109375	0.16015625	0.53173828125	42.1875	-2.9375	-33.875
18	12	13	15	09	53	-0.900296175911	-0.0717746798774	-0.420455586458	-0.93359375	0.09423828125	0.52978515625	45.5625	-5.6875	-20.3125
18	12	13	15	09	53	-0.900861421814	-0.0781234837346	-0.419303385357	-0.68701171875	0.3505859375	0.6201171875	39.625	-11.375	-23.625
18	12	13	15	09	53	-0.901597022153	-0.0840994176218	-0.417933825743	-0.68701171875	0.18994140625	0.6181640625	48.4375	-13.4375	-23.5
18	12	13	15	09	53	-0.902056229059	-0.0899004618	-0.417399360659	-0.791015625	0.2392578125	0.58349609375	52.0625	-15.9375	-39.1875
18	12	13	15	09	53	-0.902063266867	-0.0989340024081	-0.416609192127	-0.845703125	0.35498046875	0.69091796875	62.9375	-13.75	-30.0625
18	12	13	15	09	53	-0.902581211729	-0.105643929779	-0.414885866342	-0.8115234375	0.2275390625	0.6181640625	54.6875	-21.25	-27.5
18	12	13	15	09	53	-0.903914637329	-0.111265117073	-0.411674829762	-0.748046875	0.10107421875	0.67041015625	62.9375	-27.5	-42.6875
18	12	13	15	09	53	-0.904902357229	-0.115225983034	-0.409088858198	-0.78173828125	0.12548828125	0.79833984375	50.5625	-16.875	-35.0625
18	12	13	15	09	53	-0.907419792316	-0.114312434154	-0.404030066259	-0.58837890625	0.19677734375	0.875	11.875	-18.0625	-31.5625
18	12	13	15	09	53	-0.908999601777	-0.111015863813	-0.401646728837	-0.57861328125	0.00830078125	0.65673828125	9.3125	-13.8125	-40.25
18	12	13	15	09	53	-0.908758030685	-0.109551421429	-0.402685391972	-1.029296875	0.0908203125	0.62744140625	20.125	-15.5	-46.6875
18	12	13	15	09	53	-0.908587365456	-0.116388534018	-0.401043029382	-0.8515625	0.302734375	0.6005859375	48.625	-21.0	-28.3125
18	12	13	15	09	53	-0.908165225727	-0.124140327226	-0.39939739497	-0.79736328125	0.2958984375	0.48486328125	53.3125	-24.375	-27.0625
18	12	13	15	09	53	-0.908280434661	-0.131463247968	-0.396281740509	-0.81103515625	0.4384765625	0.623046875	48.25	-27.3125	-38.3125
18	12	13	15	09	54	-0.908969042699	-0.133540875943	-0.393542764206	-0.7646484375	0.322265625	0.609375	19.1875	-24.4375	-29.875
18	12	13	15	09	54	-0.911707095288	-0.133051376873	-0.386581385832	-0.5771484375	0.2392578125	0.76904296875	14.625	-36.5	-39.875
18	12	13	15	09	54	-0.911800761766	-0.135305374085	-0.384433266289	-0.509765625	-0.00341796875	0.52978515625	41.5625	-15.8125	-36.5
