18	12	13	15	58	28	-0.823041142668	-0.0957010390584	-0.186336270565	-1.49365234375	0.2578125	1.55029296875	-7.0625	-147.5	126.6875
18	12	13	15	58	28	-0.83915584201	-0.0843489252788	-0.169308190104	-1.1376953125	0.25390625	1.13818359375	-34.625	-133.0625	128.5
18	12	13	15	58	28	-0.85419590263	-0.0698859813156	-0.156434733722	-0.85302734375	0.1826171875	0.76171875	-60.6875	-119.25	126.125
18	12	13	15	58	28	-0.867546655809	-0.0549922285693	-0.146483183758	-0.6591796875	0.11865234375	0.45361328125	-69.1875	-103.375	119.3125
18	12	13	15	58	28	-0.879007482909	-0.0415639561076	-0.139950295675	-0.564453125	0.06787109375	0.1796875	-69.125	-81.1875	111.125
18	12	13	15	58	28	-0.887729382383	-0.0336293495836	-0.141414161498	-0.46728515625	0.0703125	-0.07470703125	-63.5	-48.75	98.9375
18	12	13	15	58	28	-0.893853827921	-0.0300290941166	-0.146727524911	-0.36669921875	0.03857421875	-0.34814453125	-44.4375	-15.0	81.5
18	12	13	15	58	28	-0.897827912695	-0.032165554724	-0.153259407803	-0.3134765625	0.01513671875	-0.54150390625	-13.1875	5.9375	65.375
18	12	13	15	58	28	-0.900053843079	-0.0421127789872	-0.159296163995	-0.27978515625	0.064453125	-0.57568359375	27.625	23.5	51.9375
18	12	13	15	58	28	-0.899386151805	-0.0594463973845	-0.165278074042	-0.24951171875	0.1591796875	-0.52880859375	63.375	43.9375	24.5625
18	12	13	15	58	28	-0.894806593887	-0.0802585547344	-0.174554727407	-0.240234375	0.21142578125	-0.41748046875	76.8125	73.0625	-13.625
18	12	13	15	58	28	-0.884960180844	-0.103998079183	-0.188038780495	-0.34375	0.41259765625	-0.2939453125	78.125	99.6875	-68.125
18	12	13	15	58	28	-0.870478482389	-0.113768888737	-0.202757643984	-0.65234375	0.66748046875	0.06005859375	35.0625	91.875	-142.625
18	12	13	15	58	28	-0.853388606401	-0.103759163988	-0.226011873087	-1.01171875	0.5712890625	0.97509765625	-77.875	88.125	-195.4375
18	12	13	15	58	28	-0.836159506176	-0.0823952798057	-0.258293943806	-1.8857421875	0.43994140625	1.5546875	-155.1875	113.0	-183.5
18	12	13	15	58	28	-0.818154479125	-0.0703106273743	-0.290214438511	-2.27001953125	-0.45361328125	2.43408203125	-115.0	139.8125	-152.5
18	12	13	15	58	28	-0.800077228744	-0.0972250381714	-0.3027220272	-1.775390625	-1.01611328125	2.62841796875	127.125	157.6875	-92.5
18	12	13	15	58	28	-0.781061392345	-0.147826107077	-0.292478408386	-1.77783203125	-0.357421875	1.95361328125	312.5	121.1875	-66.625
18	12	13	15	58	28	-0.763925143721	-0.189943675876	-0.279849535312	-1.2353515625	0.30078125	1.568359375	267.375	86.125	-55.375
18	12	13	15	58	28	-0.749927122459	-0.210323827134	-0.278804191047	-0.53173828125	0.35888671875	1.26220703125	122.75	76.3125	-67.5625
18	12	13	15	58	28	-0.73979544927	-0.211117272422	-0.283381756535	-0.1728515625	0.05517578125	1.0078125	14.75	63.125	-85.75
18	12	13	15	58	28	-0.730096106717	-0.205503560551	-0.289426161014	0.00634765625	-0.15673828125	0.85595703125	-6.9375	48.875	-89.3125
18	12	13	15	58	28	-0.721032678919	-0.201588872395	-0.290817734472	0.2255859375	-0.2529296875	0.73486328125	20.25	39.4375	-75.4375
18	12	13	15	58	28	-0.712631292682	-0.203242737635	-0.286187746778	0.39794921875	-0.259765625	0.56201171875	63.625	32.625	-55.0
18	12	13	15	58	28	-0.704939482852	-0.209894968098	-0.276482758209	0.43408203125	-0.24267578125	0.33984375	99.875	20.75	-37.25
18	12	13	15	58	28	-0.699524912128	-0.219971013289	-0.264953986873	0.435546875	-0.24267578125	0.1962890625	103.3125	-3.75	-17.375
18	12	13	15	58	28	-0.699840086696	-0.219730011522	-0.251041538163	0.51416015625	-0.26171875	0.12060546875	70.625	-31.4375	8.625
18	12	13	15	58	28	-0.704700124332	-0.212093619613	-0.23900967321	0.61181640625	-0.240234375	0.17333984375	22.1875	-44.75	24.5
18	12	13	15	58	29	-0.712147018357	-0.19970389476	-0.231197540756	0.60986328125	-0.17626953125	0.29931640625	-23.5	-38.8125	32.5625
18	12	13	15	58	29	-0.721298383584	-0.185604026441	-0.226679827097	0.3798828125	-0.1015625	0.44775390625	-52.8125	-37.5	41.75
18	12	13	15	58	29	-0.732601839219	-0.170531495358	-0.221678736986	0.09521484375	-0.01318359375	0.58349609375	-66.0625	-54.75	55.75
18	12	13	15	58	29	-0.746071479538	-0.153559869316	-0.211724636986	-0.07958984375	0.11181640625	0.84912109375	-68.125	-86.5	66.0
18	12	13	15	58	29	-0.760475155238	-0.132625402274	-0.20153201947	-0.2060546875	0.3125	1.640625	-83.875	-116.125	71.5
18	12	13	15	58	29	-0.774135176248	-0.108515637289	-0.199392906086	-0.4599609375	0.99609375	2.4091796875	-122.125	-99.1875	73.1875
18	12	13	15	58	29	-0.784972779	-0.073242153394	-0.207763575128	-1.42919921875	0.97265625	2.822265625	-205.0	-87.625	43.75
18	12	13	15	58	29	-0.791423850471	-0.0438832226798	-0.208857285132	-2.16650390625	0.021484375	2.96142578125	-146.25	-97.5	13.9375
18	12	13	15	58	29	-0.804066627228	-0.0339351028343	-0.191525814198	-2.083984375	-0.1357421875	2.583984375	-4.4375	-123.875	84.0
18	12	13	15	58	29	-0.819191721104	-0.0362539027221	-0.163142562249	-1.74365234375	0.0869140625	1.890625	84.625	-137.1875	117.5
18	12	13	15	58	29	-0.835137946729	-0.0408322214691	-0.137999480929	-1.21484375	0.0986328125	1.3203125	77.6875	-129.0	140.5625
18	12	13	15	58	29	-0.851987011784	-0.0407103185658	-0.118712997917	-0.9140625	0.087890625	0.87060546875	34.4375	-112.75	162.625
18	12	13	15	58	29	-0.868107302638	-0.0344850331147	-0.105408233963	-0.75732421875	0.126953125	0.51220703125	-14.4375	-99.25	164.25
18	12	13	15	58	29	-0.882305147051	-0.0219721813045	-0.0991799850552	-0.70947265625	0.15478515625	0.25244140625	-64.9375	-80.5	152.6875
18	12	13	15	58	29	-0.893845270407	-0.00695789421826	-0.100096022087	-0.69775390625	0.125	0.0439453125	-94.5	-50.625	134.6875
18	12	13	15	58	29	-0.902525337451	0.0047607341801	-0.105285467445	-0.62451171875	0.10205078125	-0.1318359375	-85.8125	-17.625	113.4375
18	12	13	15	58	29	-0.908822282621	0.00585943177512	-0.115540670316	-0.5185546875	0.07666015625	-0.30322265625	-42.5	7.25	96.5
18	12	13	15	58	29	-0.913244078705	-0.00433337763738	-0.123836946848	-0.46630859375	0.0859375	-0.44921875	23.0	25.3125	79.0
18	12	13	15	58	29	-0.915277079373	-0.0256345941142	-0.129759874016	-0.43408203125	0.15478515625	-0.5322265625	85.0625	39.125	54.5
18	12	13	15	58	29	-0.91430087763	-0.0493160954022	-0.131224758805	-0.35888671875	0.25048828125	-0.49609375	116.75	51.875	16.5
18	12	13	15	58	29	-0.909462301101	-0.0711041930597	-0.135372618203	-0.25537109375	0.3359375	-0.3896484375	105.8125	64.875	-32.0625
18	12	13	15	58	29	-0.899345108893	-0.085509501022	-0.144591012078	-0.33251953125	0.58984375	-0.22998046875	62.0	74.25	-106.75
18	12	13	15	58	29	-0.883960387307	-0.0837391183723	-0.158872394405	-0.56201171875	0.75390625	0.50390625	-23.8125	63.125	-192.9375
18	12	13	15	58	29	-0.865901708592	-0.0640866140848	-0.186766703904	-0.98779296875	0.6181640625	1.3369140625	-146.375	89.0625	-222.125
18	12	13	15	58	29	-0.847477125642	-0.0406496050182	-0.221985906083	-1.77734375	0.4052734375	1.77880859375	-179.9375	125.375	-190.4375
18	12	13	15	58	29	-0.829993342337	-0.036131778709	-0.250481114564	-1.8154296875	-0.74755859375	2.744140625	-75.375	144.125	-141.25
18	12	13	15	58	29	-0.81400140939	-0.0745216856014	-0.255912717221	-1.72998046875	-0.751953125	2.6064453125	197.75	154.625	-82.125
18	12	13	15	58	29	-0.79845466976	-0.12432748527	-0.243955306148	-1.7470703125	-0.00390625	2.017578125	304.3125	105.8125	-61.8125
18	12	13	15	58	29	-0.783455090424	-0.158815062736	-0.234194233559	-1.0322265625	0.43212890625	1.619140625	215.75	70.4375	-73.375
18	12	13	15	58	29	-0.771846803419	-0.172423471427	-0.230406585712	-0.39013671875	0.29150390625	1.25830078125	85.75	55.75	-87.0
18	12	13	15	58	29	-0.761505591754	-0.172417511958	-0.232961997573	-0.06103515625	-0.01513671875	1.01513671875	19.4375	48.1875	-92.3125
18	12	13	15	58	29	-0.751910189814	-0.169668046078	-0.234849870974	0.1748046875	-0.2177734375	0.8603515625	19.6875	42.9375	-83.0
18	12	13	15	58	29	-0.743739791483	-0.169547771274	-0.232655185059	0.4033203125	-0.27734375	0.685546875	45.1875	39.5	-61.875
18	12	13	15	58	29	-0.737300682882	-0.173094762968	-0.227293687339	0.5205078125	-0.30615234375	0.47314453125	68.9375	36.875	-37.5625
18	12	13	15	58	29	-0.733012127646	-0.17809570262	-0.220208805707	0.48193359375	-0.32470703125	0.2626953125	77.25	24.5625	-15.125
18	12	13	15	58	29	-0.732864797692	-0.178409578051	-0.210880975766	0.53076171875	-0.353515625	0.138671875	59.0625	-5.5625	8.75
18	12	13	15	58	29	-0.737360982924	-0.169920782755	-0.202086103341	0.6962890625	-0.3505859375	0.125	11.125	-27.1875	27.125
18	12	13	15	58	29	-0.744536769805	-0.153741136416	-0.197745645886	0.75732421875	-0.3017578125	0.2265625	-45.8125	-28.5	34.0625
18	12	13	15	58	29	-0.753189051406	-0.134890421686	-0.198002048846	0.556640625	-0.20458984375	0.38623046875	-84.75	-23.5625	42.8125
18	12	13	15	58	29	-0.763784251375	-0.117918425256	-0.200497943565	0.16455078125	-0.07373046875	0.5146484375	-101.8125	-46.0625	61.9375
18	12	13	15	58	29	-0.777395861106	-0.095640991941	-0.197202326076	-0.02490234375	0.1591796875	0.83203125	-113.5	-93.0625	77.1875
18	12	13	15	58	29	-0.793060677333	-0.06744128432	-0.188896628932	0.01318359375	0.37939453125	1.79931640625	-132.375	-130.25	86.75
18	12	13	15	58	29	-0.806185465451	-0.0379625527678	-0.189568631667	-0.10302734375	1.17431640625	2.64599609375	-158.5625	-102.125	83.8125
18	12	13	15	58	29	-0.814683248914	0.00622547882748	-0.198299810887	-1.224609375	1.00439453125	3.15283203125	-249.5625	-107.75	43.3125
18	12	13	15	58	29	-0.817910226178	0.0418689959822	-0.19469693467	-2.42724609375	-0.00439453125	2.99755859375	-161.3125	-131.9375	-6.875
18	12	13	15	58	29	-0.831776924305	0.0554802776778	-0.175229787913	-1.85107421875	-0.19189453125	2.61572265625	-18.125	-152.8125	97.875
18	12	13	15	58	29	-0.848943956058	0.0539554574128	-0.145691942132	-1.47412109375	0.2236328125	2.0234375	82.8125	-159.5625	132.8125
18	12	13	15	58	29	-0.865181523212	0.0504155159205	-0.122010431386	-1.20947265625	0.33203125	1.37255859375	62.875	-141.875	141.0625
18	12	13	15	58	29	-0.879673828624	0.0551741581264	-0.107601815019	-1.03662109375	0.29052734375	0.81201171875	-3.25	-117.3125	146.3125
18	12	13	15	58	30	-0.891463430509	0.0655505767744	-0.0998517165762	-0.875	0.24951171875	0.357421875	-47.3125	-95.0	134.0
18	12	13	15	58	30	-0.900919141688	0.0780621626054	-0.0979591641765	-0.7587890625	0.16064453125	0.037109375	-70.375	-67.25	123.0
18	12	13	15	58	30	-0.908864791181	0.08740140897	-0.101195206754	-0.63330078125	0.07861328125	-0.189453125	-64.4375	-30.0625	118.0625
18	12	13	15	58	30	-0.916188257532	0.0891103095061	-0.107176509242	-0.48193359375	0.03515625	-0.41845703125	-28.375	4.5	117.375
18	12	13	15	58	30	-0.922850347208	0.080139054622	-0.113220065745	-0.3896484375	0.08154296875	-0.576171875	28.1875	30.5625	107.125
18	12	13	15	58	30	-0.92754467152	0.0592647151441	-0.122252548335	-0.36669921875	0.19091796875	-0.61669921875	83.0625	50.9375	78.8125
18	12	13	15	58	30	-0.928757116008	0.0332636280623	-0.127134196796	-0.35400390625	0.35302734375	-0.49609375	123.0625	68.875	28.0625
18	12	13	15	58	30	-0.924817349684	0.00671351603414	-0.134880640322	-0.2705078125	0.443359375	-0.375	124.9375	92.4375	-37.5
18	12	13	15	58	30	-0.915025250411	-0.0135496001595	-0.148069053995	-0.3427734375	0.60498046875	-0.3291015625	85.3125	112.6875	-109.6875
18	12	13	15	58	30	-0.900510283314	-0.0151366782067	-0.169372104934	-0.4580078125	0.52099609375	-0.12890625	-23.25	117.625	-167.4375
18	12	13	15	58	30	-0.883839238868	0.00408930522782	-0.199643543287	-0.7431640625	0.19091796875	0.95263671875	-151.4375	120.3125	-180.5625
18	12	13	15	58	30	-0.865071332989	0.0244129062506	-0.234852158131	-1.5791015625	0.4580078125	1.93310546875	-166.625	151.0625	-167.3125
18	12	13	15	58	30	-0.844175403244	0.0308226866198	-0.274108288335	-2.6142578125	-0.25830078125	2.30517578125	-111.6875	209.1875	-140.75
18	12	13	15	58	30	-0.827491160559	-0.00018310027155	-0.288627061387	-2.142578125	-1.1103515625	2.4833984375	143.5	182.0625	-99.3125
18	12	13	15	58	30	-0.813050497658	-0.0535279098	-0.280212809455	-1.82666015625	-0.22265625	2.02978515625	319.625	131.1875	-74.4375
18	12	13	15	58	30	-0.796377886818	-0.0961903394868	-0.270565847046	-1.37939453125	0.60791015625	1.84619140625	272.0	98.6875	-92.375
18	12	13	15	58	30	-0.778961581417	-0.120905969818	-0.269887026015	-0.66650390625	0.45068359375	1.57861328125	147.125	93.8125	-114.4375
18	12	13	15	58	30	-0.761715610189	-0.135985767588	-0.27398568703	-0.25634765625	-0.0576171875	1.2421875	93.25	89.125	-115.3125
18	12	13	15	58	30	-0.746030911157	-0.152160276652	-0.274047188996	0.04931640625	-0.2734375	0.9677734375	110.75	75.25	-94.1875
18	12	13	15	58	30	-0.732546902136	-0.169373242245	-0.268189559072	0.3515625	-0.291015625	0.73583984375	131.3125	53.5625	-72.8125
18	12	13	15	58	30	-0.722338461985	-0.183346408095	-0.260310396313	0.5380859375	-0.330078125	0.53271484375	117.625	32.125	-50.6875
18	12	13	15	58	30	-0.717268934509	-0.1841999357	-0.248956771942	0.60888671875	-0.41943359375	0.34912109375	86.625	0.5625	-27.8125
18	12	13	15	58	30	-0.717338203967	-0.176572740924	-0.236569631462	0.7001953125	-0.47119140625	0.2080078125	48.625	-38.375	-5.25
18	12	13	15	58	30	-0.722986680864	-0.15837839244	-0.225879934651	0.83447265625	-0.45703125	0.19677734375	-13.6875	-64.125	17.0625
18	12	13	15	58	30	-0.73290256203	-0.132505951213	-0.217710146466	0.85888671875	-0.38916015625	0.35595703125	-69.25	-74.75	37.875
18	12	13	15	58	30	-0.743630533973	-0.110348326118	-0.215508816108	0.783203125	-0.22021484375	0.57177734375	-100.625	-80.5625	47.6875
18	12	13	15	58	30	-0.755301547146	-0.085082049028	-0.211545467669	0.515625	0.01708984375	0.80029296875	-113.875	-102.125	50.8125
18	12	13	15	58	30	-0.768568004075	-0.0580454393166	-0.205081678343	0.17724609375	0.22265625	0.96240234375	-120.75	-125.0	64.375
18	12	13	15	58	30	-0.783255447493	-0.0272824113636	-0.197690672051	-0.150390625	0.27978515625	1.0166015625	-139.5	-148.0	78.3125
18	12	13	15	58	30	-0.799102992144	0.0112910756547	-0.185478804944	-0.46435546875	0.302734375	1.82958984375	-166.0	-199.1875	84.25
18	12	13	15	58	30	-0.812817404374	0.053711745577	-0.177553940777	-0.4697265625	0.99365234375	3.060546875	-188.3125	-191.375	89.125
18	12	13	15	58	30	-0.817698716945	0.104676666385	-0.183535122927	-1.7001953125	1.12109375	3.0830078125	-272.4375	-143.75	43.4375
18	12	13	15	58	30	-0.817388546273	0.146546438142	-0.179017369043	-2.60693359375	-0.44091796875	2.74609375	-190.9375	-154.3125	-11.0625
18	12	13	15	58	30	-0.831762220598	0.158076324578	-0.15539085806	-1.67236328125	-0.56298828125	2.4775390625	10.4375	-176.0	99.375
18	12	13	15	58	30	-0.849344797984	0.149837703295	-0.12347115021	-1.5615234375	0.296875	1.95703125	132.125	-160.375	116.0
18	12	13	15	58	30	-0.862341817365	0.145442745473	-0.101010383448	-1.3193359375	0.34130859375	1.40234375	84.0625	-120.375	100.5625
18	12	13	15	58	30	-0.873988123534	0.143548887329	-0.0904504468629	-1.10888671875	0.11474609375	0.85302734375	30.375	-87.1875	111.1875
18	12	13	15	58	30	-0.884751752425	0.143857607648	-0.0851427079631	-0.82861328125	0.03076171875	0.38623046875	8.4375	-63.0	120.5625
18	12	13	15	58	30	-0.893723388526	0.144773057269	-0.0838609530721	-0.60107421875	-0.01611328125	0.06591796875	-3.25	-38.4375	112.8125
18	12	13	15	58	30	-0.900613538494	0.143917506355	-0.0917336777145	-0.4658203125	-0.0869140625	-0.18798828125	-6.25	-5.375	97.625
18	12	13	15	58	30	-0.906128039394	0.141906755462	-0.103454602369	-0.33203125	-0.12255859375	-0.39306640625	-2.6875	26.9375	93.0
18	12	13	15	58	30	-0.910782954611	0.136712043043	-0.117731040638	-0.23095703125	-0.0966796875	-0.533203125	10.0625	53.375	90.25
18	12	13	15	58	30	-0.914291032765	0.123899252104	-0.132138857539	-0.1748046875	0.00341796875	-0.49609375	43.4375	76.5625	70.5
18	12	13	15	58	30	-0.915770237469	0.100036484885	-0.141906545062	-0.18896484375	0.15234375	-0.408203125	105.3125	95.1875	26.875
18	12	13	15	58	30	-0.912575931299	0.0690901521021	-0.151058415594	-0.28173828125	0.31884765625	-0.38916015625	147.3125	115.5625	-38.625
18	12	13	15	58	30	-0.903644382922	0.0400371954071	-0.162406977101	-0.36279296875	0.361328125	-0.36572265625	137.125	130.0625	-100.1875
18	12	13	15	58	30	-0.889109890753	0.022094994196	-0.178713102226	-0.37451171875	0.47705078125	-0.17041015625	70.0625	138.3125	-153.5
18	12	13	15	58	30	-0.86831645636	0.0253897269871	-0.20128682597	-0.6298828125	0.6162109375	0.74267578125	-54.375	127.0	-218.6875
18	12	13	15	58	30	-0.842990725119	0.0432725473581	-0.237907460651	-1.67578125	0.3935546875	1.37548828125	-155.75	169.1875	-220.0625
18	12	13	15	58	30	-0.820166315632	0.060300961441	-0.274833228106	-2.6865234375	-0.08447265625	1.916015625	-165.6875	167.3125	-162.4375
18	12	13	15	58	31	-0.801318342337	0.0491935854919	-0.295100478726	-1.95703125	-1.0947265625	2.87890625	18.9375	163.625	-123.0
18	12	13	15	58	31	-0.78446690262	0.00286858666639	-0.291680333589	-1.9287109375	-0.29345703125	2.5498046875	268.0625	158.75	-106.8125
18	12	13	15	58	31	-0.766872037262	-0.04150202828	-0.282091727515	-1.75634765625	0.2783203125	1.96142578125	275.875	126.0625	-105.9375
18	12	13	15	58	31	-0.750202633847	-0.0729999471224	-0.275886087787	-0.93310546875	0.1943359375	1.6806640625	188.1875	99.75	-102.1875
18	12	13	15	58	31	-0.735573817265	-0.0938082440373	-0.273063164491	-0.37109375	0.01513671875	1.3369140625	126.5625	82.0625	-87.6875
18	12	13	15	58	31	-0.72422314966	-0.105648935788	-0.266716261926	0.03515625	-0.12890625	1.11669921875	94.625	67.625	-72.0
18	12	13	15	58	31	-0.714906196671	-0.114074932261	-0.259705102607	0.34423828125	-0.2470703125	0.904296875	88.4375	60.8125	-52.5625
18	12	13	15	58	31	-0.707591327889	-0.120668339104	-0.252262137339	0.509765625	-0.37255859375	0.626953125	88.875	49.6875	-32.9375
18	12	13	15	58	31	-0.702993757205	-0.124021819295	-0.243649164678	0.53662109375	-0.458984375	0.39208984375	83.0625	23.8125	-15.5
18	12	13	15	58	31	-0.702083335309	-0.120543735307	-0.231688111	0.60986328125	-0.46142578125	0.23583984375	64.8125	-20.5625	-1.8125
18	12	13	15	58	31	-0.704752656418	-0.106442247579	-0.219170935238	0.7705078125	-0.423828125	0.13427734375	18.125	-59.5	5.6875
18	12	13	15	58	31	-0.710568105965	-0.0836177894839	-0.210631380664	0.84326171875	-0.35888671875	0.2041015625	-44.125	-70.75	18.5625
18	12	13	15	58	31	-0.718234780981	-0.058469486759	-0.20738968268	0.75537109375	-0.2998046875	0.37060546875	-85.6875	-59.25	36.0625
18	12	13	15	58	31	-0.726811588752	-0.035461667204	-0.20507952118	0.48681640625	-0.1337890625	0.591796875	-98.25	-59.3125	44.75
18	12	13	15	58	31	-0.736416600823	-0.0157463519818	-0.198843468049	0.10888671875	0.11767578125	0.76318359375	-90.5625	-86.125	46.25
18	12	13	15	58	31	-0.747003034151	0.00836174652167	-0.193907070798	-0.20703125	0.26416015625	0.8642578125	-104.625	-120.5625	54.5625
18	12	13	15	58	31	-0.759104924938	0.0419927786731	-0.187929891765	-0.41064453125	0.318359375	1.50146484375	-150.0625	-163.25	62.5625
18	12	13	15	58	31	-0.769666151273	0.0825819431144	-0.186099293833	-0.56298828125	0.7294921875	2.47802734375	-185.5625	-168.1875	66.25
18	12	13	15	58	31	-0.774163605975	0.128538990396	-0.192991589569	-1.32421875	0.8486328125	2.861328125	-242.0	-141.4375	41.25
18	12	13	15	58	31	-0.774969357877	0.166505190855	-0.190431156697	-2.33837890625	-0.00927734375	3.1279296875	-170.375	-147.8125	2.3125
18	12	13	15	58	31	-0.786228128975	0.183221304392	-0.173700144004	-2.21044921875	-0.205078125	2.8701171875	-24.375	-156.75	70.4375
18	12	13	15	58	31	-0.803430004645	0.186270766802	-0.148857929302	-1.97802734375	0.2373046875	2.23779296875	66.375	-158.3125	109.5625
18	12	13	15	58	31	-0.819317584852	0.188960611047	-0.128109923317	-1.51953125	0.22607421875	1.60400390625	52.625	-138.375	115.5625
18	12	13	15	58	31	-0.835253153732	0.189206048708	-0.115659826549	-1.15576171875	0.05419921875	0.9755859375	29.4375	-113.875	132.4375
18	12	13	15	58	31	-0.850225090462	0.188966035899	-0.106934268377	-0.85595703125	-0.02685546875	0.43505859375	24.5625	-90.0625	140.5625
18	12	13	15	58	31	-0.863275999972	0.188597485854	-0.102904647621	-0.6240234375	-0.087890625	0.06494140625	14.1875	-61.125	138.5625
18	12	13	15	58	31	-0.873879311764	0.188899041061	-0.105954357118	-0.51318359375	-0.16552734375	-0.267578125	-6.1875	-23.125	133.4375
18	12	13	15	58	31	-0.881906792648	0.189516270411	-0.115113586472	-0.38427734375	-0.19091796875	-0.5732421875	-21.625	12.5625	123.125
18	12	13	15	58	31	-0.887830217369	0.187319602441	-0.126527708003	-0.224609375	-0.1767578125	-0.75830078125	-11.0625	38.125	103.25
18	12	13	15	58	31	-0.892388826182	0.177672106765	-0.136839870618	-0.08935546875	-0.0634765625	-0.65478515625	46.3125	51.4375	73.125
18	12	13	15	58	31	-0.895713464961	0.152042401446	-0.140994760072	-0.0517578125	0.1953125	-0.47705078125	126.375	76.3125	21.9375
18	12	13	15	58	31	-0.893260135315	0.117555109027	-0.146913368343	-0.10791015625	0.42822265625	-0.4013671875	169.125	120.3125	-51.0625
18	12	13	15	58	31	-0.882342821627	0.0860003483448	-0.159793408067	-0.28466796875	0.62451171875	-0.4443359375	137.875	160.75	-126.8125
18	12	13	15	58	31	-0.862794939033	0.0765382607207	-0.18634075756	-0.5576171875	0.58544921875	-0.32421875	-8.8125	180.5	-181.1875
18	12	13	15	58	31	-0.839879473587	0.0912448087358	-0.221367840324	-1.02099609375	0.267578125	0.580078125	-159.5	156.0	-184.5625
18	12	13	15	58	31	-0.817207106318	0.114502989876	-0.256777227297	-1.921875	0.0517578125	1.51123046875	-202.625	142.75	-151.5625
18	12	13	15	58	31	-0.792727383855	0.120239678641	-0.28363136378	-2.4921875	-0.29296875	2.04931640625	-86.8125	160.25	-168.6875
18	12	13	15	58	31	-0.77580626597	0.0977158234456	-0.289851621201	-2.18798828125	-0.7744140625	2.35791015625	113.875	141.625	-127.75
18	12	13	15	58	31	-0.762344481491	0.0532237300128	-0.275579290147	-2.109375	-0.07470703125	2.1025390625	287.9375	117.5625	-115.75
18	12	13	15	58	31	-0.748149692448	0.0148921948896	-0.263298888336	-1.60009765625	0.49658203125	2.02734375	244.9375	104.5	-103.375
18	12	13	15	58	31	-0.732449758563	-0.0148308717049	-0.255786762614	-0.91943359375	0.26611328125	1.80029296875	171.6875	96.125	-110.9375
18	12	13	15	58	31	-0.717082414029	-0.0370473253311	-0.250725555948	-0.49365234375	-0.041015625	1.39794921875	134.25	82.5625	-102.25
18	12	13	15	58	31	-0.703103007704	-0.0568829863871	-0.243949889044	-0.1328125	-0.15234375	1.14892578125	130.4375	68.875	-88.1875
18	12	13	15	58	31	-0.689446418971	-0.0767814797332	-0.233579271017	0.23486328125	-0.17333984375	0.84521484375	145.75	57.875	-82.25
18	12	13	15	58	31	-0.676877358731	-0.0941768949073	-0.221556791	0.439453125	-0.29541015625	0.5478515625	143.3125	41.625	-73.3125
18	12	13	15	58	31	-0.668094353238	-0.106995194704	-0.207764770548	0.5185546875	-0.44384765625	0.34765625	129.125	13.3125	-48.375
18	12	13	15	58	31	-0.663995304433	-0.11389054491	-0.191160335829	0.7080078125	-0.49169921875	0.2353515625	112.1875	-22.9375	-21.3125
18	12	13	15	58	31	-0.664528688462	-0.103207018019	-0.173578213628	1.0244140625	-0.45654296875	0.1474609375	64.4375	-46.9375	1.125
18	12	13	15	58	31	-0.669006715262	-0.0836182100091	-0.161865323317	1.1865234375	-0.4443359375	0.14306640625	-1.25	-51.25	21.875
18	12	13	15	58	31	-0.677767946305	-0.0591406699657	-0.157403289826	1.0849609375	-0.39697265625	0.23681640625	-61.5625	-48.4375	52.375
18	12	13	15	58	31	-0.690182083573	-0.039611617637	-0.161986491847	0.73095703125	-0.2353515625	0.44384765625	-107.1875	-55.625	80.1875
18	12	13	15	58	32	-0.705087148929	-0.0173342062237	-0.163881491938	0.28955078125	0.005859375	0.72021484375	-115.3125	-85.125	96.9375
18	12	13	15	58	32	-0.721849619191	0.00756822125473	-0.163266063358	-0.0166015625	0.25146484375	0.97265625	-124.125	-111.4375	111.125
18	12	13	15	58	32	-0.739738071837	0.0394893178613	-0.161008996164	-0.30224609375	0.47607421875	1.9140625	-158.25	-149.3125	119.6875
18	12	13	15	58	32	-0.756055635171	0.0800184820949	-0.167483382813	-0.64990234375	0.97900390625	3.1328125	-215.5	-144.875	129.25
18	12	13	15	58	32	-0.766098684913	0.129025862007	-0.17620513889	-2.2578125	1.0693359375	3.55712890625	-261.625	-159.25	93.4375
18	12	13	15	58	32	-0.772660067093	0.172855147327	-0.178470498158	-3.2275390625	0.08447265625	3.177734375	-216.1875	-163.375	69.3125
18	12	13	15	58	32	-0.791919379939	0.197140624062	-0.16515867762	-2.498046875	-0.1396484375	2.60546875	-74.9375	-190.25	161.0
18	12	13	15	58	32	-0.813259946991	0.205069675189	-0.143548772632	-2.03466796875	0.38818359375	1.7939453125	29.5625	-175.9375	165.3125
18	12	13	15	58	32	-0.830621359571	0.214598038081	-0.129454618535	-1.5517578125	0.46044921875	1.166015625	-4.6875	-141.875	158.75
18	12	13	15	58	32	-0.844018827865	0.223256986935	-0.124262226736	-1.1865234375	0.37841796875	0.619140625	-39.25	-108.9375	137.5625
18	12	13	15	58	32	-0.853643595953	0.232179339268	-0.121949085136	-0.875	0.22265625	0.2138671875	-44.6875	-82.625	113.0625
18	12	13	15	58	32	-0.861810746166	0.237852441771	-0.121947441278	-0.6005859375	0.08740234375	-0.0576171875	-30.8125	-54.6875	104.5
18	12	13	15	58	32	-0.869779106637	0.238166882393	-0.123905374489	-0.36962890625	0.00927734375	-0.3271484375	-4.75	-25.375	103.0625
18	12	13	15	58	32	-0.877088322225	0.233157786423	-0.130617189253	-0.30908203125	-0.01513671875	-0.55126953125	28.9375	0.6875	93.5625
18	12	13	15	58	32	-0.883562284845	0.22162300748	-0.139162890954	-0.36865234375	0.0771484375	-0.67919921875	57.625	25.375	75.5
18	12	13	15	58	32	-0.888668026498	0.205687585803	-0.147460298902	-0.357421875	0.1708984375	-0.6376953125	74.8125	40.5625	51.6875
18	12	13	15	58	32	-0.891354496471	0.185057986394	-0.153991193823	-0.32763671875	0.28466796875	-0.51123046875	93.6875	54.0	9.5
18	12	13	15	58	32	-0.889136915849	0.163264775528	-0.159053459823	-0.28125	0.3681640625	-0.3818359375	96.9375	68.5	-57.3125
18	12	13	15	58	32	-0.880220623807	0.14562518433	-0.164362372758	-0.27197265625	0.3369140625	-0.259765625	87.5625	92.75	-123.875
18	12	13	15	58	32	-0.866433735108	0.131832690042	-0.173091439333	-0.32763671875	0.25048828125	-0.19140625	61.1875	108.5625	-160.875
18	12	13	15	58	32	-0.847538344211	0.129212060687	-0.186951602212	-0.48681640625	0.2333984375	0.07080078125	-11.5	110.0625	-189.75
18	12	13	15	58	32	-0.826775600014	0.13458144087	-0.205259585328	-1.00048828125	-0.12353515625	1.1318359375	-70.5	105.0	-185.125
18	12	13	15	58	32	-0.805951665403	0.138729885306	-0.217768689296	-1.91259765625	0.44091796875	2.060546875	-40.625	92.25	-181.25
18	12	13	15	58	32	-0.781116131651	0.141355286834	-0.240963157349	-2.201171875	0.25439453125	2.6826171875	-70.875	150.75	-179.5
18	12	13	15	58	32	-0.760421441445	0.121945745245	-0.250727288021	-2.23876953125	-0.720703125	2.7314453125	77.8125	157.0625	-157.8125
18	12	13	15	58	32	-0.748470203586	0.082946343201	-0.238646211859	-2.1083984375	-0.43359375	2.02099609375	240.4375	114.5	-108.875
18	12	13	15	58	32	-0.740515713791	0.0458969600899	-0.218254693194	-1.435546875	0.08349609375	1.72900390625	255.5	63.625	-76.0625
18	12	13	15	58	32	-0.732024297382	0.0179435670694	-0.201712548178	-0.61669921875	0.2890625	1.42333984375	185.4375	43.3125	-74.875
18	12	13	15	58	32	-0.72051277513	0.00415034889528	-0.192014670949	-0.146484375	0.17578125	1.1669921875	103.0	28.875	-95.9375
18	12	13	15	58	32	-0.706703929801	-0.00421129382125	-0.185602094354	0.0419921875	0.017578125	0.96875	72.4375	26.1875	-111.0625
18	12	13	15	58	32	-0.692991637051	-0.0136108098522	-0.177795018384	0.17431640625	-0.1064453125	0.71142578125	84.75	25.6875	-106.1875
18	12	13	15	58	32	-0.682633717257	-0.0207524556391	-0.166141718381	0.28564453125	-0.236328125	0.46142578125	98.0625	18.3125	-75.4375
18	12	13	15	58	32	-0.677890339939	-0.0308215199126	-0.152947978022	0.3740234375	-0.35986328125	0.26904296875	105.5	0.5625	-33.125
18	12	13	15	58	32	-0.677073780012	-0.0379034361658	-0.137636471101	0.47998046875	-0.3974609375	0.13671875	100.0625	-21.6875	-5.25
18	12	13	15	58	32	-0.678754886134	-0.032042650411	-0.124264449975	0.68017578125	-0.3994140625	0.07080078125	58.8125	-31.75	13.75
18	12	13	15	58	32	-0.683332821263	-0.0174556258379	-0.117489789294	0.826171875	-0.404296875	0.05712890625	-5.75	-33.5	33.8125
18	12	13	15	58	32	-0.691025244893	0.00512684336434	-0.118344634327	0.88525390625	-0.4453125	0.14501953125	-70.1875	-33.0	60.125
18	12	13	15	58	32	-0.702030209024	0.0220338119855	-0.127686245634	0.849609375	-0.40576171875	0.27587890625	-107.9375	-25.125	88.125
18	12	13	15	58	32	-0.714393060709	0.0382067540371	-0.13659219734	0.61767578125	-0.21728515625	0.41357421875	-108.8125	-28.6875	102.375
18	12	13	15	58	32	-0.727196032985	0.0541399094559	-0.14429170908	0.33447265625	0.0078125	0.63427734375	-108.75	-37.75	107.625
18	12	13	15	58	32	-0.741240545174	0.0722015286078	-0.150384248935	0.0732421875	0.29736328125	1.07080078125	-120.1875	-58.0	118.4375
18	12	13	15	58	32	-0.755146877461	0.0990626723343	-0.156437233021	-0.24169921875	0.87255859375	2.53955078125	-149.3125	-95.3125	121.75
18	12	13	15	58	32	-0.764154092812	0.139525260077	-0.182371599786	-0.7373046875	1.9228515625	3.10888671875	-287.25	-56.5625	123.9375
18	12	13	15	58	32	-0.756648601121	0.199217636046	-0.209532519775	-3.2392578125	0.978515625	3.36279296875	-379.3125	-92.6875	4.8125
18	12	13	15	58	32	-0.756955113214	0.240111386501	-0.220030896882	-3.31591796875	-0.69775390625	2.95703125	-236.4375	-115.0625	50.375
18	12	13	15	58	32	-0.78038310018	0.246822247546	-0.200070061191	-2.62255859375	-0.0634765625	2.4716796875	32.9375	-176.5625	161.5
18	12	13	15	58	32	-0.803604355034	0.24329082175	-0.174197693245	-2.001953125	0.50634765625	1.72705078125	100.8125	-165.8125	146.875
18	12	13	15	58	32	-0.821471569696	0.248840150802	-0.158752325788	-1.455078125	0.41162109375	1.12744140625	18.375	-142.4375	147.875
18	12	13	15	58	32	-0.835201672739	0.258604902616	-0.151244500515	-1.0048828125	0.23828125	0.64208984375	-38.8125	-127.4375	134.875
18	12	13	15	58	33	-0.845029238789	0.272399096621	-0.144958067326	-0.65380859375	0.09130859375	0.31201171875	-60.1875	-120.875	115.0625
18	12	13	15	58	33	-0.852273678436	0.285820512469	-0.139950124939	-0.50048828125	-0.0029296875	0.08349609375	-59.8125	-104.1875	98.5625
18	12	13	15	58	33	-0.858210149577	0.2957745811	-0.140746220391	-0.43603515625	-0.04296875	-0.1533203125	-47.375	-80.9375	86.6875
18	12	13	15	58	33	-0.862449411218	0.305528395199	-0.142449715221	-0.35546875	-0.078125	-0.39306640625	-37.375	-66.3125	76.4375
18	12	13	15	58	33	-0.865814962971	0.314442315609	-0.143793885011	-0.28564453125	-0.03564453125	-0.5419921875	-28.0625	-58.25	68.5
18	12	13	15	58	33	-0.868677388021	0.321336784088	-0.144586294683	-0.208984375	0.044921875	-0.57861328125	-17.8125	-48.75	59.3125
18	12	13	15	58	33	-0.871456407729	0.323362939358	-0.143493067276	-0.140625	0.150390625	-0.51220703125	5.3125	-35.375	37.4375
18	12	13	15	58	33	-0.873308868451	0.318732101695	-0.140810984031	-0.12890625	0.30029296875	-0.41015625	35.125	-12.1875	-7.5
18	12	13	15	58	33	-0.872355023059	0.311088893342	-0.138363453248	-0.1748046875	0.3603515625	-0.3671875	46.6875	13.0625	-60.125
18	12	13	15	58	33	-0.867241353283	0.306393947039	-0.13885383058	-0.232421875	0.2880859375	-0.30322265625	23.875	32.125	-97.4375
18	12	13	15	58	33	-0.857266550722	0.308886943842	-0.140924709214	-0.23876953125	0.1220703125	-0.23046875	-17.5625	45.1875	-121.4375
18	12	13	15	58	33	-0.842278201498	0.318173642349	-0.145628680346	-0.26904296875	-0.00341796875	0.07421875	-65.1875	51.5625	-148.3125
18	12	13	15	58	33	-0.822586751005	0.337775104256	-0.149172814384	-0.50732421875	-0.0556640625	1.513671875	-137.5	21.1875	-170.1875
18	12	13	15	58	33	-0.798529093594	0.345217500066	-0.173951533803	-0.91259765625	0.4404296875	2.99169921875	-118.5	175.0625	-154.9375
18	12	13	15	58	33	-0.769292174758	0.340212201055	-0.219422831502	-2.578125	-0.98828125	3.353515625	-122.8125	315.8125	-133.0
18	12	13	15	58	33	-0.766649370246	0.277155862613	-0.23278406959	-2.474609375	-1.79931640625	2.5380859375	281.0625	312.0	-61.125
18	12	13	15	58	33	-0.781126007687	0.209411105827	-0.217528761634	-2.35498046875	-0.8125	1.42138671875	389.3125	145.6875	38.875
18	12	13	15	58	33	-0.791453622487	0.165102340466	-0.207949602207	-1.5595703125	0.45849609375	1.2978515625	246.0	88.0	58.3125
18	12	13	15	58	33	-0.796403692194	0.148135481373	-0.219181917433	-0.63720703125	0.2841796875	1.18603515625	-18.8125	68.5625	52.4375
18	12	13	15	58	33	-0.791008320076	0.161558566608	-0.241819055875	-0.185546875	-0.1259765625	1.0166015625	-150.4375	64.5	9.9375
18	12	13	15	58	33	-0.784129164024	0.174990138807	-0.263980589585	-0.02197265625	-0.2939453125	0.8544921875	-146.125	67.4375	2.125
18	12	13	15	58	33	-0.778501566229	0.181640192952	-0.279174140645	0.048828125	-0.32080078125	0.724609375	-96.5625	69.625	3.0
18	12	13	15	58	33	-0.775690670184	0.180601832801	-0.2869854065	0.103515625	-0.2431640625	0.654296875	-35.6875	60.125	8.5625
18	12	13	15	58	33	-0.777108229148	0.172487264811	-0.287783953851	0.203125	-0.07470703125	0.6064453125	15.4375	48.125	27.25
18	12	13	15	58	33	-0.779891745702	0.162777530583	-0.286615404431	0.3134765625	0.1083984375	0.54345703125	21.9375	46.375	35.5
18	12	13	15	58	33	-0.78147587436	0.158199427237	-0.287468866623	0.466796875	0.17333984375	0.5224609375	-12.4375	49.25	33.8125
18	12	13	15	58	33	-0.781590089506	0.160089864499	-0.290822799976	0.60400390625	0.0615234375	0.533203125	-46.8125	49.75	33.625
18	12	13	15	58	33	-0.781785647277	0.165463415549	-0.295404991242	0.62255859375	-0.060546875	0.59521484375	-65.5625	45.0625	41.6875
18	12	13	15	58	33	-0.784646822322	0.17095486538	-0.299796607907	0.5263671875	-0.0966796875	0.599609375	-69.0625	30.375	64.25
18	12	13	15	58	33	-0.790825004186	0.179197515805	-0.302609428939	0.4228515625	-0.1650390625	0.6689453125	-82.9375	-0.25	90.5625
18	12	13	15	58	33	-0.800041299705	0.186155474832	-0.307492223674	0.3603515625	-0.1689453125	0.7900390625	-77.75	-25.875	117.0
18	12	13	15	58	33	-0.813570121203	0.196465282832	-0.307545374399	0.2060546875	-0.1884765625	1.65234375	-96.75	-70.1875	148.875
18	12	13	15	58	33	-0.826782138782	0.205566384425	-0.317810024852	-0.0244140625	0.7451171875	2.4638671875	-118.875	-40.0625	200.25
18	12	13	15	58	33	-0.830528090008	0.23015295616	-0.336776455075	-2.0283203125	1.5048828125	2.31591796875	-224.75	-19.1875	161.5
18	12	13	15	58	33	-0.820235931762	0.279657789965	-0.359917500528	-3.43603515625	0.9736328125	1.92919921875	-365.125	-22.25	72.4375
18	12	13	15	58	33	-0.816790806966	0.32658205246	-0.379313671471	-2.3701171875	-0.0361328125	1.72802734375	-386.625	-89.0625	204.3125
18	12	13	15	58	33	-0.818468432145	0.354608619744	-0.386712601497	-1.7333984375	0.0380859375	1.42431640625	-255.3125	-113.875	202.9375
18	12	13	15	58	33	-0.82329668073	0.367978033073	-0.391354312169	-1.07763671875	0.1875	1.32080078125	-190.3125	-107.6875	208.875
18	12	13	15	58	33	-0.823448640635	0.381940527208	-0.397564812118	-0.67138671875	0.29345703125	1.06103515625	-198.125	-85.125	202.375
18	12	13	15	58	33	-0.818663167717	0.399962703202	-0.402770315646	-0.52197265625	0.38623046875	0.89697265625	-220.625	-76.1875	177.6875
18	12	13	15	58	33	-0.808406196487	0.422849235883	-0.407468461136	-0.431640625	0.43115234375	0.845703125	-253.75	-66.6875	161.0625
18	12	13	15	58	33	-0.792271157878	0.449631123957	-0.41246194322	-0.32861328125	0.45947265625	0.85693359375	-280.875	-45.3125	141.375
18	12	13	15	58	33	-0.771333484611	0.479352206689	-0.416244213091	-0.33740234375	0.44580078125	0.9580078125	-299.625	-29.4375	117.125
18	12	13	15	58	33	-0.748384561573	0.507243850207	-0.419600706314	-0.36767578125	0.46875	1.015625	-285.5625	-11.8125	97.875
18	12	13	15	58	33	-0.725339574401	0.531431477138	-0.422972336806	-0.39892578125	0.47314453125	1.0419921875	-257.0	2.625	84.4375
18	12	13	15	58	33	-0.703667419628	0.551874473786	-0.425288800413	-0.4560546875	0.55224609375	1.00244140625	-227.6875	4.25	72.0625
18	12	13	15	58	33	-0.68499800261	0.568909060174	-0.424621857271	-0.5751953125	0.58056640625	0.8681640625	-197.5	-9.875	55.3125
18	12	13	15	58	33	-0.670770128929	0.581720664133	-0.420406246411	-0.66748046875	0.56298828125	0.74755859375	-164.5	-35.4375	44.0625
18	12	13	15	58	33	-0.662028494241	0.588971602233	-0.41380595473	-0.671875	0.56494140625	0.61083984375	-123.0	-61.125	39.25
18	12	13	15	58	33	-0.65899110878	0.585383321692	-0.408626977242	-0.71728515625	0.52880859375	0.50537109375	-88.125	-82.9375	41.6875
18	12	13	15	58	33	-0.658246960924	0.58268741177	-0.400074995721	-0.7734375	0.45263671875	0.53125	-61.0625	-101.75	48.625
18	12	13	15	58	34	-0.66063418752	0.575308375052	-0.393121286199	-0.76611328125	0.38134765625	0.509765625	-25.625	-103.375	53.5
18	12	13	15	58	34	-0.665948295955	0.564020548339	-0.387447510102	-0.7216796875	0.25244140625	0.4462890625	6.625	-104.5625	55.3125
18	12	13	15	58	34	-0.67412594518	0.548577998667	-0.382808323058	-0.59326171875	0.1455078125	0.4794921875	37.5625	-108.125	59.25
18	12	13	15	58	34	-0.684621285076	0.528373581608	-0.380121366092	-0.4814453125	0.06884765625	0.52099609375	69.125	-109.75	69.5625
18	12	13	15	58	34	-0.695160271	0.504982974737	-0.380476657543	-0.53173828125	0.04296875	0.5341796875	89.75	-101.8125	82.25
18	12	13	15	58	34	-0.705713528366	0.476843362201	-0.383098142139	-0.60986328125	-0.01318359375	0.52099609375	99.5	-91.0625	93.8125
18	12	13	15	58	34	-0.714324990858	0.450603332836	-0.386763283242	-0.56201171875	-0.09375	0.55224609375	106.125	-87.125	99.75
18	12	13	15	58	34	-0.722438005195	0.424661961658	-0.390239807825	-0.5146484375	-0.1259765625	0.5654296875	107.4375	-82.0625	94.0
18	12	13	15	58	34	-0.73001731276	0.399767026049	-0.393358547006	-0.56005859375	-0.13525390625	0.580078125	105.9375	-75.375	84.125
18	12	13	15	58	34	-0.736971663941	0.374375501997	-0.395431835253	-0.47509765625	-0.16259765625	0.63623046875	98.5	-61.0625	90.0625
18	12	13	15	58	34	-0.743063979757	0.350079259786	-0.396219413272	-0.380859375	-0.23779296875	0.73388671875	91.6875	-54.25	94.25
18	12	13	15	58	34	-0.747945670623	0.326520549803	-0.398782293908	-0.4375	-0.1982421875	0.81787109375	95.125	-36.125	89.125
18	12	13	15	58	34	-0.75086265968	0.304055740106	-0.403230886166	-0.4951171875	-0.19140625	0.861328125	94.375	-20.1875	92.4375
18	12	13	15	58	34	-0.752017003786	0.283181212268	-0.406828870901	-0.4814453125	-0.15576171875	0.896484375	80.75	-16.75	97.1875
18	12	13	15	58	34	-0.751541282983	0.263961023949	-0.40787318452	-0.37841796875	0.0	0.9501953125	54.125	-19.0625	98.0625
18	12	13	15	58	34	-0.750511977027	0.249133112973	-0.403117151196	-0.31982421875	0.037109375	1.09716796875	14.1875	-25.4375	89.6875
18	12	13	15	58	34	-0.748249276182	0.241075419325	-0.394997497182	-0.46484375	0.06787109375	1.27880859375	-26.25	-17.0625	72.6875
18	12	13	15	58	34	-0.74369207015	0.238457523026	-0.388355571799	-0.630859375	0.00244140625	1.3095703125	-42.75	4.875	68.6875
18	12	13	15	58	34	-0.738696070187	0.236018979047	-0.382500890016	-0.60009765625	-0.14794921875	1.40283203125	-33.1875	16.125	77.125
18	12	13	15	58	34	-0.732700538047	0.229422850689	-0.379685968112	-0.4990234375	-0.11572265625	1.45166015625	-8.625	23.8125	94.5
18	12	13	15	58	34	-0.721668377388	0.222347589549	-0.387628202367	-0.462890625	0.04248046875	1.41064453125	12.75	34.625	111.625
18	12	13	15	58	34	-0.70964641916	0.216732986535	-0.393976746855	-0.5517578125	0.16796875	1.32275390625	-2.8125	31.0	112.4375
18	12	13	15	58	34	-0.696144293056	0.215263976995	-0.394640452297	-0.61962890625	0.2265625	1.244140625	-47.25	17.75	114.75
18	12	13	15	58	34	-0.681061670224	0.218557383374	-0.388593929054	-0.55908203125	0.19140625	1.1689453125	-98.1875	4.5	116.5625
18	12	13	15	58	34	-0.665174686825	0.224410250799	-0.377475496652	-0.4599609375	0.0419921875	1.10693359375	-128.8125	-7.5	116.3125
18	12	13	15	58	34	-0.649386585126	0.229238347155	-0.364608595822	-0.44873046875	-0.0654296875	1.13134765625	-129.0	-17.4375	116.5625
18	12	13	15	58	34	-0.633288523051	0.231684968533	-0.352166034888	-0.470703125	-0.0126953125	1.107421875	-118.5625	-24.0	120.625
18	12	13	15	58	34	-0.617491790152	0.234252593714	-0.338927736554	-0.455078125	0.07958984375	1.0244140625	-120.125	-26.6875	112.4375
18	12	13	15	58	34	-0.602442792146	0.238877630276	-0.323589472592	-0.4052734375	0.06494140625	0.978515625	-131.375	-26.0	96.8125
18	12	13	15	58	34	-0.58880385579	0.244383812437	-0.306944603583	-0.3798828125	0.02294921875	1.02978515625	-133.1875	-25.875	81.0
18	12	13	15	58	34	-0.576039073078	0.250117410624	-0.292291917882	-0.3818359375	0.0478515625	1.0302734375	-120.75	-16.5	70.375
18	12	13	15	58	34	-0.565722264908	0.253229223984	-0.280694432659	-0.423828125	-0.01171875	0.9267578125	-83.6875	-0.9375	63.125
18	12	13	15	58	34	-0.557597892593	0.252859902475	-0.275136963639	-0.42431640625	-0.14306640625	0.82373046875	-33.4375	-0.4375	64.375
18	12	13	15	58	34	-0.549538198164	0.248525049192	-0.273487412924	-0.3603515625	-0.10546875	0.76318359375	-5.0	-4.9375	72.75
18	12	13	15	58	34	-0.540271845751	0.243464120278	-0.272577277804	-0.318359375	0.025390625	0.72607421875	-8.625	-4.9375	76.0
18	12	13	15	58	34	-0.529575438078	0.24187016954	-0.268724288793	-0.31640625	0.103515625	0.705078125	-39.3125	0.75	70.9375
18	12	13	15	58	34	-0.517918871402	0.245959586584	-0.259325628634	-0.3720703125	0.1044921875	0.7060546875	-83.5	6.5625	60.6875
18	12	13	15	58	34	-0.505461736025	0.25584346745	-0.246261543692	-0.4296875	0.06103515625	0.69287109375	-118.0	13.125	49.8125
18	12	13	15	58	34	-0.492419935412	0.26806003425	-0.230890507643	-0.40234375	-0.01318359375	0.68017578125	-134.875	18.5625	45.125
18	12	13	15	58	34	-0.479400475926	0.281781285468	-0.21580650323	-0.36279296875	-0.02978515625	0.7001953125	-136.0625	28.9375	39.8125
18	12	13	15	58	34	-0.467336276725	0.2977231759	-0.202815521426	-0.3740234375	-0.00634765625	0.7099609375	-128.125	48.5	28.0625
18	12	13	15	58	34	-0.457435120993	0.316451114389	-0.194020847183	-0.462890625	0.00927734375	0.7080078125	-108.625	75.9375	11.0
18	12	13	15	58	34	-0.450249357523	0.336237455686	-0.189816389033	-0.642578125	0.0029296875	0.677734375	-80.9375	96.25	-4.125
18	12	13	15	58	34	-0.445853574097	0.356194587054	-0.191890983842	-0.7705078125	-0.02880859375	0.572265625	-43.0	113.5	-14.75
18	12	13	15	58	34	-0.44328003917	0.374740388339	-0.199332590931	-0.7490234375	-0.05419921875	0.478515625	-8.3125	122.9375	-15.5
18	12	13	15	58	34	-0.442047088846	0.393283368842	-0.21006849093	-0.7412109375	-0.1015625	0.40673828125	12.5	134.4375	-20.0
18	12	13	15	58	34	-0.44145738339	0.413320807454	-0.223383661442	-0.79736328125	-0.125	0.33203125	24.9375	152.0	-25.1875
18	12	13	15	58	34	-0.441324965377	0.434123147383	-0.238880640919	-0.8984375	-0.13134765625	0.25537109375	37.0	165.0625	-29.375
18	12	13	15	58	34	-0.441385359808	0.455239684569	-0.255175911139	-1.00439453125	-0.14990234375	0.21875	42.5625	172.375	-32.9375
18	12	13	15	58	34	-0.44113241675	0.476103207397	-0.272930847773	-1.13720703125	-0.20703125	0.23095703125	51.1875	180.3125	-30.8125
18	12	13	15	58	35	-0.440288169751	0.495278416624	-0.294481621714	-1.22314453125	-0.26904296875	0.244140625	72.3125	189.4375	-18.5625
18	12	13	15	58	35	-0.439633162953	0.511410005884	-0.320798542896	-1.23388671875	-0.2998046875	0.22509765625	102.5	195.875	-4.6875
18	12	13	15	58	35	-0.440286618266	0.52408389119	-0.350264056311	-1.21826171875	-0.29248046875	0.1904296875	130.625	195.625	0.375
18	12	13	15	58	35	-0.442686500763	0.534116857601	-0.379942570971	-1.19189453125	-0.23291015625	0.15576171875	146.625	189.0	-5.375
18	12	13	15	58	35	-0.446092825481	0.542647600404	-0.407275608761	-1.14697265625	-0.16455078125	0.130859375	146.4375	178.9375	-15.8125
18	12	13	15	58	35	-0.448837188245	0.55112861162	-0.430954499075	-1.125	-0.119140625	0.1083984375	130.625	170.1875	-24.375
18	12	13	15	58	35	-0.449514475434	0.560351988997	-0.450796186769	-1.134765625	-0.1044921875	0.08349609375	106.125	163.375	-28.375
18	12	13	15	58	35	-0.448049886966	0.570056660436	-0.467336600531	-1.1455078125	-0.1083984375	0.0888671875	82.25	156.125	-28.25
18	12	13	15	58	35	-0.445111110287	0.579688101674	-0.481608634482	-1.1533203125	-0.1279296875	0.10693359375	66.125	149.6875	-26.4375
18	12	13	15	58	35	-0.441755812022	0.588417765087	-0.494732331065	-1.1845703125	-0.14794921875	0.13134765625	60.8125	143.125	-23.6875
18	12	13	15	58	35	-0.439073046215	0.595257078083	-0.507674395109	-1.22509765625	-0.16845703125	0.15576171875	65.75	135.625	-19.625
18	12	13	15	58	35	-0.437919821753	0.599599209603	-0.52086519287	-1.23876953125	-0.1943359375	0.17138671875	77.375	126.4375	-15.125
18	12	13	15	58	35	-0.438777735227	0.601312873481	-0.534174814119	-1.22412109375	-0.21044921875	0.169921875	90.8125	113.9375	-11.25
18	12	13	15	58	35	-0.441835081983	0.600466022454	-0.546876962918	-1.185546875	-0.21875	0.15234375	100.625	97.75	-9.125
18	12	13	15	58	35	-0.446821092178	0.597633128618	-0.558389041434	-1.14208984375	-0.216796875	0.14794921875	105.75	80.125	-8.0
18	12	13	15	58	35	-0.452933081811	0.593311209849	-0.568470384583	-1.08154296875	-0.20458984375	0.125	104.0625	62.3125	-6.0625
18	12	13	15	58	35	-0.462686734594	0.586399438858	-0.574803280096	-1.0341796875	-0.20263671875	0.11376953125	96.0	43.6875	-3.5625
18	12	13	15	58	35	-0.472452209538	0.579014870415	-0.579197967771	-0.99853515625	-0.189453125	0.1171875	82.8125	25.5	-1.375
18	12	13	15	58	35	-0.481983415963	0.571825075872	-0.581407372479	-0.96484375	-0.19775390625	0.12890625	66.5	8.8125	0.1875
18	12	13	15	58	35	-0.491497892698	0.564859430885	-0.581460377963	-0.9267578125	-0.20458984375	0.15380859375	51.5625	-6.5	1.3125
18	12	13	15	58	35	-0.501077120044	0.557898411001	-0.579870123939	-0.90966796875	-0.20947265625	0.17724609375	39.8125	-19.4375	3.1875
18	12	13	15	58	35	-0.510777917047	0.550876028112	-0.576936748698	-0.9072265625	-0.22705078125	0.19189453125	31.75	-30.375	5.375
18	12	13	15	58	35	-0.520742722108	0.543569465904	-0.572926855652	-0.9150390625	-0.25	0.216796875	26.3125	-39.3125	7.8125
18	12	13	15	58	35	-0.53105020374	0.535993896017	-0.567975312723	-0.92138671875	-0.27294921875	0.22998046875	23.0	-47.3125	9.625
18	12	13	15	58	35	-0.541800925877	0.52806822245	-0.562186361186	-0.91162109375	-0.29736328125	0.23046875	21.875	-55.5625	11.0625
18	12	13	15	58	35	-0.552760006581	0.519925195547	-0.555567443956	-0.90869140625	-0.32666015625	0.22900390625	20.0625	-63.75	12.875
18	12	13	15	58	35	-0.563331032744	0.511758473408	-0.548255976938	-0.90771484375	-0.3271484375	0.21923828125	15.375	-70.125	15.125
18	12	13	15	58	35	-0.573283610269	0.503766945509	-0.540325753403	-0.9169921875	-0.3271484375	0.212890625	9.375	-74.8125	16.75
18	12	13	15	58	35	-0.582564850947	0.496324501614	-0.531540836762	-0.9228515625	-0.32958984375	0.21630859375	2.5625	-79.125	17.0625
18	12	13	15	58	35	-0.591039526042	0.48954234184	-0.521889610407	-0.9423828125	-0.322265625	0.20556640625	-5.375	-82.9375	16.4375
18	12	13	15	58	35	-0.598865829716	0.483511527009	-0.511465109358	-0.96875	-0.322265625	0.19140625	-11.4375	-86.1875	14.5
18	12	13	15	58	35	-0.606379652181	0.477962662932	-0.500362394422	-0.96923828125	-0.3310546875	0.18359375	-14.5	-89.25	12.0
18	12	13	15	58	35	-0.613801743477	0.472695088319	-0.488746580666	-0.96337890625	-0.34033203125	0.18408203125	-15.4375	-91.75	10.0625
18	12	13	15	58	35	-0.621121127554	0.467381899854	-0.477024932	-0.970703125	-0.3369140625	0.203125	-13.875	-91.6875	8.0
18	12	13	15	58	35	-0.628343457973	0.461843122533	-0.465932390302	-1.001953125	-0.32421875	0.22314453125	-8.625	-87.75	5.25
18	12	13	15	58	35	-0.635539084686	0.455918271642	-0.456284471057	-1.02685546875	-0.2958984375	0.2529296875	0.625	-79.9375	1.75
18	12	13	15	58	35	-0.642695002258	0.449581328266	-0.448421669667	-1.029296875	-0.27099609375	0.24951171875	11.625	-71.0625	-1.1875
18	12	13	15	58	35	-0.64976625608	0.443044641451	-0.441884998499	-1.01025390625	-0.25634765625	0.240234375	19.0625	-64.8125	-3.25
18	12	13	15	58	35	-0.656150439339	0.437047092931	-0.436009556193	-0.966796875	-0.23583984375	0.23193359375	18.5625	-59.8125	-4.0
18	12	13	15	58	35	-0.661491214285	0.432062770431	-0.430475875102	-0.91552734375	-0.21484375	0.22607421875	13.125	-53.875	-4.375
18	12	13	15	58	35	-0.665692229666	0.428577137317	-0.42503719514	-0.88232421875	-0.19384765625	0.24267578125	4.5625	-46.5625	-5.6875
18	12	13	15	58	35	-0.668554263682	0.426802991229	-0.419967307686	-0.8876953125	-0.173828125	0.2587890625	-4.8125	-36.875	-7.75
18	12	13	15	58	35	-0.670085496171	0.426562303738	-0.415820428583	-0.91162109375	-0.16162109375	0.267578125	-11.0	-25.5	-8.8125
18	12	13	15	58	35	-0.670800080687	0.427283355918	-0.412757796896	-0.9267578125	-0.171875	0.27783203125	-11.6875	-15.25	-9.375
18	12	13	15	58	35	-0.67124115476	0.428146635811	-0.41093532415	-0.93017578125	-0.18017578125	0.27734375	-7.6875	-7.5625	-8.75
18	12	13	15	58	35	-0.671385857119	0.428771422387	-0.410888144557	-0.93212890625	-0.1845703125	0.26806640625	-0.5	1.3125	-6.8125
18	12	13	15	58	35	-0.67118196312	0.429063308242	-0.412767447175	-0.94677734375	-0.166015625	0.25830078125	6.5625	10.375	-5.375
18	12	13	15	58	35	-0.67039048952	0.429613861592	-0.415942387662	-0.96044921875	-0.1572265625	0.251953125	8.9375	18.4375	-4.4375
