18	12	13	20	14	17	-0.874183349866	0.0366811557124	0.354787950343	-0.1474609375	-0.22509765625	1.18310546875	-51.5	-84.75	-141.4375
18	12	13	20	14	17	-0.8621816199	0.0407104021289	0.359130443968	-0.322265625	-0.2275390625	0.9580078125	-60.4375	-63.5625	-144.25
18	12	13	20	14	17	-0.851673540384	0.0445550870346	0.359370345835	-0.55810546875	-0.12109375	0.712890625	-66.625	-39.9375	-130.75
18	12	13	20	14	17	-0.846918947325	0.0467526602516	0.346250445962	-0.9267578125	0.095703125	0.4013671875	-86.375	-9.75	-91.9375
18	12	13	20	14	17	-0.847574528989	0.0477283273327	0.325614611663	-1.29736328125	0.31494140625	0.072265625	-98.5625	32.125	-35.75
18	12	13	20	14	17	-0.855222766303	0.0429686573992	0.297423675435	-1.357421875	0.28857421875	0.01220703125	-68.5625	89.0	16.375
18	12	13	20	14	17	-0.86492249247	0.0329587288077	0.275449524276	-1.26318359375	0.20703125	0.23583984375	2.9375	127.125	36.625
18	12	13	20	14	17	-0.877897533288	0.0146479010004	0.25072323879	-1.1396484375	0.12548828125	0.58251953125	50.6875	163.25	63.8125
18	12	13	20	14	17	-0.892693855186	-0.0114745278801	0.22015224502	-0.67529296875	-0.232421875	1.58349609375	91.75	213.9375	73.125
18	12	13	20	14	17	-0.908520708455	-0.0419317250056	0.195742419349	-0.0029296875	-0.7880859375	2.16796875	133.125	215.4375	130.375
18	12	13	20	14	17	-0.922200664751	-0.0811731888894	0.177604495991	0.57421875	0.28466796875	2.17919921875	205.625	199.375	150.6875
18	12	13	20	14	17	-0.933032638482	-0.122557044422	0.152524927295	0.8369140625	0.48681640625	2.54443359375	198.375	238.0625	135.125
18	12	13	20	14	17	-0.943450193777	-0.142329269756	0.125484124622	1.58056640625	0.65966796875	2.3232421875	78.0625	209.0	143.0625
18	12	13	20	14	17	-0.953740641936	-0.144348945231	0.0928349876094	0.94775390625	0.35986328125	2.06884765625	-25.125	219.5	118.1875
18	12	13	20	14	17	-0.961559840891	-0.146119985978	0.0615852405395	0.9267578125	-0.1240234375	1.81298828125	-17.5	210.1875	102.4375
18	12	13	20	14	17	-0.966447022382	-0.149163026378	0.038755532631	0.8486328125	-0.0966796875	1.37353515625	-1.875	161.0	84.4375
18	12	13	20	14	17	-0.97072983893	-0.150629439955	0.0228873743853	0.81787109375	-0.0537109375	0.97705078125	-4.0	121.25	96.6875
18	12	13	20	14	17	-0.975067053694	-0.147700442535	0.0145869445314	0.83935546875	-0.052734375	0.6162109375	-22.6875	75.625	108.5625
18	12	13	20	14	17	-0.979639740746	-0.137629282623	0.0132441482613	0.9482421875	-0.13525390625	0.17626953125	-57.0	30.5625	107.6875
18	12	13	20	14	17	-0.983916213873	-0.120235403593	0.0234977819205	0.96240234375	-0.21484375	-0.1982421875	-81.25	4.4375	83.1875
18	12	13	20	14	17	-0.986772197671	-0.102473436411	0.0343002211214	0.83544921875	-0.26708984375	-0.328125	-80.1875	-11.0625	50.25
18	12	13	20	14	17	-0.98803179077	-0.0886836046447	0.0449826680132	0.67041015625	-0.3154296875	-0.251953125	-53.25	-21.75	15.9375
18	12	13	20	14	17	-0.987682976633	-0.0797689952703	0.0581636208819	0.5556640625	-0.37841796875	0.01123046875	-16.25	-45.375	-20.0625
18	12	13	20	14	17	-0.985521717351	-0.0744008777761	0.0778188016116	0.39306640625	-0.36767578125	0.373046875	10.3125	-97.125	-52.4375
18	12	13	20	14	17	-0.980325905514	-0.0793440217387	0.102231720317	0.42333984375	-0.4501953125	0.85107421875	50.9375	-140.125	-100.25
18	12	13	20	14	17	-0.972508482965	-0.0842873236459	0.13555550023	0.7685546875	-0.193359375	1.27783203125	55.9375	-189.75	-113.0625
18	12	13	20	14	17	-0.96329801577	-0.0812361185446	0.171139050638	1.4052734375	0.21728515625	1.52490234375	8.8125	-203.75	-108.4375
18	12	13	20	14	17	-0.952437265526	-0.0719592141016	0.203914957009	1.66455078125	0.619140625	1.83642578125	-34.875	-213.25	-122.875
18	12	13	20	14	17	-0.940703459183	-0.0525495152376	0.230888288204	1.41015625	0.58349609375	2.1748046875	-100.75	-196.625	-134.9375
18	12	13	20	14	17	-0.927859220922	-0.0328980476304	0.254273221574	1.05615234375	0.2685546875	2.109375	-103.5625	-179.6875	-136.625
18	12	13	20	14	17	-0.914866950069	-0.0178224797798	0.273196642105	0.66064453125	0.25537109375	1.70654296875	-84.3125	-152.8125	-132.6875
18	12	13	20	14	17	-0.902447415896	-0.00579822159543	0.288568333718	0.27587890625	0.189453125	1.46826171875	-69.625	-132.1875	-121.0
18	12	13	20	14	17	-0.890951049539	0.00256353662264	0.300544150711	0.0146484375	0.02587890625	1.36279296875	-50.8125	-109.625	-112.875
18	12	13	20	14	17	-0.879212482073	0.00872803782967	0.310120001487	-0.10888671875	-0.060546875	1.18212890625	-44.6875	-93.875	-120.5
18	12	13	20	14	17	-0.866519310657	0.0138550315925	0.317139842091	-0.2451171875	-0.05126953125	1.02587890625	-49.6875	-80.75	-135.875
18	12	13	20	14	17	-0.854542828853	0.0185544618221	0.321224120295	-0.5478515625	-0.07958984375	0.82666015625	-52.25	-66.375	-128.5
18	12	13	20	14	17	-0.847548001154	0.0205691830901	0.311650590083	-0.9443359375	0.07861328125	0.44140625	-71.0625	-36.625	-97.375
18	12	13	20	14	17	-0.84592754801	0.0209956043662	0.292046415384	-1.2119140625	0.224609375	0.06201171875	-92.5	23.3125	-54.4375
18	12	13	20	14	17	-0.850092828412	0.0219725314638	0.26788177943	-1.1865234375	0.224609375	-0.015625	-81.125	105.3125	-13.0625
18	12	13	20	14	17	-0.858458132693	0.00842283841533	0.24023400002	-1.05126953125	0.10205078125	0.14697265625	-6.125	165.9375	7.9375
18	12	13	20	14	17	-0.869263185909	-0.0145263753859	0.211609006147	-1.2578125	0.11279296875	0.283203125	47.9375	193.4375	34.8125
18	12	13	20	14	17	-0.883420194087	-0.0437620753876	0.181579043624	-1.07080078125	0.115234375	0.85400390625	89.9375	221.75	86.5
18	12	13	20	14	17	-0.894419965352	-0.0800790906607	0.157533637954	-0.82421875	-0.42138671875	2.16259765625	141.625	227.6875	79.125
18	12	13	20	14	17	-0.906359082888	-0.108457918538	0.146360207459	0.06396484375	-0.43896484375	2.65283203125	140.625	148.5625	149.375
18	12	13	20	14	17	-0.915971633491	-0.140129988706	0.133965733976	0.703125	0.6640625	2.56591796875	156.6875	160.1875	142.1875
18	12	13	20	14	17	-0.927853880574	-0.166625515983	0.112914726948	1.46826171875	0.58447265625	2.58154296875	115.75	203.3125	182.6875
18	12	13	20	14	17	-0.938420180382	-0.174073128745	0.0856327488179	1.31689453125	0.43603515625	2.26611328125	-1.375	192.0625	137.5625
18	12	13	20	14	17	-0.947688938218	-0.179747789209	0.0531614004758	0.94189453125	-0.095703125	2.1796875	-18.4375	215.9375	128.0625
18	12	13	20	14	17	-0.954862369106	-0.179681356002	0.0306386007856	0.8916015625	-0.24462890625	1.75634765625	-19.4375	164.8125	110.9375
18	12	13	20	14	17	-0.960731183191	-0.179377990432	0.0149532520095	0.82421875	-0.10546875	1.17236328125	-16.5	124.8125	114.4375
18	12	13	20	14	18	-0.966474390462	-0.176083272276	0.00427238442263	0.73828125	-0.02685546875	0.73876953125	-30.4375	93.0625	125.8125
18	12	13	20	14	18	-0.972286858907	-0.168334410349	-0.00170897878527	0.7666015625	-0.05419921875	0.3291015625	-52.3125	62.4375	132.1875
18	12	13	20	14	18	-0.977428091336	-0.157706786638	-0.00488256305381	0.78271484375	-0.07861328125	-0.0859375	-66.75	41.375	118.625
18	12	13	20	14	18	-0.981591718044	-0.146478898421	-0.00146478898421	0.69970703125	-0.12646484375	-0.3603515625	-64.0625	32.3125	92.75
18	12	13	20	14	18	-0.984337220223	-0.138117257525	0.00134272190259	0.59326171875	-0.2041015625	-0.36962890625	-41.4375	27.4375	66.5
18	12	13	20	14	18	-0.985753531205	-0.133419430327	0.00616439270953	0.498046875	-0.3720703125	-0.150390625	-3.125	8.5	37.25
18	12	13	20	14	18	-0.986456381386	-0.12810567002	0.0162954806552	0.45166015625	-0.39501953125	0.08349609375	3.1875	-29.3125	6.5625
18	12	13	20	14	18	-0.985849985642	-0.12493251536	0.0319197389024	0.3232421875	-0.32861328125	0.49365234375	21.8125	-74.1875	-28.4375
18	12	13	20	14	18	-0.982127658879	-0.131035799379	0.0560884488261	0.158203125	-0.3388671875	0.92919921875	59.1875	-143.6875	-76.625
18	12	13	20	14	18	-0.976538248318	-0.132076798085	0.0926490663091	0.4814453125	0.1357421875	1.580078125	35.3125	-218.0	-89.625
18	12	13	20	14	18	-0.968914242474	-0.127255823342	0.13384749189	1.16845703125	0.001953125	1.705078125	9.5625	-243.0625	-100.8125
18	12	13	20	14	18	-0.960545716999	-0.111569295379	0.173274195613	1.58984375	0.81298828125	1.87060546875	-60.8125	-256.6875	-90.375
18	12	13	20	14	18	-0.951283778181	-0.090758307337	0.206113519756	1.3115234375	0.6572265625	2.21875	-97.25	-227.625	-99.5
18	12	13	20	14	18	-0.940528288297	-0.065672189371	0.234613286192	1.05224609375	0.29150390625	2.10791015625	-123.5625	-211.25	-113.4375
18	12	13	20	14	18	-0.928250963701	-0.0417465749998	0.259512334648	0.64111328125	0.34228515625	1.6953125	-125.0	-197.25	-117.1875
18	12	13	20	14	18	-0.915655530154	-0.0239869766265	0.282960874403	0.2275390625	0.1689453125	1.4814453125	-85.5	-185.0625	-99.375
18	12	13	20	14	18	-0.902638727099	-0.0112303418613	0.306454056986	-0.02197265625	-0.00830078125	1.3212890625	-50.5625	-180.5625	-89.1875
18	12	13	20	14	18	-0.887759881367	-0.000549318592802	0.328553553895	-0.14892578125	-0.05322265625	1.13427734375	-47.4375	-174.0	-110.5625
18	12	13	20	14	18	-0.871246458902	0.010314581545	0.347583088157	-0.29150390625	-0.0419921875	0.94677734375	-61.5625	-162.0	-131.5
18	12	13	20	14	18	-0.854522316131	0.0211174002844	0.363390177148	-0.5361328125	0.00048828125	0.740234375	-68.9375	-147.1875	-130.8125
18	12	13	20	14	18	-0.839536724294	0.0355223826637	0.373961578317	-0.90625	0.19970703125	0.41748046875	-96.9375	-126.5625	-104.625
18	12	13	20	14	18	-0.82971883935	0.053650350139	0.374575880322	-1.25048828125	0.37255859375	0.12744140625	-130.5	-78.0625	-59.9375
18	12	13	20	14	18	-0.825039906001	0.0665256323081	0.367294729569	-1.34814453125	0.23291015625	0.1396484375	-112.3125	-19.3125	-39.5
18	12	13	20	14	18	-0.826113715785	0.0636598895873	0.352052006845	-0.95947265625	0.06201171875	0.39111328125	-44.5	20.0625	-33.875
18	12	13	20	14	18	-0.831766578491	0.0529772079637	0.338370554091	-0.642578125	0.09423828125	0.7841796875	21.75	36.1875	3.1875
18	12	13	20	14	18	-0.840853392812	0.0289297022714	0.332630542994	-0.24169921875	-0.14013671875	1.7431640625	132.875	81.0	28.5625
18	12	13	20	14	18	-0.851431215576	0.00158689688925	0.332821105271	0.3759765625	-0.90869140625	2.18212890625	173.75	82.625	73.3125
18	12	13	20	14	18	-0.861130521273	-0.0389397740855	0.34404938326	1.4443359375	0.42041015625	2.2431640625	287.1875	57.625	106.8125
18	12	13	20	14	18	-0.865427386168	-0.0866098780571	0.354191065797	2.59423828125	0.15185546875	1.86767578125	313.0625	66.375	58.625
18	12	13	20	14	18	-0.871506664028	-0.108518723205	0.351434650289	2.75	0.87841796875	1.2578125	139.125	78.875	61.875
18	12	13	20	14	18	-0.885305848808	-0.120482161017	0.33343163406	1.541015625	0.501953125	1.3671875	68.0	162.5	100.5625
18	12	13	20	14	18	-0.898111013881	-0.111813753138	0.314628764972	1.1962890625	0.0859375	1.22705078125	-50.625	120.5625	93.3125
18	12	13	20	14	18	-0.908480767782	-0.0938081921451	0.304128966467	1.0810546875	-0.0126953125	0.84619140625	-83.8125	60.375	114.9375
18	12	13	20	14	18	-0.919600005559	-0.0761704922637	0.296198236343	1.091796875	-0.09521484375	0.419921875	-64.9375	58.25	163.5625
18	12	13	20	14	18	-0.930449813784	-0.0667702260597	0.286977699207	0.96044921875	-0.2373046875	0.23583984375	-14.5	77.9375	172.8125
18	12	13	20	14	18	-0.938955841991	-0.0647576799501	0.27764626399	0.68896484375	-0.2666015625	0.068359375	19.625	80.125	140.125
18	12	13	20	14	18	-0.945811629931	-0.0657356172842	0.266909799799	0.5	-0.17333984375	-0.19970703125	23.625	86.1875	104.5625
18	12	13	20	14	18	-0.95065402123	-0.0646342198563	0.259391345033	0.31640625	-0.06298828125	-0.54150390625	3.9375	88.9375	80.75
18	12	13	20	14	18	-0.954712061661	-0.0607910250233	0.252197304615	0.1220703125	-0.08544921875	-0.61474609375	-14.8125	72.5	66.5625
18	12	13	20	14	18	-0.957020260401	-0.0528558383614	0.249447819149	0.1162109375	-0.23681640625	-0.30126953125	-25.1875	30.75	44.4375
18	12	13	20	14	18	-0.95725954136	-0.0400994337333	0.25255929496	0.22216796875	-0.4072265625	-0.1005859375	-40.1875	-9.25	20.5625
18	12	13	20	14	18	-0.954952836955	-0.027343657865	0.261900972988	0.3603515625	-0.36083984375	0.041015625	-42.8125	-45.125	-5.875
18	12	13	20	14	18	-0.950154441605	-0.0259388256476	0.274036063901	0.54296875	-0.4345703125	0.69384765625	20.5	-69.125	-72.3125
18	12	13	20	14	18	-0.937676955853	-0.0404050084472	0.296018566419	1.3369140625	-0.71142578125	1.4306640625	65.4375	-126.6875	-209.75
18	12	13	20	14	18	-0.921886590819	-0.0639656479859	0.320133419548	2.1494140625	0.0361328125	1.478515625	102.125	-139.625	-218.5625
18	12	13	20	14	18	-0.904447291832	-0.0896574041232	0.348925377381	3.072265625	1.390625	1.40576171875	140.3125	-160.9375	-161.8125
18	12	13	20	14	18	-0.89631064888	-0.0766609584606	0.363407123148	2.01025390625	1.7060546875	1.392578125	-71.8125	-115.4375	-48.9375
18	12	13	20	14	18	-0.888215215287	-0.039732570958	0.368640136077	1.71728515625	0.60302734375	1.25732421875	-241.0625	-100.0	-83.125
18	12	13	20	14	18	-0.880416077685	-0.00506582561163	0.366021158951	1.29541015625	-0.01171875	1.3525390625	-237.125	-62.9375	-98.5625
18	12	13	20	14	18	-0.872928133024	0.0106201576805	0.363770918251	0.73486328125	-0.39794921875	1.306640625	-122.25	-37.75	-105.375
18	12	13	20	14	19	-0.864053474148	0.00927711577809	0.367422611738	0.1806640625	-0.3876953125	1.22314453125	-17.0625	-44.625	-120.1875
18	12	13	20	14	19	-0.853517245007	0.00512696285617	0.374573464861	-0.017578125	-0.24658203125	1.0029296875	3.1875	-60.25	-122.625
18	12	13	20	14	19	-0.841852998965	0.00714107162175	0.379209213555	-0.1220703125	-0.05029296875	0.76025390625	-43.4375	-61.125	-126.4375
18	12	13	20	14	19	-0.830741784153	0.0148924395954	0.378902725444	-0.33544921875	-0.01904296875	0.61669921875	-86.75	-49.75	-119.5625
18	12	13	20	14	19	-0.822991127211	0.0249631690173	0.374020292758	-0.806640625	0.0029296875	0.451171875	-100.125	-30.375	-83.6875
18	12	13	20	14	19	-0.822265713832	0.0275268584426	0.357788124591	-1.4716796875	0.142578125	0.12353515625	-89.25	-7.375	-29.8125
18	12	13	20	14	19	-0.825499322772	0.0336913586817	0.348021969571	-1.63671875	0.17236328125	0.0537109375	-55.75	37.0	15.75
18	12	13	20	14	19	-0.833443075271	0.0255739764583	0.334781052205	-1.46484375	0.03515625	0.3876953125	14.125	98.4375	26.0625
18	12	13	20	14	19	-0.845474383093	0.00909440391863	0.318426209688	-1.396484375	-0.02734375	0.51025390625	62.25	116.9375	55.875
18	12	13	20	14	19	-0.861042769419	-0.00695816798141	0.3040841481	-1.17333984375	0.01611328125	1.033203125	81.75	136.375	111.8125
18	12	13	20	14	19	-0.876456496677	-0.0334469470877	0.288571470494	-0.32275390625	-0.52392578125	2.38916015625	135.125	166.4375	105.4375
18	12	13	20	14	19	-0.894697893887	-0.0623157479813	0.266474589311	0.5146484375	-0.7177734375	2.55078125	144.25	210.625	143.625
18	12	13	20	14	19	-0.905827336448	-0.1066289574	0.254945137413	1.7529296875	0.625	2.70751953125	248.6875	177.5625	114.5625
18	12	13	20	14	19	-0.91411755197	-0.13952545395	0.24175867152	2.38037109375	0.56298828125	2.38134765625	181.25	157.625	99.8125
18	12	13	20	14	19	-0.927797589366	-0.148010601553	0.21728566661	1.68701171875	0.87060546875	1.97216796875	32.875	184.875	145.625
18	12	13	20	14	19	-0.942747829355	-0.135864085727	0.188476323776	1.18798828125	-0.0390625	1.90283203125	-77.6875	184.25	140.5625
18	12	13	20	14	19	-0.953412051441	-0.121091448055	0.170834154791	1.26953125	-0.306640625	1.50634765625	-76.1875	116.6875	127.875
18	12	13	20	14	19	-0.961442970796	-0.113215051789	0.161430626405	0.990234375	-0.22216796875	1.03955078125	-27.0625	78.4375	144.1875
18	12	13	20	14	19	-0.96762392695	-0.113217004194	0.156489702832	0.80078125	-0.17578125	0.67578125	23.125	61.625	160.25
18	12	13	20	14	19	-0.971792604156	-0.117552603668	0.154600594544	0.61376953125	-0.1708984375	0.38427734375	49.6875	45.0625	154.0625
18	12	13	20	14	19	-0.974430258949	-0.123047378769	0.153259904805	0.53955078125	-0.21435546875	0.0234375	53.0625	39.4375	131.5
18	12	13	20	14	19	-0.976023712774	-0.122186060091	0.155814691015	0.482421875	-0.25537109375	-0.25439453125	22.625	35.125	93.0
18	12	13	20	14	19	-0.97753159545	-0.115660737599	0.158079847166	0.3916015625	-0.27978515625	-0.39111328125	-14.9375	26.625	65.875
18	12	13	20	14	19	-0.978927999593	-0.105772318929	0.16045898815	0.296875	-0.3291015625	-0.36669921875	-32.4375	15.625	49.0625
18	12	13	20	14	19	-0.979831248954	-0.0931370677653	0.16491242274	0.28369140625	-0.4072265625	-0.1552734375	-41.1875	-4.375	31.6875
18	12	13	20	14	19	-0.979679779336	-0.0806838193547	0.172902617422	0.31689453125	-0.40966796875	0.0712890625	-38.125	-30.0	13.4375
18	12	13	20	14	19	-0.977550712529	-0.0723230064523	0.186941239463	0.41064453125	-0.3115234375	0.4150390625	-19.0625	-69.375	-15.9375
18	12	13	20	14	19	-0.972359165174	-0.0795244785477	0.205066959263	0.68798828125	-0.498046875	0.97705078125	46.0625	-105.9375	-82.5
18	12	13	20	14	19	-0.964480503267	-0.084289809835	0.230408422974	1.27880859375	0.00048828125	1.3486328125	23.625	-147.9375	-111.0625
18	12	13	20	14	19	-0.953706428385	-0.0970429554033	0.256889181945	2.10546875	0.04736328125	1.76513671875	57.9375	-165.3125	-146.8125
18	12	13	20	14	19	-0.942751288695	-0.0952150725342	0.286926958964	2.333984375	1.3125	1.8681640625	-9.6875	-192.125	-87.875
18	12	13	20	14	19	-0.935969199549	-0.0685421200583	0.308409022845	1.8291015625	1.08203125	1.794921875	-147.25	-156.75	-28.625
18	12	13	20	14	19	-0.929760609754	-0.0311262905983	0.320173569566	1.39794921875	0.53076171875	1.69384765625	-231.9375	-114.5625	-60.75
18	12	13	20	14	19	-0.923012531238	-0.0144649851156	0.332450522889	1.09912109375	0.04296875	1.638671875	-97.1875	-100.1875	-51.875
18	12	13	20	14	19	-0.919114840318	-0.00390619229566	0.338557010375	0.36767578125	-0.06005859375	1.341796875	-47.8125	-91.3125	-33.25
18	12	13	20	14	19	-0.915592872711	-0.00463869464209	0.342530978045	-0.04833984375	-0.15478515625	1.13330078125	10.6875	-79.25	-59.5625
18	12	13	20	14	19	-0.911438670752	-0.00646973140693	0.345764419059	-0.1640625	-0.15478515625	1.07958984375	9.375	-79.75	-77.875
18	12	13	20	14	19	-0.905983785112	-0.00402822216501	0.349234654973	-0.1708984375	-0.1064453125	0.8974609375	-24.6875	-81.4375	-89.375
18	12	13	20	14	19	-0.900310353656	0.000671372374091	0.35112775165	-0.35595703125	-0.01025390625	0.64501953125	-49.9375	-75.0	-87.125
18	12	13	20	14	19	-0.89607308699	0.00726331294543	0.348028658948	-0.7783203125	0.216796875	0.34814453125	-83.0625	-57.0	-67.75
18	12	13	20	14	19	-0.893968001433	0.0227657584853	0.343378437636	-1.3466796875	0.47607421875	0.07666015625	-116.25	-22.625	-22.9375
18	12	13	20	14	19	-0.896307002619	0.0366213279926	0.334108582386	-1.4677734375	0.47509765625	0.01953125	-90.5625	29.5625	21.1875
18	12	13	20	14	19	-0.90530172616	0.0265493326286	0.309376016308	-1.23486328125	0.20703125	0.35986328125	3.9375	79.25	17.125
18	12	13	20	14	19	-0.913924378683	0.0113523396845	0.292780502507	-1.2666015625	0.10009765625	0.626953125	68.75	101.25	39.9375
18	12	13	20	14	19	-0.926426975606	-0.0103146557005	0.273063725467	-0.94189453125	0.07080078125	1.1337890625	122.0625	134.1875	102.625
18	12	13	20	14	19	-0.937729301145	-0.0400384288955	0.25072845412	-0.1650390625	-0.62255859375	2.47607421875	158.125	181.625	85.1875
18	12	13	20	14	19	-0.949446178624	-0.0746446822099	0.224605421531	0.76123046875	-0.53857421875	2.462890625	192.5625	211.75	126.0
18	12	13	20	14	19	-0.954538770595	-0.121461228562	0.20544648007	1.55810546875	0.7861328125	2.7744140625	265.9375	178.0	88.25
18	12	13	20	14	19	-0.960430141677	-0.155270353357	0.18078254192	2.009765625	0.35400390625	2.59814453125	196.3125	200.875	137.3125
18	12	13	20	14	19	-0.967535799726	-0.164724602502	0.147025404752	1.5615234375	0.52880859375	2.0986328125	39.5625	219.875	82.875
18	12	13	20	14	20	-0.975013515074	-0.159481083874	0.110593082273	1.185546875	-0.18408203125	1.97900390625	-49.0625	218.75	57.625
18	12	13	20	14	20	-0.980112511641	-0.151664461761	0.0854447671895	1.22900390625	-0.2412109375	1.4765625	-44.5	167.1875	49.0
18	12	13	20	14	20	-0.983767420877	-0.147278247089	0.0657350485348	1.001953125	-0.087890625	0.95361328125	-24.1875	139.1875	74.875
18	12	13	20	14	20	-0.986101445269	-0.146905129589	0.0501076491035	0.8330078125	-0.06103515625	0.568359375	-0.5625	118.1875	92.875
18	12	13	20	14	20	-0.98743646101	-0.145622312626	0.0466894673758	0.76513671875	-0.0302734375	0.22314453125	1.5	84.8125	92.3125
18	12	13	20	14	20	-0.988320879506	-0.142758138527	0.0479115599588	0.76171875	-0.015625	-0.15478515625	-15.125	57.1875	80.0
18	12	13	20	14	20	-0.989220274608	-0.136713562137	0.0513286186417	0.703125	-0.0927734375	-0.4052734375	-33.1875	38.875	61.25
18	12	13	20	14	20	-0.9901300357	-0.128656482479	0.0555395631195	0.623046875	-0.1943359375	-0.48046875	-39.625	26.625	41.625
18	12	13	20	14	20	-0.990664654148	-0.121513881617	0.0617639619269	0.5458984375	-0.37890625	-0.3134765625	-19.75	6.4375	17.75
18	12	13	20	14	20	-0.991004699607	-0.112118964906	0.073057376697	0.47412109375	-0.54638671875	-0.02880859375	-18.1875	-32.75	-3.9375
18	12	13	20	14	20	-0.990520056836	-0.101560501237	0.0924054079765	0.4140625	-0.50732421875	0.1865234375	-25.6875	-88.5	-25.6875
18	12	13	20	14	20	-0.987873018577	-0.100154431205	0.117182515487	0.43505859375	-0.392578125	0.49072265625	-5.1875	-145.375	-69.75
18	12	13	20	14	20	-0.982169426954	-0.108153382088	0.146177962811	0.64501953125	-0.53759765625	0.9892578125	45.0625	-178.6875	-159.4375
18	12	13	20	14	20	-0.973292338417	-0.118037711325	0.182549531837	1.00048828125	0.1689453125	1.5390625	53.625	-219.375	-138.1875
18	12	13	20	14	20	-0.962579369366	-0.122252645795	0.219358966045	1.96044921875	0.47265625	1.705078125	16.8125	-233.625	-140.6875
18	12	13	20	14	20	-0.953096677589	-0.105953882703	0.253105271642	2.1181640625	1.1171875	2.06689453125	-96.125	-226.3125	-104.375
18	12	13	20	14	20	-0.94530201648	-0.071959651177	0.278073088009	1.63525390625	0.53564453125	2.1630859375	-201.8125	-188.75	-88.1875
18	12	13	20	14	20	-0.936714971979	-0.0388187086843	0.295779028749	1.19921875	0.11279296875	1.88232421875	-202.0	-151.75	-105.1875
18	12	13	20	14	20	-0.927485946538	-0.0199584038246	0.309019567473	0.677734375	-0.09814453125	1.62353515625	-123.6875	-119.1875	-118.5625
18	12	13	20	14	20	-0.917781087014	-0.0151366435845	0.322264024701	0.21337890625	-0.1484375	1.42138671875	-41.5	-107.4375	-120.6875
18	12	13	20	14	20	-0.907957628031	-0.0195922558885	0.335387682578	-0.03759765625	-0.142578125	1.2177734375	12.5	-96.25	-121.3125
18	12	13	20	14	20	-0.897579200969	-0.0249022381338	0.347166496336	-0.1474609375	-0.0849609375	1.0888671875	12.25	-89.25	-128.3125
18	12	13	20	14	20	-0.886362732267	-0.0260012755781	0.35651044754	-0.25927734375	-0.13720703125	0.96142578125	-19.6875	-85.9375	-140.25
18	12	13	20	14	20	-0.874958921213	-0.0221562670666	0.362801243648	-0.49951171875	-0.13818359375	0.7431640625	-54.75	-80.0625	-139.75
18	12	13	20	14	20	-0.865359228994	-0.0137939896849	0.363953807483	-0.96875	0.00439453125	0.4150390625	-87.9375	-60.5625	-117.5
18	12	13	20	14	20	-0.860533643736	-0.00305175418021	0.356261782998	-1.39990234375	0.1611328125	0.1357421875	-111.0	-14.0625	-77.75
18	12	13	20	14	20	-0.861333244522	0.00366213114168	0.343996185241	-1.48583984375	0.189453125	0.1650390625	-78.625	47.9375	-32.9375
18	12	13	20	14	20	-0.867425121279	-0.00201414501845	0.32427734797	-1.34375	0.11572265625	0.35693359375	-21.3125	100.1875	-8.1875
18	12	13	20	14	20	-0.877669548996	-0.0145871364541	0.301447142037	-1.15478515625	0.1484375	0.66552734375	23.375	137.375	29.75
18	12	13	20	14	20	-0.890181037186	-0.0324090593586	0.27990197028	-1.01123046875	-0.04736328125	1.61669921875	67.375	169.3125	66.0
18	12	13	20	14	20	-0.905522189483	-0.0501101184663	0.256532068104	-0.12353515625	-0.4619140625	2.28271484375	77.8125	184.4375	120.125
18	12	13	20	14	20	-0.921140786875	-0.0753172363506	0.233397983634	0.4267578125	0.19189453125	2.2685546875	137.375	192.1875	151.0625
18	12	13	20	14	20	-0.932153225213	-0.102718122048	0.212149846844	1.3056640625	0.60546875	2.708984375	139.875	186.625	118.0625
18	12	13	20	14	20	-0.944532315322	-0.11943976099	0.19005386598	2.14111328125	0.6728515625	2.359375	89.875	180.0	173.75
18	12	13	20	14	20	-0.955797094941	-0.125364446552	0.163571916631	1.390625	0.583984375	1.88818359375	20.875	198.1875	148.4375
18	12	13	20	14	20	-0.964581813487	-0.130124552414	0.136655193647	1.12060546875	0.10595703125	1.60693359375	17.5625	191.75	120.4375
18	12	13	20	14	20	-0.970562669395	-0.133359290192	0.117246314168	1.048828125	0.09765625	1.18359375	13.8125	144.9375	103.4375
18	12	13	20	14	20	-0.975658494761	-0.134697754156	0.103205211725	0.88916015625	0.09814453125	0.8251953125	8.9375	113.3125	121.5625
18	12	13	20	14	20	-0.979657720739	-0.134274935245	0.0953352040243	0.826171875	-0.00244140625	0.5126953125	4.75	76.8125	128.5
18	12	13	20	14	20	-0.982697270359	-0.130306109696	0.0933809591733	0.77587890625	-0.0810546875	0.150390625	-12.4375	39.25	121.75
18	12	13	20	14	20	-0.984705441861	-0.121333483229	0.0996667897954	0.78125	-0.22509765625	-0.236328125	-29.9375	27.375	91.125
18	12	13	20	14	20	-0.986308566971	-0.108274220161	0.104673217349	0.6826171875	-0.37939453125	-0.40625	-49.8125	22.8125	42.375
18	12	13	20	14	20	-0.987459700098	-0.0944797339608	0.107907086333	0.517578125	-0.49462890625	-0.3681640625	-49.4375	16.625	3.25
18	12	13	20	14	20	-0.987798386595	-0.0815383777875	0.112298364617	0.42578125	-0.5751953125	-0.166015625	-38.6875	-1.9375	-29.625
18	12	13	20	14	20	-0.987067204309	-0.0695195118543	0.120179033223	0.35986328125	-0.52490234375	0.025390625	-35.5	-31.5625	-54.5625
18	12	13	20	14	20	-0.98471520268	-0.0610335442345	0.132808992254	0.30322265625	-0.37548828125	0.33837890625	-22.5625	-68.875	-81.9375
18	12	13	20	14	20	-0.979107522414	-0.0667101684328	0.15130330059	0.3759765625	-0.39697265625	0.8173828125	34.9375	-112.0	-136.875
18	12	13	20	14	20	-0.970290749302	-0.0723842513946	0.179434822176	0.54150390625	-0.076171875	1.3076171875	36.6875	-170.75	-153.5
18	12	13	20	14	20	-0.96029648181	-0.0759253097351	0.210869730816	1.12890625	0.3095703125	1.70751953125	30.25	-184.625	-117.375
18	12	13	20	14	20	-0.948528644514	-0.0726914365624	0.244135807094	1.966796875	0.69287109375	1.88232421875	-7.875	-210.0625	-114.0625
18	12	13	20	14	21	-0.937134478555	-0.0518799209829	0.272644243565	1.75341796875	1.13916015625	2.1083984375	-110.3125	-203.5625	-98.5
18	12	13	20	14	21	-0.925596746321	-0.0237426399155	0.295104534683	1.37646484375	0.5380859375	1.97802734375	-160.0	-178.6875	-93.25
18	12	13	20	14	21	-0.913680443159	0.00152585244348	0.312433546328	0.96923828125	0.32666015625	1.59130859375	-150.1875	-151.75	-98.5
18	12	13	20	14	21	-0.90211030126	0.0166017592654	0.326725063778	0.4599609375	0.1552734375	1.35498046875	-94.8125	-125.625	-102.125
18	12	13	20	14	21	-0.890732607892	0.021117821182	0.34087581301	0.12548828125	0.01123046875	1.29248046875	-33.0	-112.5	-107.0625
18	12	13	20	14	21	-0.878577216336	0.0202631216272	0.357351135925	0.015625	-0.0400390625	1.24755859375	3.6875	-118.3125	-108.1875
18	12	13	20	14	21	-0.865113853244	0.0230102950948	0.375183777049	-0.080078125	-0.01171875	1.048828125	-11.9375	-133.625	-100.5625
18	12	13	20	14	21	-0.851241942824	0.0308832310224	0.390251737464	-0.20361328125	-0.0029296875	0.779296875	-46.6875	-128.6875	-96.8125
18	12	13	20	14	21	-0.837929831568	0.0410755901118	0.400136060584	-0.45556640625	-0.0400390625	0.57568359375	-73.5	-107.4375	-98.875
18	12	13	20	14	21	-0.825879161242	0.0543831448279	0.404547119999	-0.93701171875	0.0224609375	0.34228515625	-102.8125	-86.8125	-88.5625
18	12	13	20	14	21	-0.818166380656	0.065428896685	0.401606474056	-1.40380859375	0.11865234375	0.23388671875	-101.9375	-42.25	-65.125
18	12	13	20	14	21	-0.820403736466	0.0623755853792	0.3829812116	-1.39453125	0.0615234375	0.4453125	-56.5	18.5625	-34.9375
18	12	13	20	14	21	-0.829723953449	0.0507209508104	0.358281565893	-1.2470703125	0.0498046875	0.48193359375	-7.375	82.625	2.8125
18	12	13	20	14	21	-0.843640928439	0.0343022863394	0.336308892758	-0.8798828125	0.12158203125	1.04248046875	47.4375	148.375	48.6875
18	12	13	20	14	21	-0.858896751279	0.00573737170411	0.315738551334	-0.4619140625	-0.34912109375	2.34619140625	118.75	194.4375	52.5625
18	12	13	20	14	21	-0.877815437708	-0.0217287092076	0.293093431503	0.2841796875	-0.1865234375	2.20263671875	141.625	194.0	114.0
18	12	13	20	14	21	-0.886581979157	-0.0577993345905	0.285456692587	1.4208984375	0.943359375	2.548828125	195.8125	133.8125	52.4375
18	12	13	20	14	21	-0.898923823906	-0.0838621220836	0.276976935965	2.36083984375	0.8623046875	2.0205078125	160.3125	127.125	134.6875
18	12	13	20	14	21	-0.910792074052	-0.0852017513487	0.265065333888	2.13037109375	0.9716796875	1.44921875	17.25	94.25	138.5
18	12	13	20	14	21	-0.924362534534	-0.0877671392974	0.248348045759	1.63623046875	0.25048828125	1.39013671875	24.125	141.125	155.75
18	12	13	20	14	21	-0.934258421342	-0.0878899932536	0.239317127463	1.490234375	0.02099609375	1.20703125	24.5	89.8125	144.8125
18	12	13	20	14	21	-0.94206753124	-0.087462440704	0.236447658958	1.10693359375	0.0927734375	0.81982421875	30.4375	50.5	156.375
18	12	13	20	14	21	-0.948654133212	-0.0866074898686	0.23632431344	0.876953125	0.04736328125	0.490234375	33.25	33.125	165.875
18	12	13	20	14	21	-0.953778292723	-0.0842269177679	0.238276729685	0.7158203125	-0.11962890625	0.19482421875	28.0625	17.625	163.75
18	12	13	20	14	21	-0.957519986048	-0.0784912482189	0.239563102068	0.60791015625	-0.26220703125	-0.15869140625	2.0	14.0	130.9375
18	12	13	20	14	21	-0.959553753398	-0.0637179823526	0.243825037834	0.458984375	-0.33837890625	-0.3916015625	-44.1875	13.5	87.0625
18	12	13	20	14	21	-0.961142805126	-0.045713484953	0.245961741469	0.32373046875	-0.4140625	-0.46337890625	-66.0625	14.75	58.9375
18	12	13	20	14	21	-0.962414468058	-0.0313704760341	0.245837115691	0.23291015625	-0.509765625	-0.4296875	-44.6875	22.125	33.5625
18	12	13	20	14	21	-0.9627260259	-0.019652452158	0.245777716895	0.19970703125	-0.61083984375	-0.2880859375	-30.0625	14.375	-5.375
18	12	13	20	14	21	-0.96105953809	-0.00793457004647	0.248596183071	0.19873046875	-0.52294921875	-0.09130859375	-44.375	-11.75	-53.0625
18	12	13	20	14	21	-0.956804913191	-0.000793421182081	0.256580203805	0.22705078125	-0.34423828125	0.11328125	-35.625	-46.4375	-94.75
18	12	13	20	14	21	-0.950114162856	-0.00671372505391	0.267816595787	0.31787109375	-0.2373046875	0.72021484375	12.25	-68.625	-142.6875
18	12	13	20	14	21	-0.939637194835	-0.0227051014277	0.285644824412	0.77001953125	-0.201171875	1.462890625	68.75	-102.1875	-186.125
18	12	13	20	14	21	-0.925764130612	-0.0262446318673	0.309686656034	1.6708984375	0.3876953125	1.63427734375	0.3125	-144.75	-171.5
18	12	13	20	14	21	-0.90967824878	-0.0255740194739	0.336063368075	2.29638671875	1.41455078125	1.7041015625	-17.25	-173.5625	-160.0625
18	12	13	20	14	21	-0.898699977361	0.00213627405648	0.350898272877	1.6533203125	1.8203125	1.59375	-161.6875	-139.9375	-66.125
18	12	13	20	14	21	-0.887992515965	0.039367322345	0.355526593271	1.5986328125	0.77392578125	1.51123046875	-243.75	-97.75	-70.0
18	12	13	20	14	21	-0.877257513184	0.0702514017724	0.356567062689	1.2353515625	0.21044921875	1.4072265625	-208.375	-73.125	-80.0
18	12	13	20	14	21	-0.869670687632	0.0810528930574	0.356803624107	0.732421875	-0.1162109375	1.22216796875	-79.3125	-50.125	-91.0625
18	12	13	20	14	21	-0.861609812175	0.0736674253238	0.36479718406	0.3525390625	-0.18896484375	1.05078125	24.625	-43.75	-106.25
18	12	13	20	14	21	-0.851860764082	0.0618281116296	0.376156615966	0.216796875	-0.13037109375	0.89990234375	51.4375	-55.1875	-120.0625
18	12	13	20	14	21	-0.839908671264	0.0580447021562	0.386537432971	0.12158203125	0.00048828125	0.755859375	0.6875	-70.25	-121.5
18	12	13	20	14	21	-0.826794650038	0.0653085985192	0.393194384729	-0.09619140625	0.037109375	0.640625	-68.6875	-79.0625	-111.875
18	12	13	20	14	21	-0.814822131591	0.0801394351145	0.395692275588	-0.44677734375	-0.0087890625	0.587890625	-110.375	-77.75	-83.75
18	12	13	20	14	21	-0.80484359247	0.099064246214	0.393937550872	-0.83544921875	-0.03125	0.36328125	-133.5625	-65.875	-55.375
18	12	13	20	14	21	-0.796936519074	0.115966867293	0.388183829464	-1.1748046875	0.064453125	0.2001953125	-132.0	-40.4375	-44.625
18	12	13	20	14	21	-0.795600364599	0.116822332017	0.374698169411	-1.25830078125	0.09765625	0.32275390625	-70.9375	-8.9375	-34.75
18	12	13	20	14	21	-0.80033897135	0.10809123147	0.361260304386	-0.94775390625	0.1025390625	0.4599609375	-2.1875	30.1875	-2.75
18	12	13	20	14	21	-0.811611658813	0.0871611227183	0.345226407629	-0.8037109375	0.111328125	1.13623046875	75.0	58.625	23.75
18	12	13	20	14	22	-0.821223094246	0.0578609805534	0.347532092058	-0.1416015625	-0.14599609375	2.177734375	175.5625	79.0	33.0625
18	12	13	20	14	22	-0.835251616673	0.0300898097932	0.344842647731	0.6083984375	-0.1875	1.9306640625	182.1875	93.0625	78.0
18	12	13	20	14	22	-0.844804098275	-0.0117800152422	0.350714857936	1.8779296875	0.798828125	2.310546875	262.9375	89.375	51.25
18	12	13	20	14	22	-0.854284031696	-0.0421130229242	0.350392557403	2.87744140625	1.25830078125	1.52490234375	190.0625	92.25	68.9375
18	12	13	20	14	22	-0.868649395785	-0.0454710370897	0.33123666884	2.03564453125	1.2392578125	1.115234375	3.5625	133.9375	98.75
18	12	13	20	14	22	-0.885551214105	-0.0440669912871	0.303342031436	1.28564453125	0.3818359375	1.26416015625	-37.9375	179.375	109.6875
18	12	13	20	14	22	-0.89596812892	-0.0406481453584	0.282950152975	1.24462890625	-0.00927734375	1.2236328125	-39.0625	124.875	62.25
18	12	13	20	14	22	-0.90276409008	-0.0361325360914	0.275693691765	1.15673828125	0.0439453125	0.75830078125	-10.25	85.9375	60.0625
18	12	13	20	14	22	-0.908551656554	-0.0355828036928	0.272394601854	1.04296875	0.11376953125	0.3330078125	8.75	79.125	67.0625
18	12	13	20	14	22	-0.91460285732	-0.0373531497284	0.269223437013	0.87744140625	0.0498046875	0.04443359375	23.1875	83.0	75.6875
18	12	13	20	14	22	-0.919862404159	-0.0352783803068	0.264709922821	0.697265625	-0.015625	-0.18603515625	-3.625	77.75	63.5
18	12	13	20	14	22	-0.924573500996	-0.0264896289564	0.256656428023	0.45751953125	-0.07568359375	-0.34228515625	-50.5625	74.5625	47.1875
18	12	13	20	14	22	-0.928654423931	-0.0115357006982	0.246339090042	0.28369140625	-0.16845703125	-0.4453125	-86.875	67.5625	35.375
18	12	13	20	14	22	-0.931268472999	0.00537105948512	0.236631791179	0.19921875	-0.3134765625	-0.4091796875	-89.875	52.9375	16.4375
18	12	13	20	14	22	-0.931405526603	0.0206300830925	0.230715130443	0.1611328125	-0.453125	-0.16552734375	-69.25	22.25	-14.0
18	12	13	20	14	22	-0.928007853185	0.0305775688554	0.228751952235	0.28759765625	-0.5927734375	0.21337890625	-34.375	2.0625	-74.375
18	12	13	20	14	22	-0.920868282169	0.0169061846607	0.230705335803	0.505859375	-0.63037109375	0.98779296875	58.375	6.875	-149.8125
18	12	13	20	14	22	-0.909832241272	-0.00903301614734	0.24413557155	0.79833984375	-0.38525390625	1.2138671875	141.4375	-33.9375	-174.9375
18	12	13	20	14	22	-0.897261022466	-0.0220943126408	0.261835914997	1.3564453125	0.79443359375	1.40380859375	69.4375	-76.3125	-141.3125
18	12	13	20	14	22	-0.884053725981	-0.0214833905106	0.278246526527	1.56103515625	1.1796875	1.54150390625	1.5625	-108.0	-127.4375
18	12	13	20	14	22	-0.873152201966	0.013976782766	0.282282184684	1.48681640625	1.39501953125	1.6669921875	-205.4375	-117.0	-79.0625
18	12	13	20	14	22	-0.861442671554	0.0553584032237	0.281491682103	1.37548828125	0.69921875	1.90576171875	-251.0	-105.0625	-66.5
18	12	13	20	14	22	-0.849736046399	0.0844731136486	0.283204658475	1.07373046875	0.22705078125	1.7470703125	-172.0	-92.9375	-67.8125
18	12	13	20	14	22	-0.840361141264	0.0914882236005	0.289112551831	0.58984375	0.12939453125	1.455078125	-41.3125	-80.1875	-75.8125
18	12	13	20	14	22	-0.831788344189	0.0842896759117	0.299377885841	0.23486328125	0.09912109375	1.18359375	44.1875	-74.625	-88.5625
18	12	13	20	14	22	-0.822954311892	0.0734878729896	0.310309257707	0.0625	0.10888671875	0.98876953125	63.5	-70.3125	-93.25
18	12	13	20	14	22	-0.813096021401	0.068419204323	0.317804457547	-0.08154296875	0.13330078125	0.81591796875	20.25	-71.6875	-92.25
18	12	13	20	14	22	-0.802791613558	0.0710445858878	0.319761671363	-0.2783203125	0.07275390625	0.64111328125	-34.375	-70.5625	-89.0
18	12	13	20	14	22	-0.793439041033	0.0779401273384	0.31627700851	-0.505859375	-0.02978515625	0.47802734375	-67.3125	-61.0	-79.3125
18	12	13	20	14	22	-0.78621292802	0.0842915964286	0.307563616512	-0.76123046875	-0.0498046875	0.2783203125	-79.625	-37.6875	-66.0625
18	12	13	20	14	22	-0.782480274475	0.0869151256515	0.292484046434	-0.93701171875	0.02392578125	0.10302734375	-83.6875	4.375	-46.875
18	12	13	20	14	22	-0.783935494308	0.0789794868915	0.272949200447	-1.12353515625	0.09033203125	0.07568359375	-44.25	52.9375	-22.8125
18	12	13	20	14	22	-0.790043809803	0.0593875638859	0.253541562571	-1.17578125	0.080078125	0.1962890625	22.9375	84.4375	1.0
18	12	13	20	14	22	-0.797368917662	0.0372317084946	0.239930895233	-1.052734375	0.0654296875	0.69775390625	64.375	120.6875	10.9375
18	12	13	20	14	22	-0.803162509722	0.0129394674414	0.22863794828	-0.95458984375	-0.265625	1.681640625	80.125	136.125	-1.1875
18	12	13	20	14	22	-0.816278855132	-0.00823969234655	0.216124078512	-0.15576171875	-0.6552734375	2.50048828125	77.625	140.3125	80.75
18	12	13	20	14	22	-0.835480031438	-0.0423568662297	0.20299558657	0.26123046875	0.36962890625	2.51806640625	152.0	191.375	141.125
18	12	13	20	14	22	-0.855365236377	-0.0735489588864	0.171390436974	0.71435546875	0.5341796875	2.6279296875	81.875	272.125	136.6875
18	12	13	20	14	22	-0.87555960065	-0.0890513389577	0.130494696841	1.12255859375	0.482421875	2.29541015625	-19.625	274.5625	154.75
18	12	13	20	14	22	-0.894783942324	-0.105835972441	0.0816047838258	0.20849609375	0.0859375	2.310546875	-21.6875	321.5	164.875
18	12	13	20	14	22	-0.907300501801	-0.132683391021	0.0379008214461	0.38037109375	-0.185546875	2.3486328125	50.6875	321.625	137.25
18	12	13	20	14	22	-0.914212778439	-0.161493224631	0.00512676903591	0.6669921875	0.11474609375	1.7900390625	82.5625	271.875	113.75
18	12	13	20	14	22	-0.921696249791	-0.180286764792	-0.0222154307326	0.77294921875	0.40966796875	1.22802734375	33.4375	226.4375	136.1875
18	12	13	20	14	22	-0.931322648781	-0.190427070201	-0.0473015959634	0.7509765625	0.203125	0.94873046875	-8.875	203.6875	179.0625
18	12	13	20	14	22	-0.940659881388	-0.194821330223	-0.0660390599314	0.78173828125	-0.1806640625	0.63330078125	-23.6875	160.8125	190.5625
18	12	13	20	14	22	-0.948414859721	-0.194455868658	-0.0780631060932	0.98388671875	-0.38916015625	0.17529296875	-34.8125	113.5	166.5625
18	12	13	20	14	22	-0.954689936941	-0.187556717569	-0.0848979479789	1.18896484375	-0.4951171875	-0.25	-58.1875	67.9375	118.125
18	12	13	20	14	22	-0.961895298527	-0.170773035868	-0.0790389855072	1.2568359375	-0.5712890625	-0.51904296875	-76.3125	32.75	79.6875
18	12	13	20	14	22	-0.967989685787	-0.152644527374	-0.070371507422	1.203125	-0.64306640625	-0.48779296875	-70.5	10.8125	58.8125
18	12	13	20	14	22	-0.972732070198	-0.133721669331	-0.0577975448913	1.0029296875	-0.5908203125	-0.255859375	-63.9375	-24.375	30.75
18	12	13	20	14	23	-0.975316385649	-0.115475506987	-0.0419910934497	0.7109375	-0.41064453125	0.0087890625	-58.9375	-62.875	-14.6875
18	12	13	20	14	23	-0.974649289722	-0.106565073571	-0.0245966349651	0.357421875	-0.17919921875	0.41943359375	-23.5625	-107.5625	-57.75
18	12	13	20	14	23	-0.969741023757	-0.110468327333	0.00561496470424	-0.04052734375	-0.31298828125	1.15625	71.375	-177.875	-111.5
18	12	13	20	14	23	-0.962286512796	-0.105042184988	0.0587772365738	0.0654296875	0.2958984375	1.9892578125	42.75	-320.6875	-121.8125
18	12	13	20	14	23	-0.953775969092	-0.077757124504	0.119016006894	1.19384765625	0.71630859375	2.037109375	-68.1875	-386.5625	-81.25
18	12	13	20	14	23	-0.941840944947	-0.0291750354277	0.170350468365	2.04638671875	1.18359375	2.5302734375	-198.6875	-374.0625	-90.6875
18	12	13	20	14	23	-0.924194320444	0.0162353512903	0.216857906521	1.80078125	0.501953125	3.123046875	-191.125	-348.375	-116.1875
18	12	13	20	14	23	-0.904451855293	0.0441270457775	0.256705884564	1.38330078125	0.2412109375	2.97607421875	-107.625	-284.125	-131.0625
18	12	13	20	14	23	-0.88636393421	0.0558478859525	0.293338732118	0.69873046875	0.13623046875	2.37744140625	-18.125	-235.125	-110.0
18	12	13	20	14	23	-0.869094839218	0.0626842053428	0.324407547612	0.318359375	0.17724609375	1.7373046875	-0.125	-210.3125	-105.1875
18	12	13	20	14	23	-0.851378090992	0.0689696209636	0.349791944905	-0.10595703125	0.080078125	1.59765625	-12.4375	-186.1875	-116.5
18	12	13	20	14	23	-0.831590213652	0.07952748979	0.372003108419	-0.3525390625	-0.1982421875	1.46533203125	-43.875	-185.375	-129.375
18	12	13	20	14	23	-0.810328775695	0.0927153819132	0.391553110582	-0.54931640625	-0.21728515625	1.11767578125	-67.0	-179.6875	-132.3125
18	12	13	20	14	23	-0.790895150118	0.10418722189	0.405396325597	-0.86083984375	-0.15625	0.767578125	-71.875	-144.5625	-122.75
18	12	13	20	14	23	-0.779361725166	0.109192429033	0.402528825865	-1.3056640625	-0.021484375	0.46240234375	-80.3125	-94.375	-93.75
18	12	13	20	14	23	-0.77196797733	0.119506111607	0.400937511312	-1.6123046875	0.0908203125	0.1962890625	-80.375	-30.625	-44.375
18	12	13	20	14	23	-0.77494960557	0.122495381459	0.38951944418	-1.59765625	0.1240234375	0.14013671875	-51.3125	51.75	6.0
18	12	13	20	14	23	-0.787474780672	0.112670783221	0.373412704089	-1.52783203125	0.07958984375	0.27783203125	19.5	122.75	47.0
18	12	13	20	14	23	-0.807002739838	0.0970454058646	0.352842447361	-1.5224609375	0.0517578125	0.4150390625	56.0	168.5625	95.1875
18	12	13	20	14	23	-0.832602853879	0.0789816064012	0.3245936498	-1.0830078125	-0.048828125	1.22509765625	66.875	218.4375	147.75
18	12	13	20	14	23	-0.858456199511	0.0552366057986	0.290404166177	-0.02978515625	-0.9111328125	2.61767578125	80.4375	261.5625	145.3125
18	12	13	20	14	23	-0.887258459617	0.0197751765093	0.25695522563	0.732421875	-0.611328125	2.65966796875	164.5625	286.625	200.625
18	12	13	20	14	23	-0.909762841695	-0.038206865618	0.22673882711	1.13232421875	0.09716796875	3.8037109375	286.0625	310.5	155.9375
18	12	13	20	14	23	-0.926493317133	-0.0794049937807	0.192561687454	2.32861328125	0.51904296875	2.771484375	185.8125	289.0625	140.0625
18	12	13	20	14	23	-0.939508863007	-0.088927721263	0.139891789386	1.33349609375	0.30126953125	2.4814453125	-35.125	317.625	61.625
18	12	13	20	14	23	-0.948062278322	-0.0899050882617	0.0916751137604	1.49755859375	-0.248046875	2.0556640625	-75.0625	273.0	36.5
18	12	13	20	14	23	-0.954387054185	-0.0872784733315	0.0576159991783	1.3056640625	-0.03759765625	1.4189453125	-63.25	210.5625	51.0625
18	12	13	20	14	23	-0.960525150619	-0.0881305323099	0.0322250145842	1.1005859375	0.068359375	0.8974609375	-31.8125	169.6875	90.5
18	12	13	20	14	23	-0.965986081972	-0.0895980014112	0.0148312768004	1.0185546875	0.08154296875	0.5615234375	-17.1875	126.1875	104.5
18	12	13	20	14	23	-0.97052012438	-0.0900879003575	0.00671386791282	1.02001953125	0.07080078125	0.19482421875	-10.3125	73.0625	102.3125
18	12	13	20	14	23	-0.974228443799	-0.0899644609798	0.0133054630214	0.93798828125	0.0322265625	-0.15576171875	1.125	34.9375	91.3125
18	12	13	20	14	23	-0.976805234198	-0.0882567088634	0.0220336596817	0.814453125	-0.0556640625	-0.39013671875	-1.1875	10.875	67.625
18	12	13	20	14	23	-0.978231408151	-0.0856288161739	0.0303332299632	0.68310546875	-0.21533203125	-0.3994140625	3.9375	0.875	38.1875
18	12	13	20	14	23	-0.97868715847	-0.0803823503402	0.0408320367332	0.5380859375	-0.44677734375	-0.12646484375	10.4375	-26.75	10.4375
18	12	13	20	14	23	-0.977990530732	-0.0690891962549	0.0571267559139	0.37744140625	-0.54931640625	0.17529296875	-7.625	-80.8125	-19.5
18	12	13	20	14	23	-0.974618600747	-0.0616460913549	0.0824592766539	0.2177734375	-0.5078125	0.48486328125	-6.4375	-152.9375	-50.8125
18	12	13	20	14	23	-0.966553353694	-0.0567627316832	0.119018630949	0.19091796875	-0.54833984375	0.74462890625	18.375	-220.875	-114.3125
18	12	13	20	14	23	-0.952535545905	-0.0486429698268	0.165398303928	0.2705078125	-0.220703125	1.5390625	5.3125	-290.5625	-170.5
18	12	13	20	14	23	-0.93647584942	-0.0441900876608	0.216616879984	1.0126953125	-0.2080078125	2.05224609375	44.375	-305.75	-125.75
18	12	13	20	14	23	-0.917752627147	-0.033934326042	0.264577883799	2.1640625	0.779296875	2.10888671875	-2.8125	-302.625	-122.4375
18	12	13	20	14	23	-0.899603880619	-0.00793462951899	0.29999003143	1.79931640625	1.14501953125	2.29052734375	-108.375	-262.375	-105.1875
18	12	13	20	14	23	-0.883110515467	0.0238035179371	0.319333348326	1.38818359375	0.525390625	2.4521484375	-172.125	-187.1875	-107.0
18	12	13	20	14	23	-0.867649918804	0.0526717698318	0.33232651997	0.62255859375	0.2822265625	2.14111328125	-163.3125	-162.375	-94.5625
18	12	13	20	14	23	-0.853278859017	0.0727545350464	0.345706112838	0.18359375	0.20458984375	1.580078125	-108.9375	-145.9375	-80.9375
18	12	13	20	14	23	-0.8403871463	0.0830682624819	0.359128329496	0.03271484375	0.1240234375	1.25048828125	-52.1875	-122.5	-79.4375
18	12	13	20	14	23	-0.82784154168	0.0866111588619	0.373483919011	-0.03759765625	-0.02197265625	1.03662109375	-12.5	-110.0625	-86.8125
18	12	13	20	14	23	-0.817675464426	0.085386875773	0.380731473247	-0.1669921875	-0.05712890625	0.82177734375	0.75	-94.4375	-96.125
18	12	13	20	14	23	-0.80821522032	0.0814806916725	0.386163547724	-0.302734375	-0.02294921875	0.57861328125	5.375	-72.1875	-95.4375
18	12	13	20	14	23	-0.800487839982	0.076172994609	0.386968578382	-0.53466796875	0.046875	0.447265625	-4.75	-47.3125	-86.625
18	12	13	20	14	23	-0.794808940579	0.0728768142413	0.38251172098	-0.85400390625	0.1162109375	0.279296875	-31.8125	-30.9375	-65.5
18	12	13	20	14	23	-0.792378297035	0.0732440268404	0.37079788588	-1.13037109375	0.26025390625	0.0205078125	-76.0625	-2.5	-31.125
18	12	13	20	14	24	-0.795763728351	0.0703724174558	0.352716565895	-1.26416015625	0.26953125	-0.03759765625	-66.9375	39.5	4.875
18	12	13	20	14	24	-0.804198089307	0.0581053871449	0.333068379884	-1.37158203125	0.14306640625	0.18798828125	-2.625	62.3125	26.5625
18	12	13	20	14	24	-0.813864419841	0.0483411294821	0.324776704513	-1.6435546875	0.0810546875	0.38232421875	43.1875	80.75	54.6875
18	12	13	20	14	24	-0.828006203958	0.0362550261795	0.315614041034	-1.5263671875	-0.00439453125	0.79833984375	67.1875	97.625	100.0
18	12	13	20	14	24	-0.846202948664	0.0220339919553	0.300907424763	-0.62841796875	-0.3466796875	2.025390625	73.625	135.375	133.5625
18	12	13	20	14	24	-0.869790681594	0.00451649080331	0.271233582836	0.46484375	-1.3359375	2.94970703125	60.0	225.75	164.25
18	12	13	20	14	24	-0.894016416967	-0.0484604748137	0.24504887453	1.31884765625	0.3447265625	3.06884765625	265.875	293.0	176.4375
18	12	13	20	14	24	-0.915305785298	-0.0959432349462	0.211355866806	1.4873046875	0.2998046875	3.33056640625	226.1875	316.375	189.0625
18	12	13	20	14	24	-0.933608446246	-0.12085151174	0.162233999093	1.28955078125	0.5263671875	2.73876953125	68.75	345.875	153.125
18	12	13	20	14	24	-0.945692974395	-0.140251852543	0.106928305333	0.9228515625	-0.14306640625	2.619140625	22.75	356.4375	85.625
18	12	13	20	14	24	-0.955891841337	-0.180473258513	0.0224599794159	1.1171875	0.15966796875	1.34130859375	44.0	266.625	77.9375
18	12	13	20	14	24	-0.960772865496	-0.185111428094	-0.00659150485793	1.0244140625	0.0751953125	0.904296875	-11.25	208.9375	101.75
18	12	13	20	14	24	-0.96574124241	-0.180782756748	-0.0253291168299	1.0458984375	-0.00830078125	0.42822265625	-49.875	138.6875	100.625
18	12	13	20	14	24	-0.971116953165	-0.172116762487	-0.0266719947541	1.0693359375	-0.09619140625	-0.0556640625	-54.6875	87.9375	97.625
18	12	13	20	14	24	-0.975074034819	-0.164485761382	-0.0247186394656	0.9970703125	-0.27197265625	-0.27880859375	-36.625	59.625	74.625
18	12	13	20	14	24	-0.977695902589	-0.157161305273	-0.0187372895995	0.9052734375	-0.404296875	-0.4365234375	-23.0625	24.1875	39.25
18	12	13	20	14	24	-0.979704895716	-0.147090007393	-0.00921601291136	0.79833984375	-0.49365234375	-0.36474609375	-25.9375	-9.0625	7.6875
18	12	13	20	14	24	-0.981525654259	-0.132196528238	0.00463847467502	0.61474609375	-0.61669921875	-0.060546875	-34.5	-51.375	-10.9375
18	12	13	20	14	24	-0.957916650608	-0.0871554620623	0.14745629996	0.71728515625	-0.12548828125	2.376953125	2.1875	-326.75	-184.3125
18	12	13	20	14	24	-0.923491187447	-0.0557842142176	0.251456195379	2.11767578125	1.4921875	2.4423828125	-87.0625	-323.1875	-94.375
18	12	13	20	14	24	-0.90781777956	-0.0117185030036	0.280511665649	1.65966796875	0.67236328125	2.640625	-220.4375	-257.25	-97.0
18	12	13	20	14	24	-0.891108424633	0.0248411732072	0.300108227666	1.0478515625	0.078125	2.46728515625	-199.375	-196.1875	-115.4375
18	12	13	20	14	24	-0.845147093044	0.0557856895387	0.356991792245	-0.04931640625	-0.03564453125	1.14453125	-4.5625	-136.125	-114.375
18	12	13	20	14	24	-0.828443926433	0.0601816629679	0.37378550103	-0.15673828125	-0.09814453125	0.9453125	-23.0	-132.375	-125.5625
18	12	13	20	14	24	-0.810775415544	0.0642687829395	0.388237158859	-0.33447265625	-0.1181640625	0.7734375	-31.375	-122.4375	-135.8125
18	12	13	20	14	24	-0.793627061744	0.0664051559777	0.400261960387	-0.60693359375	-0.1220703125	0.60107421875	-27.125	-106.0625	-134.125
18	12	13	20	14	24	-0.778824706553	0.0704970639553	0.407112914789	-1.0078125	-0.0107421875	0.30859375	-47.9375	-84.0	-111.375
18	12	13	20	14	24	-0.769878076239	0.0726910408118	0.399709174036	-1.24853515625	0.166015625	-0.08544921875	-90.75	-37.1875	-74.0625
