19	01	14	15	49	45	-0.391355883778	-0.143187913809	0.0619504401178	-0.35400390625	0.14306640625	-0.40087890625	57.8125	152.375	-30.5
19	01	14	15	49	45	-0.377075637798	-0.180237027908	0.0541382471232	-0.25439453125	0.26025390625	-0.20849609375	49.125	200.0	-94.0
19	01	14	15	49	45	-0.351329790013	-0.220283045893	0.0400403652274	-0.404296875	0.3466796875	-0.076171875	33.25	222.125	-166.1875
19	01	14	15	49	45	-0.321226071408	-0.260374391151	0.0253904703982	-0.7294921875	0.134765625	-0.02001953125	39.625	219.25	-185.1875
19	01	14	15	49	45	-0.2923060759	-0.299325328088	0.0137943564739	-1.11962890625	0.28857421875	0.1943359375	50.8125	209.5	-169.0625
19	01	14	15	49	45	-0.261602721456	-0.337776355701	0.00341804769051	-1.62109375	0.38330078125	0.1962890625	58.375	202.75	-173.25
19	01	14	15	49	45	-0.225895860389	-0.367744544405	-0.0117189962698	-2.38134765625	0.4013671875	0.5234375	35.8125	181.5	-211.6875
19	01	14	15	49	45	-0.183592808222	-0.393613703531	-0.0150756062602	-2.72412109375	0.73095703125	1.099609375	105.1875	143.8125	-222.8125
19	01	14	15	49	45	-0.136595926832	-0.417783341897	-0.0128783469891	-2.75732421875	0.7431640625	1.20947265625	142.75	132.5	-233.0
19	01	14	15	49	45	-0.0881349268343	-0.443787432834	-0.00146484642938	-2.25537109375	0.515625	1.2685546875	194.875	143.9375	-215.6875
19	01	14	15	49	45	-0.0385747966532	-0.471564681871	0.0142214044623	-1.70849609375	1.0517578125	1.34033203125	220.5	162.375	-207.75
19	01	14	15	49	45	0.00360102310851	-0.498833251964	0.0231319959004	-1.3388671875	0.9775390625	1.23095703125	158.4375	178.9375	-201.8125
19	01	14	15	49	45	0.0454120001027	-0.523275640968	0.0313123065224	-1.03076171875	0.623046875	1.23876953125	157.4375	173.375	-197.125
19	01	14	15	49	45	0.0910658662685	-0.543953753475	0.0458381136512	-0.62255859375	0.73583984375	1.15087890625	200.0625	163.4375	-198.75
19	01	14	15	49	45	0.13879727703	-0.563551125248	0.0659195510958	-0.35546875	1.25830078125	1.03564453125	240.3125	157.6875	-181.75
19	01	14	15	49	45	0.17700374239	-0.576910128644	0.0855721540794	-0.0732421875	1.0029296875	0.78955078125	204.875	137.6875	-150.25
19	01	14	15	49	45	0.200686407793	-0.587532652499	0.0983900515093	0.23828125	0.42529296875	0.61181640625	130.5	110.875	-92.3125
19	01	14	15	49	45	0.215640475779	-0.592477242679	0.110231163107	0.49072265625	0.16943359375	0.63720703125	100.75	71.875	-42.1875
19	01	14	15	49	45	0.228765945152	-0.582352156537	0.121341168347	0.833984375	0.130859375	0.91259765625	97.375	28.4375	-13.625
19	01	14	15	49	45	0.240420586108	-0.565436991548	0.130616921623	1.10498046875	0.001953125	0.93701171875	92.375	-11.375	7.4375
19	01	14	15	49	45	0.239022600814	-0.542989033923	0.137456306699	1.07275390625	0.3037109375	0.75341796875	35.25	-64.5625	50.3125
19	01	14	15	49	45	0.226751183184	-0.525098365795	0.138553212874	0.76025390625	0.49462890625	0.67431640625	-24.5	-101.8125	86.4375
19	01	14	15	49	45	0.205689476525	-0.503176274324	0.138611513706	0.349609375	0.57763671875	0.7978515625	-54.3125	-128.25	131.1875
19	01	14	15	49	46	0.176216057644	-0.476582950497	0.137029805823	-0.01806640625	0.568359375	0.861328125	-83.5	-157.375	174.5
19	01	14	15	49	46	0.137331444197	-0.443733155248	0.137514552789	-0.4521484375	0.90478515625	1.33642578125	-96.25	-182.25	229.0625
19	01	14	15	49	46	0.0880164659285	-0.405351837886	0.137579136063	-1.19921875	1.59521484375	1.6728515625	-114.625	-216.5	297.6875
19	01	14	15	49	46	0.0303966332888	-0.361524616404	0.131657706835	-2.080078125	2.07763671875	2.365234375	-161.0	-237.6875	330.5625
19	01	14	15	49	46	-0.0192871544252	-0.318848401003	0.119812291571	-2.95166015625	1.94580078125	2.40478515625	-171.875	-227.125	273.8125
19	01	14	15	49	46	-0.0667738493611	-0.273809404236	0.115602989662	-2.83984375	0.60302734375	1.96240234375	-123.3125	-232.625	278.1875
19	01	14	15	49	46	-0.114503122325	-0.225771348336	0.114381050766	-2.33154296875	0.78173828125	1.71875	-105.25	-243.6875	287.8125
19	01	14	15	49	46	-0.165166247816	-0.176702249604	0.095400903672	-1.896484375	0.72998046875	1.27880859375	-206.3125	-231.25	284.0
19	01	14	15	49	46	-0.214056135355	-0.132266793646	0.0568863182638	-1.61474609375	0.31640625	1.0205078125	-307.3125	-206.6875	260.4375
19	01	14	15	49	46	-0.25128312044	-0.0977788581359	0.0219117416172	-1.236328125	-0.13916015625	0.84619140625	-259.3125	-151.8125	198.6875
19	01	14	15	49	46	-0.274235824526	-0.0902725983695	0.00177005094842	-0.9990234375	-0.18212890625	0.2119140625	-130.375	-22.5625	125.875
19	01	14	15	49	46	-0.282423053728	-0.110295754936	0.00201425562417	-0.76708984375	0.14599609375	-0.58642578125	16.8125	52.375	53.25
19	01	14	15	49	46	-0.287237682665	-0.1387359228	0.00927754521146	-0.55712890625	0.29248046875	-1.0849609375	56.8125	91.875	37.125
19	01	14	15	49	46	-0.292606057196	-0.164796903302	0.0123292498026	-0.302734375	0.48583984375	-1.2783203125	14.625	96.125	33.25
19	01	14	15	49	46	-0.295659193813	-0.182131922861	0.00451667637121	-0.1552734375	0.4560546875	-1.2353515625	-25.5625	100.9375	12.375
19	01	14	15	49	46	-0.292919739145	-0.202034660673	0.000854527265687	-0.125	0.32958984375	-0.98193359375	9.875	108.25	-15.1875
19	01	14	15	49	46	-0.281683531788	-0.225163715876	0.00531017708896	-0.15380859375	0.390625	-0.49462890625	68.375	112.5625	-54.5
19	01	14	15	49	46	-0.262214931455	-0.249885458421	0.0105594001727	-0.3115234375	0.38720703125	-0.1064453125	86.8125	118.5625	-99.375
19	01	14	15	49	46	-0.237251583092	-0.275338793756	0.0107425465974	-0.5732421875	0.25048828125	0.39208984375	72.1875	129.8125	-134.5625
19	01	14	15	49	46	-0.210028809539	-0.307077867128	0.00714134574717	-1.39404296875	0.267578125	0.82666015625	65.25	166.8125	-147.75
19	01	14	15	49	46	-0.175964349569	-0.338134754288	-0.00146484370089	-2.65087890625	-0.06201171875	0.90283203125	51.5625	180.875	-193.4375
19	01	14	15	49	46	-0.137146903732	-0.365786112179	-0.000671391162017	-3.595703125	0.10302734375	1.55810546875	107.3125	153.6875	-200.0625
19	01	14	15	49	46	-0.088685140238	-0.390751732831	0.00280765068888	-3.30224609375	-0.27099609375	1.6630859375	139.625	138.375	-245.375
19	01	14	15	49	46	-0.0344241260275	-0.417056831819	0.0217897393472	-2.4814453125	-0.20361328125	1.70361328125	235.1875	146.4375	-239.0625
19	01	14	15	49	46	0.0144651244878	-0.447930584877	0.0308223116723	-1.7724609375	0.57177734375	1.30810546875	166.6875	187.9375	-240.625
19	01	14	15	49	46	0.0630525487973	-0.478540157377	0.0316178318267	-1.48046875	0.521484375	0.94970703125	124.375	195.625	-261.9375
19	01	14	15	49	46	0.114932040706	-0.5015993152	0.0336312025645	-1.13671875	0.73876953125	1.06396484375	140.1875	164.625	-277.8125
19	01	14	15	49	46	0.167298226775	-0.518923576811	0.0434572555504	-0.81640625	0.98876953125	1.14404296875	181.625	150.3125	-261.375
19	01	14	15	49	46	0.213375282798	-0.530569603365	0.0572500043663	-0.39697265625	1.1328125	0.9052734375	186.6875	125.5	-219.1875
19	01	14	15	49	46	0.247564616577	-0.538037991896	0.068666221314	-0.05029296875	0.93505859375	0.61328125	145.1875	94.625	-161.375
19	01	14	15	49	46	0.269908216338	-0.538534643317	0.0752593466179	0.34765625	0.62060546875	0.5390625	95.8125	39.0625	-102.6875
19	01	14	15	49	46	0.285593740227	-0.524005612278	0.0791654372889	0.8671875	0.45166015625	0.8134765625	64.8125	-3.8125	-63.125
19	01	14	15	49	46	0.294189641079	-0.518310878017	0.0834961470946	1.25927734375	0.1259765625	0.87890625	54.875	-23.375	-23.75
19	01	14	15	49	46	0.293763431069	-0.505678376565	0.0942997093292	1.40380859375	0.052734375	0.5849609375	66.125	-60.0	52.125
19	01	14	15	49	46	0.280165486165	-0.486474711271	0.103764994876	1.236328125	0.6103515625	0.498046875	21.8125	-92.3125	119.4375
19	01	14	15	49	46	0.249214825341	-0.467788983937	0.109256560706	0.9013671875	0.90478515625	0.775390625	-51.9375	-97.125	191.5625
19	01	14	15	49	46	0.204714626725	-0.450201278093	0.110169916887	0.6201171875	0.95458984375	0.97216796875	-112.875	-93.5	244.1875
19	01	14	15	49	46	0.152471083483	-0.432387972534	0.112918936927	-0.08740234375	1.2958984375	1.560546875	-112.625	-102.0	300.0
19	01	14	15	49	46	0.0811784369794	-0.408882969417	0.113832921028	-1.55224609375	2.5146484375	1.87255859375	-165.125	-122.3125	396.25
19	01	14	15	49	46	0.0179450193622	-0.383132267131	0.100223543513	-3.98291015625	2.55517578125	1.60400390625	-217.5625	-136.5	319.875
19	01	14	15	49	46	-0.0396134311669	-0.345900330389	0.093936934616	-3.953125	0.96044921875	1.5517578125	-164.375	-196.3125	312.875
19	01	14	15	49	46	-0.0878320512394	-0.301033826764	0.0997952771205	-2.90625	0.3701171875	1.50244140625	-80.9375	-238.4375	291.375
19	01	14	15	49	46	-0.14130281203	-0.257152806515	0.108464404742	-2.13525390625	0.7216796875	1.3134765625	-70.5625	-221.3125	327.1875
19	01	14	15	49	46	-0.200133515388	-0.219664691028	0.100524519623	-1.66357421875	0.72509765625	1.13037109375	-165.25	-179.5625	336.625
19	01	14	15	49	46	-0.25245504482	-0.184946514943	0.0806317974388	-1.46826171875	0.30078125	0.71875	-213.4375	-151.4375	289.3125
19	01	14	15	49	46	-0.29742514408	-0.160278766336	0.0629274212079	-1.0869140625	-0.048828125	0.517578125	-172.9375	-95.0	251.9375
19	01	14	15	49	46	-0.334237295159	-0.152530862053	0.0571304069154	-0.86376953125	-0.14208984375	0.04443359375	-71.5	-22.375	218.0
19	01	14	15	49	46	-0.366152950955	-0.157166835924	0.0570073105837	-0.5771484375	-0.0576171875	-0.38037109375	-15.6875	35.5625	195.3125
19	01	14	15	49	46	-0.392324030082	-0.167842421084	0.0582870953218	-0.2861328125	0.04736328125	-0.68505859375	6.3125	65.8125	163.0
19	01	14	15	49	46	-0.407607347836	-0.188483301904	0.0612814880544	-0.1328125	0.203125	-0.93896484375	22.1875	88.8125	98.8125
19	01	14	15	49	46	-0.415340638586	-0.209226702288	0.061034627272	-0.2646484375	0.1875	-1.08251953125	33.625	108.375	51.5
19	01	14	15	49	47	-0.413822974212	-0.229677854272	0.0592047617973	-0.1982421875	0.228515625	-0.93505859375	34.4375	103.5625	-7.25
19	01	14	15	49	47	-0.401192306667	-0.253056945602	0.0570080046291	-0.25048828125	0.197265625	-0.60546875	55.0625	111.5	-73.375
19	01	14	15	49	47	-0.375240710941	-0.277524318908	0.0521845816289	-0.6591796875	0.115234375	-0.21533203125	65.0625	108.3125	-153.25
19	01	14	15	49	47	-0.344594496047	-0.305227962227	0.0444323048393	-1.20166015625	-0.1201171875	0.099609375	69.8125	125.5625	-177.3125
19	01	14	15	49	47	-0.310181879092	-0.331178055087	0.0432130598971	-2.06005859375	0.14990234375	0.18798828125	104.375	119.625	-190.625
19	01	14	15	49	47	-0.268071042987	-0.354010029446	0.0402228636904	-3.08740234375	0.96826171875	0.6904296875	104.0	102.0625	-235.375
19	01	14	15	49	47	-0.223020185762	-0.375606519754	0.0382076180315	-3.47607421875	1.09716796875	1.59326171875	113.6875	95.875	-246.0
19	01	14	15	49	47	-0.172793639693	-0.39972643813	0.042725378942	-3.09033203125	0.37939453125	1.544921875	161.9375	106.6875	-255.0625
19	01	14	15	49	47	-0.121707030296	-0.425364239787	0.0521252777699	-2.41748046875	0.8203125	1.6171875	192.3125	119.25	-244.625
19	01	14	15	49	47	-0.0758690787546	-0.451857433645	0.0516373617268	-1.7587890625	1.36328125	1.462890625	130.0625	142.3125	-238.9375
19	01	14	15	49	47	-0.0344240798604	-0.475772522185	0.0459598087498	-1.11279296875	0.75537109375	1.2041015625	87.25	144.0625	-237.3125
19	01	14	15	49	47	0.0113528412685	-0.495435551486	0.0485852776867	-0.54931640625	0.68994140625	0.9375	140.0	124.5	-235.75
19	01	14	15	49	47	0.0604867623549	-0.509834435873	0.0584115353921	-0.158203125	1.146484375	0.80810546875	182.0	102.125	-238.0625
19	01	14	15	49	47	0.107851508285	-0.521495917821	0.0712906404511	0.01025390625	1.25244140625	0.8232421875	192.75	96.9375	-222.1875
19	01	14	15	49	47	0.146486316355	-0.529731141519	0.0839854880436	0.30078125	0.90283203125	0.6484375	170.0625	81.25	-173.25
19	01	14	15	49	47	0.171936341962	-0.534790993352	0.0944215552061	0.76611328125	0.53466796875	0.55419921875	123.625	62.9375	-107.625
19	01	14	15	49	47	0.187994622886	-0.528521246614	0.105655419551	1.01953125	0.31005859375	0.6904296875	99.25	47.0625	-54.6875
19	01	14	15	49	47	0.200500825144	-0.526490142372	0.118286331546	0.86083984375	0.14111328125	0.9326171875	100.0625	27.4375	-24.5625
19	01	14	15	49	47	0.205388064919	-0.511791656568	0.128909240152	0.7939453125	0.080078125	0.9150390625	74.5625	0.625	22.5625
19	01	14	15	49	47	0.191958889874	-0.4978113532	0.136232827408	0.7333984375	0.2841796875	0.83642578125	-4.3125	-4.5	88.375
19	01	14	15	49	47	0.160590271066	-0.491109586089	0.136663480394	0.2685546875	0.4228515625	0.84033203125	-91.0625	-22.625	161.1875
19	01	14	15	49	47	0.114872456741	-0.478411432485	0.130925302715	-0.00244140625	0.54248046875	1.06591796875	-160.3125	-59.0625	221.375
19	01	14	15	49	47	0.0623782320107	-0.462709762107	0.123291613172	-0.3427734375	1.27978515625	1.50732421875	-182.75	-84.5625	260.0
19	01	14	15	49	47	-0.000305179320383	-0.439030970303	0.106812762134	-1.4853515625	2.16943359375	1.4072265625	-252.875	-124.1875	294.125
19	01	14	15	49	47	-0.0681759883811	-0.406248324677	0.0725705015086	-2.56884765625	1.9306640625	1.9052734375	-356.9375	-167.5	281.875
19	01	14	15	49	47	-0.124820513389	-0.364695632029	0.0491347253194	-2.935546875	1.57958984375	1.6357421875	-276.375	-214.5	253.125
19	01	14	15	49	47	-0.174497821909	-0.316952497087	0.0371700502072	-2.7529296875	0.99658203125	1.52490234375	-204.3125	-251.1875	243.875
19	01	14	15	49	47	-0.220161778706	-0.268198185649	0.0329601775718	-2.4619140625	1.30224609375	1.15283203125	-155.875	-257.375	241.1875
19	01	14	15	49	47	-0.263014347495	-0.218578412249	0.0247205408994	-2.0087890625	0.95703125	0.76806640625	-173.25	-251.875	224.8125
19	01	14	15	49	47	-0.300717148151	-0.17571842288	0.0161741514634	-1.5693359375	0.794921875	0.486328125	-169.0625	-233.375	201.3125
19	01	14	15	49	47	-0.331363543124	-0.137452698308	0.0054932250656	-1.3876953125	0.44384765625	0.1865234375	-160.3125	-202.9375	164.875
19	01	14	15	49	47	-0.353948418322	-0.115419289368	0.001098650031	-1.27880859375	-0.2265625	-0.2490234375	-79.1875	-127.125	131.375
19	01	14	15	49	47	-0.368348436574	-0.112732321848	0.0169678318753	-1.0986328125	-0.5029296875	-0.900390625	69.6875	-42.8125	97.875
19	01	14	15	49	47	-0.379528069491	-0.121036372113	0.0387584953565	-0.8251953125	-0.3134765625	-1.22265625	126.0	3.25	85.5625
19	01	14	15	49	47	-0.387893476771	-0.146123836883	0.0490131332568	-0.66064453125	-0.015625	-1.20751953125	89.75	55.4375	70.6875
19	01	14	15	49	47	-0.387819089775	-0.176270307093	0.062073027117	-0.400390625	0.37060546875	-0.98583984375	97.0625	89.875	15.375
19	01	14	15	49	47	-0.374951080897	-0.205634086202	0.0718407003444	-0.29638671875	0.501953125	-0.69677734375	117.75	118.8125	-64.875
19	01	14	15	49	47	-0.349927158585	-0.239510582642	0.0782498896399	-0.26025390625	0.34033203125	-0.31689453125	127.875	143.875	-139.0625
19	01	14	15	49	47	-0.315068205518	-0.275089578123	0.0778820283303	-0.2763671875	0.19580078125	0.09765625	113.8125	162.25	-202.625
19	01	14	15	49	47	-0.270329803795	-0.314092835929	0.0742201493372	-0.5888671875	0.16259765625	0.42919921875	121.125	182.0625	-257.5625
19	01	14	15	49	47	-0.226195537425	-0.353514450288	0.0692136371938	-1.59521484375	0.20263671875	0.5078125	114.9375	182.5625	-247.0625
19	01	14	15	49	47	-0.179446868656	-0.382331695668	0.0592052593866	-3.275390625	0.93505859375	0.6025390625	80.5	145.0	-274.0
19	01	14	15	49	47	-0.144713785371	-0.398863174778	0.0434568600523	-3.75390625	0.916015625	1.49853515625	11.375	90.0625	-220.125
19	01	14	15	49	47	-0.099366939766	-0.411689194547	0.045655080433	-3.017578125	0.2587890625	1.349609375	125.5	52.875	-233.75
19	01	14	15	49	47	-0.0534060741756	-0.425295456977	0.0588992703765	-2.22998046875	0.66845703125	1.4384765625	186.125	58.3125	-209.0
19	01	14	15	49	47	-0.0111081920091	-0.44329010199	0.0672594922749	-1.5595703125	1.6533203125	1.4365234375	154.25	95.25	-202.1875
19	01	14	15	49	47	0.0247201929035	-0.463091613726	0.0641504265225	-1.03076171875	0.97998046875	1.3583984375	73.1875	123.4375	-210.6875
19	01	14	15	49	47	0.063477756109	-0.482797164252	0.0652478089236	-0.60888671875	0.75830078125	1.146484375	104.625	130.8125	-212.8125
19	01	14	15	49	47	0.104005726319	-0.500741184698	0.0715954911812	-0.17626953125	0.87255859375	0.916015625	135.8125	130.375	-209.875
19	01	14	15	49	47	0.13916336585	-0.515331709591	0.0781268018805	0.14404296875	1.0673828125	0.83056640625	121.75	116.9375	-184.0625
19	01	14	15	49	48	0.159977026369	-0.529553865235	0.0795917750423	0.353515625	0.76025390625	0.748046875	56.9375	112.375	-124.1875
19	01	14	15	49	48	0.169068451321	-0.53314545931	0.0831914437366	0.66650390625	0.45947265625	0.75	28.4375	95.5625	-63.8125
19	01	14	15	49	48	0.178657886823	-0.529381568983	0.0924113565594	1.11083984375	0.25341796875	0.65185546875	68.1875	60.1875	-27.9375
19	01	14	15	49	48	0.187017083014	-0.518447487964	0.101016081067	1.02734375	0.0908203125	0.7744140625	70.8125	18.25	-6.1875
19	01	14	15	49	48	0.190679893442	-0.504227464701	0.101260545205	0.4326171875	0.076171875	0.99462890625	18.6875	-18.4375	-3.75
19	01	14	15	49	48	0.176517826186	-0.48737719298	0.0992454997853	0.2568359375	0.33056640625	0.95458984375	-52.25	-47.25	65.9375
19	01	14	15	49	48	0.151486499105	-0.474844868265	0.0930769182653	0.30029296875	0.4169921875	0.85107421875	-98.25	-73.125	118.0
19	01	14	15	49	48	0.117796094961	-0.457451674471	0.0835558829021	-0.2646484375	0.58447265625	0.93017578125	-137.3125	-108.3125	154.75
19	01	14	15	49	48	0.0734245558151	-0.433833535107	0.0746452466848	-0.984375	1.33056640625	1.3369140625	-153.75	-149.5	223.1875
19	01	14	15	49	48	0.0231331701983	-0.403396099844	0.0628685100377	-2.2392578125	2.033203125	1.228515625	-180.3125	-183.875	249.5
19	01	14	15	49	48	-0.0324715863104	-0.366770229585	0.040589482888	-2.49951171875	1.93017578125	1.66748046875	-246.75	-212.5625	255.3125
19	01	14	15	49	48	-0.0917979315346	-0.326785987657	0.0188600803485	-3.2578125	1.37841796875	1.35498046875	-251.125	-220.125	277.75
19	01	14	15	49	48	-0.144352899183	-0.282968304699	0.0100100953345	-3.009765625	1.3134765625	1.189453125	-170.4375	-240.75	268.0625
19	01	14	15	49	48	-0.189645274382	-0.237438080897	0.0073856061153	-2.67529296875	1.265625	0.662109375	-125.9375	-250.25	241.0625
19	01	14	15	49	48	-0.234989099191	-0.191714483262	0.00384527616858	-2.09326171875	0.724609375	0.4833984375	-130.75	-244.6875	245.0
19	01	14	15	49	48	-0.281073078123	-0.147586254702	-0.00366218994297	-1.78759765625	0.52978515625	0.30322265625	-151.3125	-225.1875	250.875
19	01	14	15	49	48	-0.319464512955	-0.111452464779	-0.0125734982172	-1.47900390625	-0.0732421875	0.12939453125	-137.25	-201.375	214.5625
19	01	14	15	49	48	-0.352977197143	-0.0889309659758	-0.00769066692721	-1.25537109375	-0.82470703125	-0.08203125	-37.1875	-126.5	199.6875
19	01	14	15	49	48	-0.378114961496	-0.0932622536184	0.016357515687	-0.6826171875	-0.908203125	-0.90087890625	138.0	-35.0	171.3125
19	01	14	15	49	48	-0.388245106194	-0.117370749758	0.0481567974826	-0.17578125	-0.51513671875	-1.43798828125	215.625	63.4375	85.8125
19	01	14	15	49	48	-0.387467643199	-0.146063338087	0.0564599196532	-0.26611328125	-0.20556640625	-1.69384765625	109.0	134.1875	3.3125
19	01	14	15	49	48	-0.37029958461	-0.176513334217	0.0568236217689	-0.0361328125	-0.02978515625	-1.37744140625	78.0625	144.0625	-102.625
19	01	14	15	49	48	-0.33935337273	-0.212889310087	0.057860970746	-0.0380859375	-0.02197265625	-0.75244140625	109.4375	168.125	-181.0
19	01	14	15	49	48	-0.295041492098	-0.246702050281	0.0540766987998	-0.12890625	0.24853515625	-0.1552734375	93.25	158.5625	-263.4375
19	01	14	15	49	48	-0.24592152014	-0.277050826487	0.0393083789948	-0.4560546875	0.23974609375	0.27783203125	38.125	156.8125	-301.4375
19	01	14	15	49	48	-0.214179992771	-0.305125615236	0.0126347274162	-1.7099609375	-0.23388671875	0.08154296875	-51.9375	180.375	-217.5625
19	01	14	15	49	48	-0.18664419856	-0.328855115056	-0.0172728280551	-2.7802734375	0.04052734375	0.36962890625	-81.75	164.875	-197.8125
19	01	14	15	49	48	-0.146794564683	-0.345043523556	-0.0398573183941	-3.7177734375	0.59423828125	0.91845703125	-27.4375	112.875	-253.5625
19	01	14	15	49	48	-0.0983291255748	-0.359563549821	-0.0299076794113	-3.79345703125	0.732421875	1.30859375	161.25	77.1875	-235.5
19	01	14	15	49	48	-0.0541402535589	-0.374587075638	-0.0083010986291	-2.5703125	-0.19287109375	1.12451171875	214.3125	79.1875	-186.9375
19	01	14	15	49	48	-0.00939972878053	-0.393445790385	0.0219733919545	-2.2021484375	0.8037109375	1.373046875	262.375	106.9375	-169.6875
19	01	14	15	49	48	0.0330815064203	-0.411626714572	0.0373540256996	-1.5947265625	1.625	1.111328125	179.1875	110.125	-191.0625
19	01	14	15	49	48	0.0682386497194	-0.430001151407	0.0423592333679	-1.10009765625	0.939453125	0.9892578125	97.8125	116.6875	-189.875
19	01	14	15	49	48	0.104005984953	-0.446236946006	0.0473031915134	-0.5947265625	0.88916015625	0.9521484375	100.625	113.0	-192.875
19	01	14	15	49	48	0.136842770486	-0.463324474023	0.0574959365736	-0.23046875	1.1337890625	0.908203125	118.0625	131.125	-169.625
19	01	14	15	49	48	0.162176172069	-0.478837813278	0.0706812221512	0.0810546875	0.9560546875	0.7763671875	116.5	129.0625	-121.5625
19	01	14	15	49	48	0.178958317179	-0.48957184928	0.0881973971089	0.509765625	0.66162109375	0.81787109375	120.5625	109.4375	-58.375
19	01	14	15	49	48	0.18689529746	-0.498306077225	0.10425119793	1.0859375	0.4921875	1.0986328125	95.9375	79.0	-6.8125
19	01	14	15	49	48	0.186826376755	-0.504571596417	0.114256444719	1.29931640625	0.443359375	1.17236328125	44.0625	55.4375	19.625
19	01	14	15	49	48	0.181950604208	-0.49055250118	0.122561829335	0.8544921875	0.20703125	0.78173828125	29.125	-3.75	51.625
19	01	14	15	49	48	0.163513327654	-0.478821222638	0.12658702559	0.53515625	0.3466796875	0.89306640625	-29.25	-49.6875	113.25
19	01	14	15	49	48	0.130070771811	-0.461381963452	0.124028065847	0.00146484375	0.54248046875	0.91064453125	-103.25	-93.25	175.6875
19	01	14	15	49	48	0.0837409436175	-0.437259562738	0.114563958579	-0.29833984375	0.61181640625	0.99755859375	-169.8125	-135.0625	229.1875
19	01	14	15	49	48	0.0303971589841	-0.4062110302	0.100164132315	-0.4736328125	0.73388671875	1.3671875	-210.375	-167.8125	257.1875
19	01	14	15	49	48	-0.0224618600992	-0.37013239033	0.091678570296	-1.5537109375	2.28759765625	1.6025390625	-170.75	-197.5	279.0
19	01	14	15	49	48	-0.0770267234329	-0.32776030494	0.0654910255495	-3.17919921875	2.564453125	1.458984375	-268.4375	-225.3125	254.625
19	01	14	15	49	48	-0.137759477919	-0.281012244722	0.0411386300919	-3.42578125	1.8486328125	1.63623046875	-270.0625	-236.6875	295.3125
19	01	14	15	49	48	-0.182499553353	-0.22882636305	0.0343636282735	-3.01708984375	1.00732421875	0.99560546875	-152.0625	-279.1875	240.0625
19	01	14	15	49	48	-0.222783634856	-0.178776237396	0.0471202646874	-2.705078125	1.2783203125	0.9580078125	-35.75	-282.0625	245.8125
19	01	14	15	49	48	-0.266672808859	-0.129582598583	0.0466936824851	-2.115234375	0.9033203125	0.6875	-109.625	-254.8125	258.3125
19	01	14	15	49	49	-0.315249340698	-0.0861213590948	0.030884059321	-1.5234375	0.36572265625	0.65380859375	-190.5625	-218.25	283.0
19	01	14	15	49	49	-0.358352347606	-0.0479145959582	0.0111088617381	-1.201171875	-0.2158203125	0.52685546875	-190.625	-177.3125	255.125
19	01	14	15	49	49	-0.395769434951	-0.0269787307601	0.00311293047231	-1.1259765625	-0.501953125	0.15234375	-85.5625	-108.1875	230.1875
19	01	14	15	49	49	-0.425601629452	-0.0226442283847	0.00567631601018	-0.8515625	-0.24951171875	-0.43408203125	3.8125	-40.75	188.25
19	01	14	15	49	49	-0.448259620731	-0.0303356524378	0.00878940432806	-0.55029296875	-0.0556640625	-0.7705078125	32.75	24.25	145.4375
19	01	14	15	49	49	-0.464720371754	-0.0442503637407	0.00518797367994	-0.41357421875	0.0078125	-0.98681640625	14.1875	74.5	106.625
19	01	14	15	49	49	-0.471738095408	-0.0667720890641	-0.00073241779595	-0.40673828125	0.15966796875	-1.10888671875	13.25	95.5	47.3125
19	01	14	15	49	49	-0.466804153562	-0.0887465009517	-0.000183108323834	-0.2958984375	0.24267578125	-1.033203125	58.4375	101.5625	-26.6875
19	01	14	15	49	49	-0.451170902691	-0.114867916513	0.00335692635931	-0.1767578125	0.20263671875	-0.71337890625	90.9375	114.125	-90.75
19	01	14	15	49	49	-0.426645935003	-0.14142183568	0.00634780790276	-0.12939453125	0.08740234375	-0.31591796875	97.4375	117.875	-144.625
19	01	14	15	49	49	-0.391723287692	-0.168334812629	0.00482177309562	-0.1201171875	0.078125	0.0546875	84.6875	129.3125	-208.8125
19	01	14	15	49	49	-0.344728053473	-0.198120974075	0.00457765651744	-0.42431640625	0.2314453125	0.25634765625	107.4375	136.3125	-274.6875
19	01	14	15	49	49	-0.293343858577	-0.228522556494	0.00878932909594	-1.6455078125	0.89697265625	0.2412109375	140.4375	138.1875	-288.0
19	01	14	15	49	49	-0.23345644484	-0.251766754239	-0.0045775773498	-3.00341796875	1.3046875	0.8388671875	46.0625	129.1875	-356.5
19	01	14	15	49	49	-0.178716326658	-0.27375093069	-0.00531021872242	-4.255859375	0.66064453125	1.43994140625	104.625	112.5	-303.4375
19	01	14	15	49	49	-0.121648447534	-0.294385580762	0.0183723947355	-3.05615234375	-0.43701171875	1.6298828125	239.375	85.0625	-274.6875
19	01	14	15	49	49	-0.0660423804203	-0.31879792323	0.0524310580232	-2.2822265625	1.490234375	1.61572265625	296.9375	109.25	-245.0
19	01	14	15	49	49	-0.019775503487	-0.345460955976	0.0543215990846	-1.23876953125	1.7578125	1.3955078125	107.0	143.5625	-252.3125
19	01	14	15	49	49	0.0255734551441	-0.373103893308	0.0585320846855	-0.490234375	1.2158203125	1.234375	106.0	165.3125	-256.125
19	01	14	15	49	49	0.0726953948295	-0.400282451126	0.0694604192409	-0.29638671875	1.03173828125	1.03271484375	149.25	172.0625	-250.625
19	01	14	15	49	49	0.109741822943	-0.422670814171	0.0883183636254	-0.0458984375	1.2958984375	1.0078125	167.4375	160.0	-182.25
19	01	14	15	49	49	0.129823259676	-0.441411290069	0.0978404726191	0.1630859375	0.98876953125	0.85693359375	83.0625	137.0	-111.1875
19	01	14	15	49	49	0.135744432518	-0.445502973448	0.10803401329	0.5224609375	0.60302734375	0.76513671875	44.9375	99.625	-44.875
19	01	14	15	49	49	0.14166753698	-0.44142164043	0.117618846945	0.6455078125	0.16357421875	0.8974609375	65.125	59.0	-14.8125
19	01	14	15	49	49	0.147285631474	-0.429710255109	0.128363731036	0.529296875	0.12646484375	1.17822265625	78.25	24.5625	0.125
19	01	14	15	49	49	0.143557501343	-0.412117452835	0.140261538302	0.59033203125	0.3251953125	0.9306640625	54.5625	-18.5625	45.1875
19	01	14	15	49	49	0.120364881701	-0.399975187518	0.138065599598	0.73486328125	0.48876953125	0.89453125	-66.8125	-47.6875	121.625
19	01	14	15	49	49	0.0800207300311	-0.382585763414	0.128179659089	0.2939453125	0.44775390625	1.005859375	-144.875	-79.4375	201.3125
19	01	14	15	49	49	0.0325319051614	-0.357301637551	0.115296001595	-0.1630859375	0.46923828125	1.1337890625	-173.375	-124.9375	240.125
19	01	14	15	49	49	-0.0210570532475	-0.323485165831	0.10583458067	-0.57861328125	1.3388671875	1.505859375	-175.5	-167.4375	278.1875
19	01	14	15	49	49	-0.0836208379676	-0.281442105014	0.0859402480718	-1.5048828125	2.5419921875	1.53173828125	-236.375	-209.0625	324.9375
19	01	14	15	49	49	-0.149415007356	-0.232728522487	0.051758139803	-2.4287109375	2.97802734375	1.94384765625	-320.6875	-229.75	325.625
19	01	14	15	49	49	-0.202214780163	-0.184697230538	0.0246588503428	-3.02197265625	2.2333984375	1.5634765625	-261.75	-228.5625	267.4375
19	01	14	15	49	49	-0.250072581586	-0.138251012275	0.0192269619721	-2.68017578125	1.32958984375	1.36474609375	-134.3125	-239.875	269.0625
19	01	14	15	49	49	-0.295534896386	-0.096436418069	0.0188600336603	-2.23095703125	1.515625	0.849609375	-97.1875	-218.1875	265.6875
19	01	14	15	49	49	-0.340832105029	-0.0554218394281	0.00878936660534	-1.67138671875	0.8408203125	0.44091796875	-148.4375	-195.0625	265.9375
19	01	14	15	49	49	-0.384579631994	-0.0199583462406	-0.0130614253685	-1.251953125	0.396484375	0.3642578125	-206.125	-162.75	261.25
19	01	14	15	49	49	-0.421031476227	0.00799581377005	-0.0365610110554	-1.0791015625	-0.21044921875	0.29638671875	-187.75	-115.375	224.0
19	01	14	15	49	49	-0.453808347644	0.0157474853654	-0.0501111840505	-1.0615234375	-0.298828125	-0.1376953125	-85.125	-33.5	207.9375
19	01	14	15	49	49	-0.481209025509	0.00744641059261	-0.0532845610439	-0.80224609375	-0.03759765625	-0.78271484375	6.25	27.3125	179.3125
19	01	14	15	49	49	-0.502568203921	-0.0109864314678	-0.0546269786871	-0.59033203125	-0.0390625	-1.1337890625	43.9375	77.75	145.625
19	01	14	15	49	49	-0.517340520663	-0.0327152570877	-0.0601203884914	-0.4052734375	0.046875	-1.08935546875	31.9375	110.3125	106.5
19	01	14	15	49	49	-0.519846222054	-0.0553599299522	-0.0656750657426	-0.37646484375	0.240234375	-0.9716796875	35.3125	117.5625	27.125
19	01	14	15	49	49	-0.510856720682	-0.0789783269489	-0.0695790515624	-0.326171875	0.2470703125	-0.68310546875	51.3125	121.3125	-46.8125
19	01	14	15	49	49	-0.492365477977	-0.105162479057	-0.0733634938055	-0.26171875	0.265625	-0.30126953125	65.25	137.5625	-105.625
19	01	14	15	49	49	-0.464537620694	-0.134887418438	-0.0734861772849	-0.4697265625	0.2470703125	0.05322265625	100.6875	144.6875	-157.875
19	01	14	15	49	49	-0.433720673201	-0.166871984313	-0.0682991040405	-0.9267578125	0.08984375	0.25390625	137.5625	137.625	-165.6875
19	01	14	15	49	49	-0.404045114446	-0.19225711639	-0.0631701953854	-1.3486328125	0.2099609375	0.3525390625	117.5	99.4375	-159.1875
19	01	14	15	49	49	-0.375844239183	-0.209405908515	-0.0588362855753	-2.3125	1.68310546875	0.93310546875	96.125	78.125	-153.5625
19	01	14	15	49	49	-0.33820035785	-0.21777637192	-0.067505792417	-2.88671875	1.44140625	1.541015625	22.75	60.125	-228.375
19	01	14	15	49	50	-0.293093132329	-0.23071471058	-0.0536503255554	-2.92236328125	0.7333984375	1.4423828125	159.0	41.6875	-239.625
19	01	14	15	49	50	-0.245430694987	-0.242378833572	-0.030091353551	-2.2509765625	0.57275390625	1.34912109375	211.4375	21.125	-238.625
19	01	14	15	49	50	-0.200376207341	-0.259701724714	-0.00878896553674	-1.55029296875	1.73974609375	1.51904296875	202.6875	62.125	-219.0625
19	01	14	15	49	50	-0.159121115628	-0.27930119874	-0.00500496029211	-0.919921875	1.3017578125	1.357421875	87.4375	100.5	-230.25
19	01	14	15	49	50	-0.115785074052	-0.297977191104	-0.00268557894481	-0.66943359375	0.8037109375	0.962890625	88.4375	99.8125	-238.5
19	01	14	15	49	50	-0.0665305819432	-0.312754772364	0.0061647603452	-0.359375	0.77001953125	0.705078125	132.1875	78.25	-259.875
19	01	14	15	49	50	-0.0123290596521	-0.327940779755	0.0316161034642	0.021484375	0.87109375	0.60693359375	230.625	84.375	-257.0625
19	01	14	15	49	50	0.0359511037966	-0.341810154942	0.0598778146426	0.35302734375	0.96875	0.53662109375	234.5625	88.9375	-221.3125
19	01	14	15	49	50	0.0734867339745	-0.351015122165	0.0819706675479	0.66796875	0.82080078125	0.4755859375	183.5	70.125	-173.0
19	01	14	15	49	50	0.0974767595497	-0.355726083066	0.0922885788599	0.76611328125	0.44677734375	0.697265625	99.3125	46.0	-117.875
19	01	14	15	49	50	0.114871647039	-0.342478645876	0.101199357487	0.92822265625	0.001953125	0.8720703125	96.5	8.3125	-71.375
19	01	14	15	49	50	0.124271653291	-0.330516209515	0.116397859935	1.158203125	0.2958984375	0.8154296875	104.5625	-37.5	-17.9375
19	01	14	15	49	50	0.112428840674	-0.320013252797	0.115419618737	1.04296875	0.814453125	0.96484375	-23.6875	-58.5	71.75
19	01	14	15	49	50	0.0785548080477	-0.304392251542	0.103580038273	0.53173828125	0.662109375	1.1171875	-128.8125	-69.25	167.875
19	01	14	15	49	50	0.0349127083713	-0.285161142502	0.0884414587939	0.1767578125	0.4873046875	1.07275390625	-160.25	-90.3125	220.375
19	01	14	15	49	50	-0.0139777476931	-0.260388959209	0.0784951245997	-0.0595703125	0.7861328125	1.1142578125	-142.6875	-118.375	258.5
19	01	14	15	49	50	-0.0705584084486	-0.229620010885	0.0752582332328	-0.67626953125	2.52197265625	1.77978515625	-107.25	-152.5625	321.0625
19	01	14	15	49	50	-0.131839246594	-0.198003016643	0.0513928914962	-1.94384765625	2.876953125	1.771484375	-227.4375	-142.625	322.0
19	01	14	15	49	50	-0.188479332815	-0.165163560426	0.0151369412364	-2.84423828125	2.2607421875	1.748046875	-290.5	-136.5	285.5625
19	01	14	15	49	50	-0.243048476031	-0.128482431453	-0.00555434739296	-2.73046875	0.9716796875	1.53076171875	-206.125	-170.8125	294.1875
19	01	14	15	49	50	-0.29322466527	-0.0896032074554	-0.0120244086299	-2.3837890625	1.1806640625	1.49560546875	-127.3125	-199.9375	284.3125
19	01	14	15	49	50	-0.344000116313	-0.0496224440316	-0.0246586314745	-1.9267578125	0.8623046875	1.11865234375	-163.3125	-193.5	292.4375
19	01	14	15	49	50	-0.393441275072	-0.014221504358	-0.0467539585332	-1.4296875	0.56982421875	0.88037109375	-215.375	-172.5	291.375
19	01	14	15	49	50	-0.437807029369	0.0148316057628	-0.0704348685197	-1.111328125	0.232421875	0.66357421875	-204.5625	-128.875	271.0625
19	01	14	15	49	50	-0.475719778873	0.0266119866036	-0.0867941397943	-0.96240234375	0.23291015625	0.21875	-123.125	-52.9375	242.0625
19	01	14	15	49	50	-0.503924747041	0.0215462010302	-0.0986974704416	-0.78076171875	0.4169921875	-0.4375	-55.25	27.5625	189.625
19	01	14	15	49	50	-0.520889363032	0.011047688623	-0.107425038544	-0.7421875	0.35009765625	-0.970703125	-19.0625	51.6875	119.4375
19	01	14	15	49	50	-0.531263434372	-0.00219732118996	-0.120974738847	-0.74462890625	0.05419921875	-1.11474609375	-18.5	39.3125	73.625
19	01	14	15	49	50	-0.535400345748	-0.013183592645	-0.128540028288	-0.5771484375	-0.04638671875	-0.9599609375	10.5625	25.25	31.8125
19	01	14	15	49	50	-0.53204493364	-0.0318604399862	-0.124023781709	-0.4169921875	0.1826171875	-0.8349609375	78.4375	40.1875	-17.0
19	01	14	15	49	50	-0.520495230508	-0.0541368749368	-0.112363006492	-0.349609375	0.26904296875	-0.552734375	127.9375	70.375	-63.0625
19	01	14	15	49	50	-0.500851464908	-0.0773310755592	-0.10253844273	-0.45458984375	0.19140625	-0.1484375	127.0625	84.1875	-112.4375
19	01	14	15	49	50	-0.474063297492	-0.0993048776901	-0.098328308518	-0.5654296875	0.21337890625	0.25634765625	99.5	97.4375	-156.875
19	01	14	15	49	50	-0.440981732581	-0.119141362214	-0.100159311165	-0.8916015625	0.3486328125	0.4775390625	64.8125	102.125	-197.4375
19	01	14	15	49	50	-0.399785022892	-0.139650096546	-0.0991833072061	-1.69580078125	1.0166015625	0.80859375	94.5	114.0625	-238.3125
19	01	14	15	49	50	-0.348996388119	-0.158446069177	-0.103820016822	-2.6171875	0.73779296875	1.484375	69.5625	122.75	-295.0625
19	01	14	15	49	50	-0.298042818763	-0.17645746243	-0.0903345016936	-2.98828125	0.78857421875	1.82763671875	163.25	83.75	-277.5
19	01	14	15	49	50	-0.247019472663	-0.189705095388	-0.0684232342119	-2.43603515625	0.517578125	1.5546875	198.9375	45.625	-268.4375
19	01	14	15	49	50	-0.200624015995	-0.201844727988	-0.0523075088859	-1.595703125	1.43701171875	1.75146484375	159.0625	51.125	-243.5
19	01	14	15	49	50	-0.159486948115	-0.216555565217	-0.0521247048184	-1.11328125	1.34033203125	1.60791015625	66.5	87.5625	-226.3125
19	01	14	15	49	50	-0.119078900264	-0.234861921177	-0.0483395638181	-0.89501953125	0.76513671875	1.4033203125	75.4375	105.625	-221.0
19	01	14	15	49	50	-0.0742210496442	-0.252021968734	-0.0342417835941	-0.6552734375	0.6357421875	1.0322265625	140.1875	95.9375	-230.25
19	01	14	15	49	50	-0.0267337457134	-0.267703672829	-0.00921642831674	-0.318359375	1.07763671875	0.9052734375	197.375	91.3125	-232.25
19	01	14	15	49	50	0.0164794147741	-0.283751108463	0.0165404496437	0.173828125	1.09814453125	0.8193359375	195.5625	105.0	-207.4375
19	01	14	15	49	50	0.0487088047979	-0.300065769908	0.0318621505069	0.47802734375	0.80029296875	0.72021484375	125.1875	113.0625	-162.25
19	01	14	15	49	50	0.0699490876245	-0.315015044703	0.0355238821967	0.8134765625	0.29296875	0.6982421875	49.75	107.8125	-117.375
19	01	14	15	49	50	0.0855736905175	-0.314889207831	0.0352182734869	1.0234375	-0.3134765625	0.93701171875	46.5	93.3125	-73.125
19	01	14	15	49	50	0.0946080127993	-0.306652036325	0.0427872367563	1.16357421875	0.00390625	0.84814453125	62.4375	53.5	-33.9375
19	01	14	15	49	50	0.0937492627505	-0.294980590412	0.0511470587141	1.15283203125	0.3994140625	0.6640625	28.5625	26.3125	5.875
19	01	14	15	49	51	0.0798346110142	-0.28857648385	0.0473026173823	0.6875	0.40771484375	0.7119140625	-63.9375	27.8125	54.375
19	01	14	15	49	51	0.0551780421872	-0.290295098056	0.0280162846946	0.294921875	0.29296875	0.93408203125	-151.6875	16.9375	100.0
19	01	14	15	49	51	0.0201416873636	-0.289185802209	0.00701907286915	-0.0947265625	0.72265625	1.24072265625	-184.0	-0.6875	150.375
19	01	14	15	49	51	-0.0274046234969	-0.280332818979	-0.0178831952886	-1.1103515625	1.64111328125	1.3310546875	-214.625	-53.375	220.5625
19	01	14	15	49	51	-0.0847171022145	-0.260071738138	-0.0543214848493	-2.18505859375	1.69775390625	1.560546875	-296.25	-113.375	254.5625
19	01	14	15	49	51	-0.133482979963	-0.22912442011	-0.0870965763179	-2.74560546875	1.52197265625	1.466796875	-268.4375	-170.0625	210.4375
19	01	14	15	49	51	-0.175051221409	-0.187868779462	-0.100831456683	-2.57080078125	1.23486328125	1.361328125	-161.8125	-238.75	189.8125
19	01	14	15	49	51	-0.214483457834	-0.142459985938	-0.107424839439	-2.30419921875	1.31982421875	1.1611328125	-124.9375	-265.75	185.0
19	01	14	15	49	51	-0.253665835454	-0.0975966484338	-0.11035318347	-1.775390625	0.8154296875	0.81689453125	-106.0	-264.25	191.0
19	01	14	15	49	51	-0.291436903133	-0.0588366857843	-0.10693140404	-1.3095703125	0.6552734375	0.62939453125	-75.25	-258.1875	189.0625
19	01	14	15	49	51	-0.326355822999	-0.0233154898795	-0.10351589224	-1.1455078125	0.4970703125	0.36279296875	-67.375	-236.375	180.75
19	01	14	15	49	51	-0.356874736924	0.004699735718	-0.0976568460883	-1.04833984375	0.07568359375	0.0986328125	-32.0	-196.1875	164.3125
19	01	14	15	49	51	-0.383314483463	0.0197150602163	-0.090335260434	-1.04443359375	-0.26611328125	-0.14404296875	8.875	-127.8125	149.75
19	01	14	15	49	51	-0.405756372397	0.0222775384965	-0.0878894669451	-1.021484375	-0.384765625	-0.44677734375	13.0	-48.5625	134.5625
19	01	14	15	49	51	-0.424862453528	0.0208128281357	-0.0932610011479	-0.82763671875	-0.2783203125	-0.61669921875	-19.8125	-5.125	120.0625
19	01	14	15	49	51	-0.435424735749	0.00567626863256	-0.104125960077	-0.6572265625	-0.0908203125	-0.61181640625	-6.8125	51.375	70.75
19	01	14	15	49	51	-0.434954281817	-0.0173346921185	-0.108585976334	-0.66162109375	0.11865234375	-0.568359375	34.125	116.8125	10.0625
19	01	14	15	49	51	-0.424927835823	-0.0473634014074	-0.113830855187	-0.63720703125	0.21826171875	-0.478515625	48.375	160.9375	-43.4375
19	01	14	15	49	51	-0.40509484878	-0.0800179820327	-0.121705458561	-0.56103515625	0.18115234375	-0.2236328125	45.6875	188.4375	-99.1875
19	01	14	15	49	51	-0.373834937665	-0.114439266632	-0.130430246823	-0.6591796875	0.0634765625	0.03173828125	53.4375	206.0	-163.9375
19	01	14	15	49	51	-0.337583620049	-0.155272596168	-0.131346944557	-1.2138671875	0.66552734375	0.65869140625	99.5625	222.8125	-183.375
19	01	14	15	49	51	-0.290596282752	-0.189946572553	-0.142948223945	-2.8603515625	1.0087890625	0.67041015625	53.75	233.875	-247.5
19	01	14	15	49	51	-0.247499985795	-0.21881318103	-0.143189880808	-3.5595703125	0.70947265625	1.55615234375	98.6875	182.3125	-215.9375
19	01	14	15	49	51	-0.203741658165	-0.243110552567	-0.129459573687	-3.3359375	-0.20703125	1.3798828125	168.5	138.375	-206.3125
19	01	14	15	49	51	-0.164367687109	-0.265075701862	-0.108947761415	-2.3291015625	1.0546875	1.27392578125	194.1875	117.75	-172.4375
19	01	14	15	49	51	-0.136536109426	-0.284119619749	-0.108337771225	-1.3154296875	1.22900390625	1.09619140625	62.75	121.125	-136.5625
19	01	14	15	49	51	-0.107787291496	-0.302732143725	-0.1068717709	-0.8095703125	0.63623046875	0.92333984375	57.1875	119.375	-148.4375
19	01	14	15	49	51	-0.0686655890783	-0.319462838432	-0.0919203352461	-0.3779296875	0.6962890625	0.76611328125	147.4375	108.9375	-182.5625
19	01	14	15	49	51	-0.0230718153355	-0.335273760947	-0.0692154460065	-0.01806640625	0.84033203125	0.69287109375	199.125	111.0	-204.3125
19	01	14	15	49	51	0.021607504723	-0.352312195653	-0.039491682361	0.24267578125	0.86328125	0.6845703125	234.625	125.8125	-185.1875
19	01	14	15	49	51	0.0542601615307	-0.365538928467	-0.0159911837132	0.42529296875	0.6865234375	0.5751953125	179.75	105.1875	-132.3125
19	01	14	15	49	51	0.0756828707166	-0.375118486633	-0.00183103719476	0.63916015625	0.28857421875	0.5146484375	112.875	82.375	-87.625
19	01	14	15	49	51	0.0933242227806	-0.372808602187	0.00769055073273	0.65234375	-0.0078125	0.79736328125	87.6875	64.1875	-69.3125
19	01	14	15	49	51	0.110905213597	-0.373793906478	0.0230721908309	0.70361328125	-0.02294921875	1.00244140625	118.25	38.6875	-60.1875
19	01	14	15	49	51	0.120793557298	-0.370254531868	0.039308262203	0.8271484375	0.306640625	0.9609375	104.9375	12.75	-20.4375
19	01	14	15	49	51	0.10925363482	-0.358950070601	0.0449832004817	0.513671875	0.47314453125	0.9326171875	-12.5625	4.75	56.875
19	01	14	15	49	51	0.0798945918373	-0.354429255003	0.0310056933945	-0.310546875	0.4169921875	0.98876953125	-138.5625	-29.1875	126.625
19	01	14	15	49	51	0.0368047266781	-0.343938034546	0.00683603546924	-0.4833984375	0.27783203125	1.08642578125	-217.3125	-68.375	182.5
19	01	14	15	49	51	-0.0103153883699	-0.325636668362	-0.0126958626091	-0.7529296875	1.24755859375	1.779296875	-194.75	-114.875	217.5625
19	01	14	15	49	51	-0.0682391090974	-0.299934688824	-0.0391856064763	-1.94287109375	2.31396484375	1.5791015625	-253.0625	-152.1875	262.5625
19	01	14	15	49	51	-0.133608474077	-0.263798915012	-0.0800185973117	-3.095703125	2.37841796875	1.6611328125	-349.9375	-198.3125	278.5625
19	01	14	15	49	51	-0.187743656291	-0.215331475746	-0.116882022691	-3.02978515625	1.2275390625	0.97412109375	-321.3125	-260.5625	218.625
19	01	14	15	49	51	-0.232973608504	-0.159303410583	-0.127198585309	-2.66357421875	1.10791015625	1.14697265625	-173.1875	-325.3125	196.8125
19	01	14	15	49	51	-0.276312944566	-0.0988793837414	-0.12897045546	-2.142578125	0.822265625	0.92138671875	-132.875	-355.875	195.875
19	01	14	15	49	51	-0.317079343576	-0.0379030360655	-0.126099311613	-1.5830078125	0.6298828125	0.7919921875	-110.3125	-362.0625	190.9375
19	01	14	15	49	51	-0.350839798924	0.0224005230002	-0.130496779767	-1.4658203125	0.58056640625	0.62353515625	-149.8125	-339.375	159.625
19	01	14	15	49	51	-0.374814834305	0.0767818045197	-0.136656963688	-1.4443359375	-0.0556640625	0.4462890625	-149.0	-296.4375	114.4375
19	01	14	15	49	51	-0.394421714787	0.111758922899	-0.139774949994	-1.2890625	-0.29541015625	0.1416015625	-88.0	-218.75	95.875
19	01	14	15	49	51	-0.409253202353	0.13367106833	-0.14246039885	-1.11328125	-0.32763671875	-0.294921875	-54.6875	-142.25	76.375
19	01	14	15	49	51	-0.419495877541	0.138122969718	-0.157227030488	-0.9267578125	-0.271484375	-0.71142578125	-47.9375	-54.4375	52.5
19	01	14	15	49	51	-0.421568395098	0.127868218869	-0.167907145637	-0.84814453125	0.015625	-1.0419921875	-2.125	28.5625	8.5625
19	01	14	15	49	52	-0.414933695882	0.10669374822	-0.168463812979	-0.7607421875	0.40234375	-1.0986328125	52.3125	76.0	-45.5625
19	01	14	15	49	52	-0.39898760417	0.0847779994174	-0.164245929757	-0.5478515625	0.3837890625	-0.91796875	73.0	115.0	-90.875
19	01	14	15	49	52	-0.377259298617	0.0606080704621	-0.164490181164	-0.33203125	0.20751953125	-0.53173828125	53.9375	145.5	-116.4375
19	01	14	15	49	52	-0.347668858684	0.0347302634464	-0.169683888192	-0.18994140625	0.06591796875	-0.1201171875	29.25	175.0	-155.625
19	01	14	15	49	52	-0.308656403553	-0.000976567620495	-0.174317320258	-0.29931640625	0.11474609375	0.43115234375	47.625	234.875	-199.6875
19	01	14	15	49	52	-0.261546906174	-0.0458393760879	-0.163276073283	-1.30712890625	0.73388671875	0.62255859375	154.375	268.5625	-234.5
19	01	14	15	49	52	-0.209906253142	-0.0892360983116	-0.158818281674	-3.21337890625	0.6640625	1.1923828125	112.5625	275.6875	-255.9375
19	01	14	15	49	52	-0.167541586605	-0.123474182041	-0.153747634484	-3.8896484375	0.7109375	1.69677734375	95.8125	218.375	-206.1875
19	01	14	15	49	52	-0.129701964214	-0.15198018395	-0.135988694715	-2.865234375	-0.4755859375	1.6025390625	156.25	171.125	-176.1875
19	01	14	15	49	52	-0.0967424444524	-0.181765930334	-0.11267290376	-2.12744140625	1.05029296875	1.77685546875	182.0	172.6875	-141.0625
19	01	14	15	49	52	-0.0711677450012	-0.213869449815	-0.111146195238	-1.33251953125	1.25	1.51953125	50.5	198.9375	-117.875
19	01	14	15	49	52	-0.0417500101878	-0.246776741505	-0.102299732565	-0.943359375	0.24462890625	1.28271484375	87.4375	201.125	-134.3125
19	01	14	15	49	52	6.10376998109e-05	-0.273754083652	-0.0722075988763	-0.603515625	0.63134765625	0.978515625	217.875	172.4375	-178.5625
19	01	14	15	49	52	0.041261806205	-0.294509193697	-0.0403462335821	-0.15576171875	1.21875	0.8564453125	219.125	146.375	-179.5625
19	01	14	15	49	52	0.0722679014164	-0.311594287779	-0.0178228270385	0.125	1.04443359375	0.8291015625	154.0625	127.875	-138.875
19	01	14	15	49	52	0.0908841842397	-0.315866792102	-0.00518815020845	0.4384765625	0.42041015625	0.8046875	73.3125	93.8125	-93.4375
19	01	14	15	49	52	0.102175086848	-0.310614705476	0.000915547373186	0.77197265625	0.08642578125	0.88720703125	48.5	53.125	-49.5625
19	01	14	15	49	52	0.111454732516	-0.296581897753	0.0122075282055	0.96728515625	0.091796875	1.04833984375	78.0	20.75	-27.5
19	01	14	15	49	52	0.119445487078	-0.286254131016	0.0284423081137	0.99560546875	0.28466796875	0.98779296875	103.6875	-25.625	-16.0625
19	01	14	15	49	52	0.117068202309	-0.260748363016	0.0376595833288	0.9345703125	0.29931640625	0.92431640625	45.3125	-55.9375	26.625
19	01	14	15	49	52	0.0990022863733	-0.244514894705	0.0377820069452	0.62451171875	0.40625	0.947265625	-22.875	-77.375	103.1875
19	01	14	15	49	52	0.0635396763041	-0.223518054396	0.0288095362301	0.22607421875	0.5986328125	1.09326171875	-98.375	-113.8125	187.6875
19	01	14	15	49	52	0.0151370378636	-0.195133508266	0.0146487463196	-0.1474609375	1.0048828125	1.4208984375	-147.6875	-160.0625	252.5625
19	01	14	15	49	52	-0.0440071717878	-0.159670958942	-0.00708021071759	-1.01318359375	2.01123046875	1.73583984375	-186.3125	-202.9375	312.1875
19	01	14	15	49	52	-0.114075414811	-0.118897222072	-0.0438235140901	-1.900390625	2.50634765625	2.22314453125	-283.0625	-223.875	362.125
19	01	14	15	49	52	-0.169441743939	-0.0754430819555	-0.0717197583315	-3.27783203125	2.568359375	2.1025390625	-225.625	-238.3125	286.9375
19	01	14	15	49	52	-0.218444063347	-0.0244139774627	-0.0825802787675	-3.0537109375	1.36181640625	1.60107421875	-135.1875	-293.3125	257.875
19	01	14	15	49	52	-0.266846810037	0.0318604837236	-0.08813513122	-2.544921875	0.99560546875	1.4814453125	-114.75	-328.8125	259.125
19	01	14	15	49	52	-0.317504978619	0.0891723901889	-0.103027374838	-1.9765625	0.7958984375	1.349609375	-171.375	-322.5	284.6875
19	01	14	15	49	52	-0.365490033213	0.140446320378	-0.128360978598	-1.611328125	0.42724609375	1.06787109375	-221.6875	-272.6875	291.1875
19	01	14	15	49	52	-0.405280610566	0.179019281745	-0.153139917456	-1.32177734375	-0.0771484375	0.7900390625	-199.125	-201.6875	258.375
19	01	14	15	49	52	-0.436970339406	0.193368073088	-0.173286603377	-1.05322265625	-0.2138671875	0.27734375	-120.5625	-93.125	211.125
19	01	14	15	49	52	-0.458089839157	0.188302085783	-0.184212542915	-0.873046875	0.0	-0.36572265625	-26.5625	5.875	144.625
19	01	14	15	49	52	-0.47144683372	0.170719419202	-0.198552116791	-0.66796875	0.15771484375	-0.845703125	2.75	69.0	95.6875
19	01	14	15	49	52	-0.480166890593	0.152283766624	-0.217591834875	-0.5927734375	0.2080078125	-1.1259765625	-13.9375	94.125	78.0625
19	01	14	15	49	52	-0.482050095392	0.135191309356	-0.231808845568	-0.5146484375	0.30224609375	-1.2578125	-15.5	109.5625	43.5625
19	01	14	15	49	52	-0.475169951438	0.111696982804	-0.236333725365	-0.35546875	0.34814453125	-1.08984375	50.5	132.9375	-18.5625
19	01	14	15	49	52	-0.461065560492	0.084229609939	-0.23260800252	-0.26123046875	0.2900390625	-0.7744140625	101.6875	143.75	-68.375
19	01	14	15	49	52	-0.439637161545	0.0595094033745	-0.225952626967	-0.1630859375	0.2314453125	-0.32275390625	106.3125	136.5	-116.625
19	01	14	15	49	52	-0.408581630004	0.0360728627626	-0.222113616909	-0.12255859375	0.11865234375	0.033203125	87.9375	151.0625	-170.0625
19	01	14	15	49	52	-0.36755236977	0.010314903768	-0.218688166869	-0.41162109375	0.08740234375	0.3330078125	89.75	173.5625	-224.375
19	01	14	15	49	52	-0.324155831637	-0.0240477118556	-0.203062785136	-1.3720703125	0.4873046875	0.68017578125	175.8125	201.0	-224.75
19	01	14	15	49	52	-0.26697175464	-0.053101377809	-0.198794468418	-3.48291015625	1.16015625	0.904296875	105.25	210.1875	-301.9375
19	01	14	15	49	52	-0.225707919946	-0.0788573911764	-0.193725510522	-4.5830078125	0.96240234375	2.0576171875	91.0	175.5	-207.5
19	01	14	15	49	52	-0.191777337316	-0.102053376191	-0.172367664093	-3.1279296875	-1.03173828125	1.822265625	172.0	132.3125	-161.9375
19	01	14	15	49	52	-0.16143967344	-0.129945204066	-0.139222644656	-2.349609375	0.95654296875	1.7509765625	238.625	142.6875	-128.3125
19	01	14	15	49	52	-0.136602057662	-0.157354827816	-0.141973362878	-1.40234375	1.56005859375	1.48388671875	28.25	175.125	-117.5625
19	01	14	15	49	52	-0.111878491905	-0.186830367551	-0.149476501187	-0.9677734375	0.4140625	1.13525390625	-10.6875	185.4375	-124.0625
19	01	14	15	49	52	-0.0757475393829	-0.213570217809	-0.13153581577	-0.6484375	0.392578125	0.86767578125	146.0625	163.875	-163.5625
19	01	14	15	49	53	-0.0339354916929	-0.235351179798	-0.10321028139	-0.2724609375	0.9541015625	0.74365234375	201.3125	141.625	-188.5625
19	01	14	15	49	53	0.00238037398902	-0.25408966452	-0.0761719676486	0.01806640625	1.0810546875	0.8212890625	183.5625	130.25	-162.0
19	01	14	15	49	53	0.0294195056832	-0.2694753477	-0.058594866091	0.20166015625	0.66015625	0.79052734375	123.375	112.5	-122.0625
19	01	14	15	49	53	0.0488916877191	-0.274428249669	-0.0416281286198	0.451171875	0.40673828125	0.77294921875	93.375	93.875	-89.625
19	01	14	15	49	53	0.0661644645509	-0.273508270897	-0.0273447233568	0.712890625	0.0654296875	0.88330078125	97.5	77.4375	-69.375
19	01	14	15	49	53	0.0806268145609	-0.27996608508	-0.0125731444357	0.76904296875	-0.099609375	1.1640625	101.3125	69.25	-54.3125
19	01	14	15	49	53	0.0878917014068	-0.275455033645	-0.000976574460075	0.74267578125	-0.03564453125	1.0234375	75.9375	61.125	-16.125
19	01	14	15	49	53	0.0798943410874	-0.273068970225	0.000183103913875	0.55078125	0.2333984375	0.830078125	-21.9375	47.8125	39.25
19	01	14	15	49	53	0.0556640577306	-0.277221655935	-0.0167846665306	0.11474609375	0.37890625	0.8154296875	-139.4375	23.375	103.1875
19	01	14	15	49	53	0.0220948478462	-0.274659710795	-0.0441896956924	-0.09619140625	0.2548828125	0.8017578125	-208.4375	-22.3125	138.5625
19	01	14	15	49	53	-0.0147098329601	-0.263678333559	-0.0773944738317	-0.20068359375	0.40283203125	1.01171875	-247.8125	-70.375	143.375
19	01	14	15	49	53	-0.0570082553454	-0.244634997243	-0.106508999548	-0.65283203125	1.44775390625	1.55078125	-225.9375	-122.4375	180.8125
19	01	14	15	49	53	-0.112673901109	-0.215642953748	-0.145267543142	-1.60009765625	2.3525390625	1.5244140625	-303.875	-177.1875	236.4375
19	01	14	15	49	53	-0.170775316845	-0.175352925409	-0.197691655204	-2.94140625	2.3876953125	1.7392578125	-395.5	-224.6875	228.3125
19	01	14	15	49	53	-0.21258940825	-0.125002327906	-0.229252316218	-3.1884765625	1.29638671875	1.333984375	-272.5625	-283.4375	146.375
19	01	14	15	49	53	-0.25360188528	-0.0678713108138	-0.231140875946	-2.88037109375	1.4814453125	1.49853515625	-115.6875	-357.3125	150.9375
19	01	14	15	49	53	-0.299321153648	-0.009643707642	-0.227725779825	-2.3544921875	1.3173828125	1.0654296875	-97.6875	-375.1875	185.25
