18	12	03	11	41	34	-0.793437493752	0.179683075508	0.0117184614462	-1.50146484375	0.11279296875	2.271484375	-40.6875	-317.0625	73.25
18	12	03	11	41	34	-0.781008384111	0.164050209931	0.0545613421423	-1.23828125	0.08984375	1.7392578125	-93.875	-284.25	73.875
18	12	03	11	41	34	-0.765729250554	0.153988115666	0.0922830086751	-0.9111328125	-0.140625	1.2900390625	-98.875	-238.9375	86.875
18	12	03	11	41	34	-0.748683084108	0.143120716739	0.11669373578	-0.65625	-0.11279296875	0.94287109375	-47.4375	-182.0625	112.625
18	12	03	11	41	34	-0.731072001549	0.13305534842	0.127012926634	-0.52587890625	0.11962890625	0.65771484375	-0.75	-118.25	133.0625
18	12	03	11	41	34	-0.714492030758	0.127311042638	0.126212481388	-0.57373046875	0.3828125	0.314453125	20.25	-54.625	135.9375
18	12	03	11	41	34	-0.700479295639	0.124202785277	0.117733254447	-0.6640625	0.45947265625	-0.109375	40.75	-10.3125	122.3125
18	12	03	11	41	34	-0.686542412152	0.122001802995	0.106133634521	-0.7109375	0.37158203125	-0.46923828125	52.75	5.3125	122.0625
18	12	03	11	41	34	-0.672905315536	0.121824853497	0.0952748478504	-0.5556640625	0.40869140625	-0.626953125	40.625	13.8125	116.5625
18	12	03	11	41	34	-0.663651386304	0.124686387918	0.0771432179776	-0.44384765625	0.52099609375	-0.52490234375	39.75	37.75	80.5625
18	12	03	11	41	34	-0.660295579989	0.126273366762	0.0538294390933	-0.3779296875	0.537109375	-0.37109375	62.625	62.625	39.1875
18	12	03	11	41	34	-0.662638722602	0.128414098955	0.0272818926962	-0.26416015625	0.4912109375	-0.22607421875	76.375	91.4375	-2.5625
18	12	03	11	41	34	-0.670886603668	0.136533236209	0.00445548781548	-0.2451171875	0.3955078125	-0.029296875	63.6875	124.25	-51.125
18	12	03	11	41	34	-0.682820995035	0.156423865774	-0.0162343926242	-0.35888671875	0.2978515625	0.25537109375	13.125	170.25	-94.75
18	12	03	11	41	34	-0.695596854996	0.191766720926	-0.0319204312681	-0.623046875	0.06787109375	0.974609375	-65.8125	220.0625	-129.3125
18	12	03	11	41	34	-0.705521156757	0.24076824943	-0.052730993031	-1.3466796875	0.02734375	1.9306640625	-107.25	298.1875	-140.125
18	12	03	11	41	34	-0.713583088366	0.273178062224	-0.0961860201218	-2.54248046875	-1.00634765625	2.607421875	53.8125	333.9375	-87.75
18	12	03	11	41	34	-0.725742713064	0.262014419913	-0.149652773731	-2.30126953125	-0.6298828125	2.53125	271.3125	202.375	-35.0625
18	12	03	11	41	34	-0.74053332028	0.24743444164	-0.188108768903	-1.92822265625	0.5546875	2.24658203125	238.375	129.1875	-75.6875
18	12	03	11	41	34	-0.750820471354	0.254932296281	-0.197439784168	-1.41748046875	0.05908203125	2.08349609375	35.625	81.5625	-112.1875
18	12	03	11	41	34	-0.762306501246	0.261466857593	-0.204400678356	-1.18603515625	-0.263671875	1.55419921875	34.125	69.25	-125.5
18	12	03	11	41	34	-0.777613320145	0.257739663368	-0.216970045767	-0.79541015625	-0.1796875	1.14990234375	107.125	63.8125	-134.3125
18	12	03	11	41	34	-0.794520256542	0.253406675769	-0.230519512134	-0.26318359375	-0.01904296875	0.8798828125	120.0625	75.8125	-157.9375
18	12	03	11	41	34	-0.811134295124	0.253044604032	-0.240654817583	0.19482421875	0.06396484375	0.74658203125	94.75	80.75	-179.3125
18	12	03	11	41	34	-0.824900353814	0.25602670792	-0.250533882244	0.5791015625	-0.11865234375	0.61962890625	76.1875	95.3125	-171.625
18	12	03	11	41	34	-0.83460710799	0.257614376806	-0.26316825226	0.8671875	-0.3603515625	0.39111328125	81.625	105.3125	-131.3125
18	12	03	11	41	34	-0.844908429981	0.25761040761	-0.264934086575	1.11865234375	-0.45654296875	0.2421875	74.5	91.75	-92.9375
18	12	03	11	41	34	-0.854399739417	0.252859355697	-0.264638707773	1.3076171875	-0.42431640625	0.2001953125	82.8125	73.0625	-61.0
18	12	03	11	41	34	-0.86202971563	0.245291519904	-0.260244598375	1.42724609375	-0.35693359375	0.177734375	68.8125	43.5625	-19.75
18	12	03	11	41	34	-0.866439794912	0.238399115168	-0.249934556225	1.3828125	-0.3095703125	0.27099609375	28.5	8.9375	28.5
18	12	03	11	41	34	-0.868238029955	0.235643682951	-0.232042808231	1.14599609375	-0.37451171875	0.41162109375	-22.0625	-32.25	55.0
18	12	03	11	41	34	-0.868511611517	0.236933385517	-0.203975109325	0.9404296875	-0.36767578125	0.84375	-80.875	-73.0625	62.3125
18	12	03	11	41	34	-0.862621427789	0.247544397277	-0.176686644506	0.89599609375	-0.37255859375	1.17578125	-145.0	-109.0625	68.125
18	12	03	11	41	35	-0.856593377667	0.258107117503	-0.135858700298	0.3759765625	-0.369140625	1.4443359375	-180.3125	-185.25	55.6875
18	12	03	11	41	35	-0.848652997591	0.263598151499	-0.0767174985956	-0.26318359375	-0.53662109375	2.548828125	-204.125	-310.5	57.9375
18	12	03	11	41	35	-0.837153668634	0.265013212978	-0.0091552238477	-0.72509765625	-0.05908203125	3.57666015625	-211.3125	-360.375	54.75
18	12	03	11	41	35	-0.826314500784	0.260363221829	0.067379511697	-1.8974609375	-0.494140625	3.27197265625	-205.5625	-405.5625	-7.3125
18	12	03	11	41	35	-0.809245494846	0.250604268937	0.148861132961	-1.38916015625	-0.55029296875	3.3076171875	-205.0625	-444.625	-4.875
18	12	03	11	41	35	-0.789654263234	0.233576044628	0.220636896088	-1.46533203125	-0.4755859375	3.46826171875	-148.6875	-418.375	-1.9375
18	12	03	11	41	35	-0.769996575301	0.211114311506	0.279959915259	-1.57080078125	-0.3193359375	3.10009765625	-89.375	-375.4375	-1.8125
18	12	03	11	41	35	-0.75035017603	0.187007722414	0.323845618514	-1.5224609375	-0.412109375	2.2421875	-32.3125	-313.6875	21.0625
18	12	03	11	41	35	-0.728114197991	0.160941922892	0.351240336081	-1.20849609375	-0.384765625	1.47509765625	41.8125	-263.75	82.5625
18	12	03	11	41	35	-0.702313659326	0.139461780791	0.361746159627	-0.892578125	-0.17138671875	0.90185546875	87.125	-210.125	148.25
18	12	03	11	41	35	-0.675718615135	0.125426949156	0.361937619704	-0.66357421875	0.1328125	0.501953125	96.0625	-141.0625	187.3125
18	12	03	11	41	35	-0.652096231515	0.118041380733	0.352232062156	-0.6484375	0.29541015625	0.00634765625	107.625	-68.75	191.75
18	12	03	11	41	35	-0.630236826656	0.11334009172	0.333550673802	-0.68603515625	0.28125	-0.46337890625	137.5	-19.6875	195.75
18	12	03	11	41	35	-0.611365676015	0.109431831596	0.308459830946	-0.43310546875	0.38916015625	-0.68115234375	157.9375	17.25	184.25
18	12	03	11	41	35	-0.601373132955	0.107237652959	0.275387757626	-0.21630859375	0.58544921875	-0.64794921875	174.0625	74.25	134.25
18	12	03	11	41	35	-0.603688108944	0.106138269281	0.235347421705	-0.1142578125	0.6298828125	-0.64208984375	190.5	129.25	55.0
18	12	03	11	41	35	-0.617896118981	0.107600835417	0.192131270501	-0.14013671875	0.60009765625	-0.5	185.8125	173.25	-31.625
18	12	03	11	41	35	-0.640054430699	0.117488774587	0.151056995898	-0.16552734375	0.42529296875	-0.29345703125	139.75	217.0	-98.5
18	12	03	11	41	35	-0.666017179416	0.140320151712	0.115539820439	-0.21142578125	0.005859375	-0.115234375	67.6875	260.9375	-144.3125
18	12	03	11	41	35	-0.688321517398	0.180167150147	0.0853230609436	-0.521484375	-0.50341796875	0.2138671875	-20.0	308.75	-143.625
18	12	03	11	41	35	-0.697268516054	0.234192865555	0.0586550283551	-1.59912109375	-0.9189453125	1.09130859375	-108.4375	349.4375	-70.875
18	12	03	11	41	35	-0.710433601504	0.256891325492	0.0180660091104	-3.548828125	0.00439453125	2.0830078125	77.4375	281.375	-68.75
18	12	03	11	41	35	-0.71347007934	0.269397513277	-0.00921590949361	-2.8720703125	-0.65185546875	2.72607421875	54.875	170.3125	-3.1875
18	12	03	11	41	35	-0.721438070504	0.269349086729	-0.0307007909868	-2.3671875	-0.10400390625	2.62109375	92.8125	102.25	-35.625
18	12	03	11	41	35	-0.727092731639	0.27678716847	-0.0380239042904	-1.6748046875	0.10107421875	2.67724609375	6.4375	72.125	-52.5625
18	12	03	11	41	35	-0.737333358048	0.277331576771	-0.0487039168713	-1.0595703125	-0.12451171875	2.34326171875	55.125	64.8125	-74.25
18	12	03	11	41	35	-0.753623066975	0.26847974341	-0.0670131298622	-0.6923828125	0.08544921875	1.78466796875	121.1875	73.0	-105.5
18	12	03	11	41	35	-0.774647489716	0.253170326768	-0.0850207968148	-0.388671875	0.12548828125	1.21630859375	161.0625	56.3125	-140.3125
18	12	03	11	41	35	-0.797396230517	0.237662527488	-0.0984462395579	0.11962890625	0.12939453125	1.01806640625	152.8125	46.5	-169.25
18	12	03	11	41	35	-0.820426547493	0.223996833008	-0.109801172366	0.6357421875	0.1591796875	0.9169921875	141.4375	55.125	-190.625
18	12	03	11	41	35	-0.842863729361	0.208915463114	-0.119746461767	1.04150390625	0.017578125	0.6796875	147.8125	51.5	-195.5625
18	12	03	11	41	35	-0.863001993377	0.188590958949	-0.127619318823	1.33251953125	-0.2998046875	0.4189453125	168.5625	27.5	-171.0625
18	12	03	11	41	35	-0.877460511938	0.168876207591	-0.136590152724	1.4462890625	-0.5205078125	0.23974609375	153.4375	8.0	-128.75
18	12	03	11	41	35	-0.888329725335	0.151116757123	-0.140069853634	1.0537109375	-0.5263671875	0.2255859375	129.6875	-0.1875	-89.5625
18	12	03	11	41	35	-0.896324278517	0.137140177981	-0.12890078144	0.7138671875	-0.5400390625	0.22900390625	91.5	-37.8125	-42.0
18	12	03	11	41	35	-0.89799610007	0.125791474359	-0.111570507098	0.841796875	-0.61572265625	0.2373046875	25.0625	-105.5625	22.5625
18	12	03	11	41	35	-0.893377655453	0.111321276373	-0.0444918917083	0.58642578125	-0.306640625	0.5732421875	-65.125	-202.75	61.75
18	12	03	11	41	35	-0.885819383142	0.112787255067	0.00164786573962	0.36865234375	-0.228515625	0.97119140625	-131.125	-234.0	78.0625
18	12	03	11	41	35	-0.873072786034	0.12053958423	0.0577369350289	0.17041015625	-0.24609375	1.78173828125	-196.6875	-274.4375	92.5
18	12	03	11	41	35	-0.855967016431	0.135673060786	0.120903433836	-0.1376953125	0.103515625	3.17529296875	-252.5625	-292.0	83.375
18	12	03	11	41	35	-0.837941864706	0.159360930057	0.184995396017	-0.79931640625	0.01171875	3.728515625	-306.0	-265.0625	36.375
18	12	03	11	41	35	-0.816398432321	0.170835766452	0.246701739193	-1.2841796875	-0.88134765625	3.4609375	-242.1875	-292.5625	41.6875
18	12	03	11	41	35	-0.793763694404	0.153686811419	0.289978570712	-0.88525390625	-0.5908203125	3.169921875	-38.125	-301.5625	85.0
18	12	03	11	41	35	-0.772085111348	0.127867059943	0.320796786185	-0.72314453125	-0.1025390625	2.34814453125	43.625	-271.1875	91.0625
18	12	03	11	41	35	-0.749910450762	0.110957695083	0.345384816543	-0.7060546875	-0.103515625	1.4912109375	7.25	-235.3125	97.8125
18	12	03	11	41	35	-0.725082975678	0.104123868393	0.369926592221	-0.5478515625	-0.328125	1.04345703125	-34.0625	-202.5	120.3125
18	12	03	11	41	35	-0.700242617388	0.10088913506	0.385795658024	-0.4892578125	-0.33544921875	0.7685546875	-13.0	-153.0625	143.25
18	12	03	11	41	35	-0.676728926104	0.10058164414	0.38853322002	-0.4912109375	-0.1513671875	0.4658203125	31.0625	-87.5625	171.9375
18	12	03	11	41	35	-0.656009605771	0.101379973501	0.378053916835	-0.48828125	0.10986328125	0.04296875	83.0625	-25.0	185.6875
18	12	03	11	41	36	-0.638704973495	0.0998491482692	0.358687924437	-0.5380859375	0.31103515625	-0.39697265625	128.5	9.125	173.25
18	12	03	11	41	36	-0.623831280301	0.0991806898043	0.33861813356	-0.4921875	0.46484375	-0.6123046875	121.3125	23.125	152.75
18	12	03	11	41	36	-0.614923003871	0.104002858422	0.320431341968	-0.39013671875	0.59814453125	-0.576171875	78.4375	55.3125	109.5625
18	12	03	11	41	36	-0.616125069444	0.11040814766	0.295520315626	-0.42041015625	0.63623046875	-0.53369140625	81.6875	95.75	45.1875
18	12	03	11	41	36	-0.626382917491	0.114315035025	0.269033995937	-0.43017578125	0.6611328125	-0.37353515625	97.75	121.5	-17.5625
18	12	03	11	41	36	-0.645068076592	0.116452823364	0.236506651225	-0.291015625	0.62158203125	-0.15478515625	122.8125	154.1875	-73.1875
18	12	03	11	41	36	-0.669387379055	0.121512606829	0.199143965888	-0.24072265625	0.43212890625	0.1298828125	127.5625	196.1875	-113.125
18	12	03	11	41	36	-0.698170032344	0.135556922968	0.158566810388	-0.35205078125	0.3515625	0.5634765625	97.1875	254.4375	-152.6875
18	12	03	11	41	36	-0.729341109635	0.160638142306	0.114314301117	-0.7421875	0.2578125	1.1904296875	57.875	316.8125	-189.0
18	12	03	11	41	36	-0.757409189159	0.205861498391	0.0750085329151	-1.55419921875	0.0673828125	2.6650390625	-41.875	390.375	-207.75
18	12	03	11	41	36	-0.777404288483	0.244079433905	0.00152587793139	-2.595703125	-1.525390625	2.998046875	101.75	506.0	-121.375
18	12	03	11	41	36	-0.795395463958	0.245112659857	-0.068236044253	-2.705078125	-0.88037109375	3.2041015625	252.75	357.0	-94.3125
18	12	03	11	41	36	-0.809189189143	0.24145062847	-0.118955327322	-2.10302734375	0.0390625	2.7685546875	207.3125	253.625	-98.0
18	12	03	11	41	36	-0.815184107434	0.255614783014	-0.142333733044	-1.365234375	-0.240234375	2.25244140625	27.6875	177.875	-99.0625
18	12	03	11	41	36	-0.820226782217	0.267875239761	-0.158625597662	-0.91845703125	-0.36962890625	1.66162109375	9.875	138.6875	-95.0
18	12	03	11	41	36	-0.827252347229	0.273065294489	-0.173641207604	-0.40087890625	-0.1259765625	1.2568359375	41.9375	116.3125	-98.6875
18	12	03	11	41	36	-0.846849322253	0.27801071444	-0.19768972647	0.22021484375	0.17529296875	0.7119140625	59.875	99.75	-141.5625
18	12	03	11	41	36	-0.858069872813	0.276359654605	-0.206110104594	0.3701171875	0.0361328125	0.498046875	73.625	77.6875	-142.125
18	12	03	11	41	36	-0.899575581601	0.182856940259	-0.0975928729886	-0.0087890625	-0.1376953125	2.208984375	-129.5	-161.6875	162.0
18	12	03	11	41	36	-0.863220993055	0.237732147914	0.0227661338054	-2.1875	-0.44140625	4.08740234375	-376.8125	-300.4375	70.875
18	12	03	11	41	36	-0.847992273905	0.250967628494	0.0859344408851	-2.57958984375	-1.35009765625	3.69970703125	-245.9375	-300.8125	24.1875
18	12	03	11	41	36	-0.828515346741	0.180289822046	0.156548203638	-1.82470703125	-0.20361328125	1.9814453125	103.5	-286.4375	74.4375
18	12	03	11	41	36	-0.81007978007	0.169364227356	0.190054127563	-1.47509765625	-0.18701171875	1.4658203125	-45.125	-230.25	112.125
18	12	03	11	41	36	-0.79146699701	0.176444408417	0.218007411576	-1.02197265625	-0.1708984375	1.01513671875	-125.25	-161.0625	96.5625
18	12	03	11	41	36	-0.774460102553	0.182796753656	0.238520772384	-0.7900390625	-0.1005859375	0.71435546875	-97.75	-121.6875	94.5
18	12	03	11	41	36	-0.759762322006	0.183043637829	0.246703029045	-0.57421875	0.10888671875	0.501953125	-26.25	-82.5	106.0
18	12	03	11	41	36	-0.747300375021	0.179256876955	0.243159481712	-0.4326171875	0.33740234375	0.18798828125	35.1875	-40.875	117.75
18	12	03	11	41	36	-0.73580600576	0.173087743226	0.232960478101	-0.3837890625	0.42919921875	-0.21435546875	72.875	-19.125	123.875
18	12	03	11	41	36	-0.724418759171	0.169004595513	0.225461529731	-0.36962890625	0.55859375	-0.4697265625	51.625	-19.375	112.375
18	12	03	11	41	36	-0.714771001593	0.168454270719	0.219600893496	-0.2568359375	0.677734375	-0.47509765625	9.1875	-14.8125	89.6875
18	12	03	11	41	36	-0.70891027941	0.170956323085	0.216365642747	-0.171875	0.64404296875	-0.4091796875	-17.875	0.75	53.5
18	12	03	11	41	36	-0.708043812666	0.172540286045	0.208854920002	-0.18701171875	0.55419921875	-0.287109375	2.5	22.9375	20.875
18	12	03	11	41	36	-0.712207710305	0.170468432161	0.194943133663	-0.17626953125	0.41650390625	-0.16796875	45.6875	43.75	-7.125
18	12	03	11	41	36	-0.720942490431	0.165160038868	0.173094556626	-0.25	0.32275390625	-0.09716796875	93.0	66.4375	-33.0625
18	12	03	11	41	37	-0.732332310766	0.161797896145	0.148736881518	-0.39013671875	0.20556640625	-0.02099609375	106.375	98.8125	-50.125
18	12	03	11	41	37	-0.745748993841	0.167776739837	0.124627174517	-0.49853515625	0.171875	0.3544921875	60.875	138.375	-75.3125
18	12	03	11	41	37	-0.777195899091	0.230705237833	0.0764745140224	-2.2490234375	-0.17041015625	2.646484375	-86.8125	298.9375	-134.0
18	12	03	11	41	37	-0.783605672482	0.257865407449	0.0216057643164	-3.27294921875	-1.630859375	2.80224609375	63.1875	358.5625	-6.625
18	12	03	11	41	37	-0.807592927174	0.239250625342	-0.0722634541849	-2.03076171875	0.40380859375	2.31005859375	131.75	165.375	-60.625
18	12	03	11	41	37	-0.817243423909	0.249262295985	-0.0919169974912	-1.07763671875	-0.05615234375	1.833984375	27.0625	145.9375	-117.1875
18	12	03	11	41	37	-0.830866015302	0.25097488099	-0.11193772659	-0.34375	-0.0537109375	1.50244140625	77.6875	137.4375	-142.4375
18	12	03	11	41	37	-0.849465798972	0.238763486534	-0.136471154369	0.45361328125	0.15869140625	1.35205078125	166.125	136.5625	-167.0625
18	12	03	11	41	37	-0.867386751404	0.221485119677	-0.164786393807	0.994140625	0.203125	1.1162109375	210.1875	128.9375	-170.4375
18	12	03	11	41	37	-0.88389120366	0.195430163936	-0.189387819704	1.35595703125	-0.060546875	0.6982421875	241.0625	87.625	-151.125
18	12	03	11	41	37	-0.896868787588	0.164298793888	-0.203725621842	1.4736328125	-0.2314453125	0.29833984375	229.375	17.4375	-99.1875
18	12	03	11	41	37	-0.906520362426	0.137201762252	-0.20482611838	1.70849609375	-0.39599609375	0.10400390625	166.75	-48.0	-58.4375
18	12	03	11	41	37	-0.912158334001	0.121206105401	-0.197799087414	1.6240234375	-0.54248046875	0.029296875	79.4375	-70.75	-22.875
18	12	03	11	41	37	-0.916194704177	0.117301240436	-0.16997084007	1.236328125	-0.65234375	0.08349609375	2.3125	-81.875	32.5625
18	12	03	11	41	37	-0.913909887714	0.113338497495	-0.15093489731	0.78125	-0.7470703125	0.2529296875	-22.6875	-102.125	85.25
18	12	03	11	41	37	-0.908374577881	0.109068425094	-0.129942180764	0.4580078125	-0.748046875	0.419921875	-32.9375	-118.6875	126.1875
18	12	03	11	41	37	-0.89863215512	0.1095520727	-0.105096751638	0.16796875	-0.55126953125	0.8701171875	-78.0	-132.5625	161.625
18	12	03	11	41	37	-0.884031888896	0.121512426013	-0.0707957881339	-0.2314453125	-0.07177734375	1.97265625	-176.4375	-157.0625	181.375
18	12	03	11	41	37	-0.867170060536	0.144284207707	-0.0196529250769	-1.07373046875	0.61572265625	2.7802734375	-270.875	-216.0	152.9375
18	12	03	11	41	37	-0.841369682863	0.185167243421	0.0559041512769	-1.4892578125	-0.22900390625	3.7724609375	-435.8125	-285.6875	145.0
18	12	03	11	41	37	-0.812167233105	0.211540665059	0.134211749124	-1.52099609375	-0.62939453125	3.8779296875	-379.125	-335.4375	117.5
18	12	03	11	41	37	-0.789702235773	0.20403234981	0.191032382562	-1.36279296875	-0.24609375	3.30029296875	-149.1875	-328.625	82.75
18	12	03	11	41	37	-0.771518596419	0.182610840953	0.2308879717	-1.138671875	0.478515625	2.3447265625	-29.625	-288.5625	67.9375
18	12	03	11	41	37	-0.758259082243	0.154715612805	0.257310068475	-1.0908203125	0.748046875	1.4619140625	43.5625	-240.0	43.25
18	12	03	11	41	37	-0.745160749706	0.128781159954	0.272088346481	-0.84716796875	0.748046875	0.876953125	58.25	-199.8125	58.0625
18	12	03	11	41	37	-0.732929071144	0.109979031243	0.28129486959	-0.77294921875	0.6904296875	0.6416015625	47.4375	-147.625	63.75
18	12	03	11	41	37	-0.723351467189	0.099299091893	0.27501026925	-0.662109375	0.3984375	0.3935546875	51.25	-81.6875	71.5
18	12	03	11	41	37	-0.716150332056	0.0944776473516	0.262559973454	-0.62939453125	0.1689453125	0.07958984375	71.125	-22.875	66.1875
18	12	03	11	41	37	-0.70902067474	0.0888640873221	0.246817561216	-0.7333984375	0.0048828125	-0.33740234375	102.0	16.0	81.375
18	12	03	11	41	37	-0.7011599708	0.0859970751094	0.226131414677	-0.6513671875	-0.07177734375	-0.6123046875	113.5	46.4375	96.3125
18	12	03	11	41	37	-0.693190315527	0.0881898226745	0.201768549316	-0.5224609375	-0.06640625	-0.62890625	106.5	81.875	104.25
18	12	03	11	41	37	-0.690161227733	0.0910002114034	0.170282085725	-0.3896484375	0.140625	-0.3759765625	124.1875	121.75	72.875
18	12	03	11	41	37	-0.71231641707	0.113155225538	0.0876434217216	-0.4365234375	0.392578125	-0.1875	98.375	247.9375	-74.6875
18	12	03	11	41	37	-0.732814583982	0.143731019012	0.0477272428312	-0.5517578125	0.1416015625	-0.14892578125	31.8125	300.0625	-139.6875
18	12	03	11	41	37	-0.752546085545	0.187068430835	0.0132443228356	-0.67578125	0.05322265625	0.162109375	-45.625	331.875	-173.5625
18	12	03	11	41	37	-0.764932338501	0.2459038053	-0.0087277846011	-1.91748046875	-0.11181640625	1.79296875	-164.3125	348.1875	-172.5625
18	12	03	11	41	37	-0.774897134687	0.294065406027	-0.0503536654156	-3.53857421875	0.15478515625	3.3203125	-53.3125	400.6875	-144.625
18	12	03	11	41	37	-0.781444963347	0.302654293442	-0.101373015005	-3.00634765625	-1.23974609375	3.203125	142.0	287.9375	-31.1875
18	12	03	11	41	37	-0.796698735571	0.278240350503	-0.144521419169	-2.61328125	0.43212890625	2.47265625	280.0625	143.4375	-45.125
18	12	03	11	41	37	-0.809553181312	0.264886972776	-0.162350080088	-1.43310546875	0.70751953125	1.94384765625	149.6875	60.6875	-83.5
18	12	03	11	41	37	-0.822656894589	0.257007803481	-0.167656242261	-0.67333984375	0.25048828125	1.3515625	80.0	22.875	-117.8125
18	12	03	11	41	37	-0.836919946126	0.242842883806	-0.173877701926	-0.0029296875	0.16845703125	1.09326171875	117.1875	15.8125	-111.75
18	12	03	11	41	37	-0.851268647152	0.222338090162	-0.184071281891	0.47900390625	0.0986328125	0.81396484375	161.375	23.1875	-99.8125
18	12	03	11	41	37	-0.864364566976	0.199093151919	-0.19475973261	0.822265625	-0.0673828125	0.6787109375	176.625	22.75	-86.5
18	12	03	11	41	37	-0.876012270775	0.173517932545	-0.203729461426	1.12158203125	-0.279296875	0.4404296875	184.125	9.75	-69.75
18	12	03	11	41	37	-0.886542184714	0.148794564666	-0.207323681776	1.3291015625	-0.37451171875	0.18212890625	166.4375	-14.4375	-62.8125
18	12	03	11	41	37	-0.893995989773	0.130364243184	-0.208424106026	1.490234375	-0.4609375	0.01513671875	116.0	-34.625	-50.75
18	12	03	11	41	37	-0.896682910247	0.11815805297	-0.206227304228	1.53662109375	-0.51806640625	0.00732421875	61.125	-39.8125	0.9375
18	12	03	11	41	37	-0.893527045173	0.110775381625	-0.200433252483	1.4140625	-0.57080078125	-0.0126953125	8.4375	-50.625	76.9375
18	12	03	11	41	37	-0.887586436637	0.108880850097	-0.184316237272	1.09619140625	-0.521484375	0.07763671875	-47.3125	-75.9375	120.625
18	12	03	11	41	37	-0.878925475583	0.114496506645	-0.160331728655	0.7021484375	-0.32666015625	0.54296875	-113.9375	-101.375	136.5625
18	12	03	11	41	38	-0.868548177578	0.126092371223	-0.126214435474	0.2431640625	-0.03662109375	1.14453125	-177.5625	-141.5625	134.5625
18	12	03	11	41	38	-0.854339664417	0.14904253897	-0.0764132918881	-0.41259765625	0.22021484375	1.9736328125	-288.3125	-196.0	129.625
18	12	03	11	41	38	-0.834764587752	0.177609486756	-0.00195309401243	-1.2470703125	0.18408203125	3.11083984375	-380.75	-301.625	122.375
18	12	03	11	41	38	-0.809961892874	0.199209978023	0.0801966639467	-1.1494140625	-0.47412109375	4.15380859375	-375.4375	-354.625	108.375
18	12	03	11	41	38	-0.787522071303	0.211055670973	0.157528827872	-1.4345703125	-0.49755859375	4.125	-318.5625	-346.3125	40.25
18	12	03	11	41	38	-0.77215047332	0.197996690811	0.218870571285	-1.61669921875	-0.583984375	3.34130859375	-150.5625	-339.875	-11.875
18	12	03	11	41	38	-0.75554525017	0.170102965686	0.269955298611	-1.23974609375	-0.28662109375	2.71142578125	-48.625	-348.0	2.375
18	12	03	11	41	38	-0.738998284236	0.136166598293	0.31182212043	-1.001953125	-0.142578125	1.95849609375	8.0625	-327.8125	1.125
18	12	03	11	41	38	-0.721282270584	0.104243536822	0.34092763272	-0.69775390625	-0.28076171875	1.384765625	37.375	-289.125	22.5
18	12	03	11	41	38	-0.701354599007	0.078796343862	0.361633104092	-0.5546875	-0.0830078125	0.93115234375	45.0625	-234.125	63.0625
18	12	03	11	41	38	-0.64385533244	0.0598750669375	0.333005469124	-0.77880859375	0.87451171875	-0.78466796875	126.25	49.0	143.5
18	12	03	11	41	38	-0.642845018899	0.0621911206929	0.298016920847	-0.7451171875	1.22998046875	-0.88330078125	160.625	130.625	81.9375
18	12	03	11	41	38	-0.655731958892	0.0702482766832	0.253711630036	-0.43212890625	0.96484375	-0.59326171875	152.0625	212.0	-4.25
18	12	03	11	41	38	-0.677232458942	0.0883160930145	0.205196064074	-0.470703125	0.861328125	-0.31689453125	116.8125	283.625	-66.875
18	12	03	11	41	38	-0.703452138112	0.118645753643	0.153555923954	-0.54931640625	0.42919921875	0.00341796875	75.6875	354.0	-113.875
18	12	03	11	41	38	-0.729285697542	0.158075985993	0.100155479929	-0.91650390625	0.07421875	0.53173828125	40.0625	396.9375	-139.3125
18	12	03	11	41	38	-0.749318744246	0.201108191113	0.0513909247092	-1.5771484375	0.052734375	1.96630859375	5.1875	405.125	-129.5625
18	12	03	11	41	38	-0.763080035909	0.246873449992	-0.00683555658817	-2.83251953125	-0.162109375	2.9951171875	19.875	456.875	-104.8125
18	12	03	11	41	38	-0.772723217302	0.258835728977	-0.0718343911827	-2.669921875	-1.07861328125	3.3671875	185.0625	357.0	-38.625
18	12	03	11	41	38	-0.787128909173	0.246141807451	-0.126397144367	-2.24072265625	0.0751953125	3.0517578125	267.875	229.8125	-67.0625
18	12	03	11	41	38	-0.798390626778	0.244259558777	-0.155088340543	-1.4111328125	0.25390625	2.3857421875	131.9375	147.875	-98.1875
18	12	03	11	41	38	-0.811057108728	0.241260346964	-0.170218848389	-0.79736328125	-0.10107421875	1.63671875	92.9375	84.5625	-122.125
18	12	03	11	41	38	-0.826687563839	0.229116656674	-0.181572203944	-0.232421875	-0.0478515625	1.19873046875	131.0625	43.5625	-130.875
18	12	03	11	41	38	-0.844253465395	0.213001127321	-0.188893549873	0.20556640625	0.1484375	0.8505859375	142.75	17.6875	-148.75
18	12	03	11	41	38	-0.861008440186	0.201046416812	-0.189388898412	0.50634765625	0.146484375	0.69580078125	104.875	-0.6875	-160.1875
18	12	03	11	41	38	-0.876144052022	0.192623519901	-0.185665636102	0.72998046875	0.03173828125	0.5185546875	76.4375	-10.0	-158.75
18	12	03	11	41	38	-0.890404355009	0.183097749333	-0.179618892096	0.8505859375	-0.1796875	0.24462890625	78.3125	-25.5	-150.125
18	12	03	11	41	38	-0.903094153583	0.171195451835	-0.169608613422	0.98095703125	-0.4072265625	0.015625	80.3125	-53.4375	-124.125
18	12	03	11	41	38	-0.914874189957	0.160698048176	-0.145745134464	1.13818359375	-0.44873046875	-0.02197265625	60.375	-72.6875	-87.25
18	12	03	11	41	38	-0.92317955022	0.15136092057	-0.119623953354	1.28857421875	-0.44287109375	-0.00927734375	40.625	-73.875	-46.5
18	12	03	11	41	38	-0.927030151672	0.143549602787	-0.0920377555285	1.29638671875	-0.56787109375	0.04052734375	26.375	-80.6875	11.5
18	12	03	11	41	38	-0.924281354972	0.138056287965	-0.0732394100612	1.1806640625	-0.5224609375	0.23779296875	-9.125	-100.5625	74.75
18	12	03	11	41	38	-0.917841401357	0.135122073449	-0.0502283046291	1.0712890625	-0.33837890625	0.55224609375	-41.4375	-122.4375	115.375
18	12	03	11	41	38	-0.906587068684	0.138057085591	-0.0186151242728	0.90185546875	-0.16650390625	1.2412109375	-102.4375	-161.0625	152.1875
18	12	03	11	41	39	-0.889066011356	0.150018827206	0.0284413236282	0.34619140625	0.5537109375	3.0595703125	-187.5	-242.0	174.1875
18	12	03	11	41	39	-0.614856618808	0.0657946630013	0.435721798855	-0.59326171875	0.40478515625	0.03173828125	95.125	27.125	161.25
18	12	03	11	41	39	-0.605212936328	0.069761838062	0.406181130623	-0.86767578125	0.533203125	-0.52294921875	160.625	78.8125	146.375
18	12	03	11	41	39	-0.657564234786	0.071652163694	0.291369190354	-0.3525390625	0.5986328125	0.24560546875	79.5	190.25	-170.3125
18	12	03	11	41	39	-0.696879044244	0.0838598534587	0.252861261193	-0.3505859375	0.072265625	0.33544921875	76.75	263.75	-217.3125
18	12	03	11	41	39	-0.737899142411	0.106381985544	0.208247466824	-0.41357421875	-0.158203125	0.70556640625	49.375	331.5625	-237.3125
18	12	03	11	41	39	-0.772909894083	0.147453435258	0.166251306971	-0.86279296875	-0.3291015625	1.978515625	-46.375	393.3125	-217.0625
18	12	03	11	41	39	-0.795654782979	0.207031376485	0.0999756470174	-2.18359375	-0.63037109375	2.857421875	-51.6875	549.125	-115.3125
18	12	03	11	41	39	-0.812292620115	0.227593296296	0.0276480995501	-2.85595703125	-1.50146484375	3.12841796875	145.0625	435.4375	-66.0625
18	12	03	11	41	39	-0.825480261706	0.228326924883	-0.0243524306411	-2.333984375	0.2685546875	3.1943359375	170.375	273.9375	-69.0625
18	12	03	11	41	39	-0.832976023629	0.24236135623	-0.0478497364101	-1.259765625	0.326171875	2.56591796875	15.75	178.125	-90.5625
18	12	03	11	41	39	-0.842199167863	0.248039525922	-0.0613385146534	-0.68115234375	0.0361328125	1.91259765625	16.8125	107.5	-110.125
18	12	03	11	41	39	-0.854953839787	0.240287925988	-0.0742164384053	-0.04150390625	0.19873046875	1.48681640625	86.4375	75.0	-116.75
18	12	03	11	41	39	-0.870031199328	0.226983236079	-0.0867895030126	0.45166015625	0.240234375	1.1298828125	119.625	68.625	-135.875
18	12	03	11	41	39	-0.884649720188	0.212206076378	-0.0983215384079	0.6650390625	0.1640625	0.78564453125	127.4375	62.3125	-138.625
18	12	03	11	41	39	-0.897713675394	0.196887913306	-0.106439095104	0.81298828125	0.04345703125	0.4990234375	123.3125	42.6875	-128.8125
18	12	03	11	41	39	-0.90962864454	0.179740764773	-0.109370271807	0.98291015625	-0.12158203125	0.22412109375	122.125	11.3125	-116.4375
18	12	03	11	41	39	-0.920072458859	0.161249183171	-0.105587088148	1.19580078125	-0.4111328125	-0.1328125	117.5	-28.625	-95.875
18	12	03	11	41	39	-0.927352663142	0.143796424534	-0.0968611739112	1.37548828125	-0.6611328125	-0.44970703125	87.4375	-76.0	-61.8125
18	12	03	11	41	39	-0.929903021918	0.134090111522	-0.0828221580955	1.59814453125	-0.73583984375	-0.48974609375	26.625	-95.0	-7.3125
18	12	03	11	41	39	-0.926850940262	0.134090051084	-0.0668924424159	1.568359375	-0.83544921875	-0.25048828125	-38.3125	-92.8125	57.125
18	12	03	11	41	39	-0.92011756629	0.13713877497	-0.0421120403781	0.8642578125	-0.53369140625	0.22314453125	-70.5	-123.375	105.25
18	12	03	11	41	39	-0.909156054227	0.138668270355	-0.000976537115174	0.35302734375	-0.11181640625	0.822265625	-111.75	-225.9375	141.0
18	12	03	11	41	39	-0.891190173275	0.147270366259	0.0604217416479	0.36767578125	-0.0498046875	1.8017578125	-207.125	-320.4375	160.4375
18	12	03	11	41	39	-0.864226889794	0.165033157486	0.133601176678	0.59326171875	-0.21826171875	3.416015625	-281.8125	-367.6875	170.3125
18	12	03	11	41	39	-0.833751182974	0.183168909232	0.202578343799	0.03466796875	-0.27587890625	4.06005859375	-281.6875	-341.125	146.5625
18	12	03	11	41	39	-0.800445423942	0.189690002105	0.270558487559	-0.91015625	-0.70361328125	3.9833984375	-230.125	-368.0625	124.875
18	12	03	11	41	39	-0.605705682504	0.0703726976952	0.428705835742	-0.7470703125	0.2919921875	0.10693359375	145.5625	-36.8125	149.6875
18	12	03	11	41	39	-0.681295462565	0.128959716241	0.213732572776	-0.22900390625	0.62158203125	0.03271484375	72.625	343.625	-187.1875
18	12	03	11	41	39	-0.820426652934	0.279294179722	-0.0991201372092	-2.46240234375	0.60107421875	2.287109375	221.125	51.5625	-82.1875
18	12	03	11	41	40	-0.848562263944	0.253842368967	-0.0864248123243	-0.5283203125	0.1552734375	1.44189453125	93.5625	-62.25	-134.8125
18	12	03	11	41	40	-0.92123697078	0.153193639636	-0.0888034843305	0.349609375	0.11279296875	0.5654296875	137.6875	-3.1875	-179.4375
18	12	03	11	41	40	-0.934425854356	0.135677901648	-0.0914895072292	0.478515625	-0.12109375	0.4404296875	125.5	8.5625	-171.1875
18	12	03	11	41	40	-0.944935417115	0.118895116428	-0.0958851272631	0.5703125	-0.314453125	0.3486328125	124.375	19.5625	-147.6875
18	12	03	11	41	40	-0.952979216928	0.101376871994	-0.099301728317	0.900390625	-0.4755859375	0.22509765625	125.5	15.3125	-114.125
18	12	03	11	41	40	-0.719214215004	0.165704904424	0.161981884472	-0.5576171875	0.23193359375	0.17236328125	42.625	410.625	-199.875
18	12	03	11	41	40	-0.932439770347	0.053463623434	-0.0330790912114	0.56689453125	0.013671875	2.04296875	-127.375	-261.25	250.5625
18	12	03	11	41	40	-0.913745335527	0.0651236572712	0.0293575249742	-0.18115234375	0.1220703125	3.2587890625	-204.3125	-320.9375	253.5
18	12	03	11	41	40	-0.888021229591	0.0947832968766	0.105097770265	-1.33154296875	0.20361328125	3.66748046875	-333.5	-348.3125	232.875
18	12	03	11	41	40	-0.856164809586	0.138360822878	0.191092958284	-1.46337890625	-0.490234375	4.16796875	-443.6875	-361.4375	173.5
18	12	03	11	41	40	-0.827604579939	0.146722817859	0.255849439462	-1.64208984375	-0.75439453125	3.583984375	-215.0625	-342.1875	120.875
18	12	03	11	41	40	-0.691327641851	0.117306588473	0.412037866173	-0.64501953125	0.41064453125	-0.2548828125	47.0625	-32.0	110.875
18	12	03	11	41	40	-0.678749723135	0.117488824479	0.404344655676	-0.72509765625	0.64013671875	-0.6142578125	63.1875	-15.5625	122.375
18	12	03	11	41	40	-0.668190396074	0.118465250163	0.392503876247	-0.80322265625	0.8701171875	-0.7646484375	73.0625	8.0	118.0
18	12	03	11	41	40	-0.672457977627	0.110530168586	0.344529432175	-0.22998046875	1.03125	-0.45947265625	143.625	100.4375	16.0625
18	12	03	11	41	40	-0.691150148547	0.106870709123	0.306574284365	-0.13818359375	0.845703125	-0.2568359375	157.4375	169.25	-49.1875
18	12	03	11	41	40	-0.718243511076	0.110165664301	0.262688653269	-0.1572265625	0.603515625	-0.03515625	138.5	238.4375	-109.125
18	12	03	11	41	40	-0.751059330143	0.124810363249	0.214771475928	-0.236328125	0.44482421875	0.35986328125	90.625	310.875	-162.5625
18	12	03	11	41	40	-0.783796249527	0.15356107801	0.170284343263	-0.654296875	0.2841796875	1.560546875	-3.8125	346.0625	-200.5625
18	12	03	11	41	40	-0.855062222975	0.205983940224	-0.114923780575	-2.85107421875	0.28173828125	2.25	278.4375	250.6875	-72.8125
18	12	03	11	41	40	-0.862933789369	0.213185354429	-0.144219007305	-1.77685546875	0.05322265625	1.9111328125	69.25	189.1875	-123.125
18	12	03	11	41	40	-0.870579566004	0.218133158223	-0.170099919409	-1.01220703125	-0.119140625	1.67529296875	67.5	167.4375	-132.875
18	12	03	11	41	40	-0.880452085417	0.211660046598	-0.197317454052	-0.34619140625	0.01025390625	1.40771484375	133.0625	157.6875	-140.125
18	12	03	11	41	40	-0.891432078448	0.196888941878	-0.222156152646	0.205078125	0.162109375	1.17822265625	172.9375	135.375	-144.75
18	12	03	11	41	40	-0.902128695005	0.17870460855	-0.24150756012	0.68701171875	0.1474609375	0.9521484375	180.125	105.25	-141.6875
18	12	03	11	41	40	-0.911487212078	0.160032105937	-0.251888825783	1.2080078125	-0.072265625	0.638671875	161.125	57.9375	-113.4375
18	12	03	11	41	40	-0.918137926279	0.140256661211	-0.257442383371	1.673828125	-0.42724609375	0.39501953125	142.4375	2.4375	-63.25
18	12	03	11	41	40	-0.924750145013	0.117180588597	-0.25431849619	1.8828125	-0.57080078125	0.1162109375	134.9375	-54.5	-25.25
18	12	03	11	41	40	-0.929885164062	0.101374327744	-0.241504042675	1.89501953125	-0.3642578125	0.1103515625	67.5	-98.9375	9.8125
18	12	03	11	41	40	-0.932922207232	0.099175623888	-0.218796684085	1.43994140625	-0.2041015625	0.27783203125	-31.25	-110.125	41.375
18	12	03	11	41	40	-0.93368177944	0.106441431778	-0.189141053372	0.8876953125	-0.26806640625	0.53271484375	-102.0625	-140.0625	64.75
18	12	03	11	41	40	-0.932765609671	0.117244175632	-0.15288738155	0.52587890625	-0.3603515625	0.82373046875	-135.3125	-174.375	77.0625
18	12	03	11	41	40	-0.930016751507	0.126581883622	-0.112544355544	0.1025390625	-0.3955078125	1.4111328125	-138.8125	-202.375	86.625
18	12	03	11	41	40	-0.924368650086	0.131956752822	-0.0667107913202	-0.466796875	-0.05810546875	2.6171875	-135.1875	-249.625	109.9375
18	12	03	11	41	41	-0.915538629148	0.138176085354	-0.0184926474656	-1.060546875	0.15234375	3.22705078125	-147.0625	-259.25	114.75
18	12	03	11	41	41	-0.902066680826	0.151056497635	0.0482160133865	-1.43017578125	-0.04833984375	3.44287109375	-225.375	-340.6875	101.8125
18	12	03	11	41	41	-0.883121618484	0.16875129752	0.124137482515	-1.31884765625	-0.02197265625	3.576171875	-278.375	-374.0	77.6875
18	12	03	11	41	41	-0.862887655112	0.173029176846	0.197015232048	-1.373046875	-0.32275390625	3.2724609375	-208.5	-386.1875	43.5625
18	12	03	11	41	41	-0.76550890126	0.100586722156	0.371829072435	-0.7861328125	0.24853515625	0.38623046875	21.1875	-142.6875	110.8125
18	12	03	11	41	41	-0.735891800781	0.102659866378	0.378718472576	-0.9267578125	0.3232421875	-0.39404296875	11.9375	-48.5	123.0
18	12	03	11	41	41	-0.722452048742	0.109738006559	0.378162785673	-0.72802734375	0.474609375	-0.44970703125	-1.0625	-19.5	124.125
18	12	03	11	41	41	-0.714288872265	0.117491761011	0.369198785639	-0.603515625	0.552734375	-0.35302734375	20.5625	30.8125	106.375
18	12	03	11	41	41	-0.716301316977	0.119749760047	0.344051680624	-0.38037109375	0.65478515625	-0.27880859375	80.625	93.625	65.9375
18	12	03	11	41	41	-0.728216501541	0.119874043167	0.311037741334	-0.1796875	0.6328125	-0.27001953125	121.75	155.875	-0.6875
18	12	03	11	41	41	-0.747786479865	0.12432591083	0.274530165396	-0.18701171875	0.4970703125	-0.1748046875	101.875	205.9375	-63.4375
18	12	03	11	41	41	-0.77121340108	0.143427626823	0.238272959625	-0.22265625	0.2822265625	0.07666015625	22.8125	267.5	-105.75
18	12	03	11	41	41	-0.810106213028	0.229000113861	0.165829773284	-1.18359375	-0.044921875	2.2939453125	-126.75	379.3125	-98.125
18	12	03	11	41	41	-0.823253915161	0.256149209128	0.102471889951	-2.5888671875	-1.12548828125	3.029296875	61.125	410.625	-10.875
18	12	03	11	41	41	-0.837058852891	0.244983903427	0.0465676926545	-2.4677734375	-0.45849609375	2.9853515625	226.75	253.9375	-6.875
18	12	03	11	41	41	-0.84660140419	0.236323310289	0.00488271302251	-1.8525390625	0.2412109375	2.826171875	168.875	192.625	-19.125
18	12	03	11	41	41	-0.854154425753	0.232474041278	-0.0296619543348	-1.13232421875	-0.2978515625	2.28271484375	122.875	174.25	-35.3125
18	12	03	11	41	41	-0.862537279955	0.22021189542	-0.0665274296031	-0.6708984375	-0.22265625	1.66357421875	165.75	163.3125	-40.0
18	12	03	11	41	41	-0.874110182402	0.202628529924	-0.0999715457879	-0.25830078125	-0.0283203125	1.2294921875	190.625	145.375	-84.1875
18	12	03	11	41	41	-0.887663308179	0.190300755975	-0.125239625164	0.1083984375	0.06494140625	0.97998046875	152.125	131.25	-145.6875
18	12	03	11	41	41	-0.901462053381	0.184625775997	-0.144465855136	0.37158203125	-0.01904296875	0.830078125	111.625	126.0	-189.625
18	12	03	11	41	41	-0.914434490376	0.178639107878	-0.163442272257	0.5703125	-0.2255859375	0.63525390625	118.5	129.75	-202.625
18	12	03	11	41	41	-0.924753868601	0.169424283213	-0.183583661349	0.646484375	-0.5146484375	0.43994140625	138.125	129.625	-178.75
18	12	03	11	41	41	-0.931736147842	0.16131132181	-0.197015870905	0.90771484375	-0.66796875	0.19775390625	111.1875	92.6875	-131.0625
18	12	03	11	41	41	-0.937146747167	0.161307642642	-0.201588779283	1.744140625	-0.45703125	0.1826171875	-27.0	6.25	-49.75
18	12	03	11	41	41	-0.934873142663	0.178149543245	-0.193285235854	1.43359375	-0.228515625	0.4287109375	-108.4375	-23.0	-3.75
