18	12	12	15	52	32	-0.599912141621	-0.467588454264	-0.180968511538	-0.1279296875	1.10888671875	0.6015625	138.125	53.375	-227.3125
18	12	12	15	52	32	-0.559389468054	-0.491579135375	-0.177490951784	0.18017578125	1.21826171875	0.64892578125	218.5625	74.125	-197.1875
18	12	12	15	52	32	-0.522216457401	-0.516601226677	-0.171081431755	0.29248046875	0.86865234375	0.48291015625	218.5625	82.0625	-150.4375
18	12	12	15	52	32	-0.495227011754	-0.53233546913	-0.163326039371	0.39404296875	0.52392578125	0.41015625	165.0625	41.25	-103.5
18	12	12	15	52	32	-0.482464719812	-0.531840299613	-0.152521104973	0.6279296875	0.18212890625	0.50390625	96.75	-11.0	-74.0625
18	12	12	15	52	32	-0.476811773162	-0.519719949882	-0.142335516515	1.0595703125	-0.12060546875	0.8359375	58.0	-38.75	-57.625
18	12	12	15	52	32	-0.474479059918	-0.515921210894	-0.131955714889	1.27734375	-0.197265625	0.78125	42.9375	-60.8125	0.8125
18	12	12	15	52	32	-0.486219070009	-0.50337040803	-0.11194147306	1.345703125	0.02099609375	0.6435546875	18.4375	-107.1875	76.5625
18	12	12	15	52	32	-0.505182140155	-0.485529047352	-0.0887440898617	1.1318359375	0.31787109375	0.72998046875	-7.5625	-136.4375	114.125
18	12	12	15	52	32	-0.528745302273	-0.466489708562	-0.062255593711	0.73828125	0.6640625	0.87548828125	-14.1875	-143.8125	150.75
18	12	12	15	52	32	-0.556515808763	-0.446653069591	-0.0347288325495	0.3525390625	1.009765625	1.078125	-27.6875	-140.0625	184.875
18	12	12	15	52	32	-0.586961603195	-0.428884182765	-0.00860575918171	-0.22705078125	1.8193359375	1.46826171875	-32.5	-127.25	227.25
18	12	12	15	52	32	-0.627373749985	-0.40716123029	0.0173338014394	-1.41650390625	2.5	1.5625	-71.625	-118.4375	299.5
18	12	12	15	52	32	-0.665760938849	-0.384759530483	0.0401604966779	-2.3828125	3.03662109375	1.84033203125	-80.9375	-103.875	293.875
18	12	12	15	52	32	-0.702641764085	-0.357668583872	0.0560917113616	-2.58251953125	2.14697265625	1.4482421875	-120.5	-95.1875	273.8125
18	12	12	15	52	32	-0.739298883433	-0.329703010675	0.0750712149445	-2.12451171875	1.3388671875	1.4453125	-111.8125	-101.1875	298.375
18	12	12	15	52	32	-0.77372315968	-0.301628134033	0.088132542603	-1.705078125	1.40673828125	1.42333984375	-126.375	-73.375	288.75
18	12	12	15	52	32	-0.804654567851	-0.268543696795	0.0889856158925	-1.39794921875	1.10693359375	1.06005859375	-189.6875	-61.6875	251.125
18	12	12	15	52	32	-0.82971777605	-0.231263840919	0.0839239327695	-1.00537109375	0.94580078125	0.7861328125	-222.9375	-57.5625	190.1875
18	12	12	15	52	32	-0.846754786698	-0.196536467467	0.0744030912553	-1.00927734375	0.63427734375	0.427734375	-215.75	-45.1875	118.4375
18	12	12	15	52	32	-0.855805056873	-0.173211720967	0.0664039296732	-0.94482421875	0.09716796875	0.1220703125	-144.1875	-30.8125	60.6875
18	12	12	15	52	32	-0.86059543703	-0.168273873751	0.0559692209756	-0.73193359375	-0.22705078125	-0.16259765625	-44.5	-2.875	50.125
18	12	12	15	52	32	-0.864433155556	-0.176145879188	0.0484614788895	-0.58837890625	-0.2978515625	-0.380859375	27.75	29.375	60.9375
18	12	12	15	52	32	-0.868238390555	-0.190114057822	0.0394265429705	-0.484375	-0.13330078125	-0.5615234375	39.25	60.5625	68.375
18	12	12	15	52	32	-0.871795579157	-0.20372820241	0.0268545263812	-0.38134765625	0.0859375	-0.68505859375	10.875	81.625	60.75
18	12	12	15	52	32	-0.87344152002	-0.214652632654	0.0128779373017	-0.22607421875	0.11767578125	-0.681640625	12.0625	101.5	26.75
18	12	12	15	52	33	-0.86974719056	-0.229491188527	-0.00164794204527	-0.16064453125	0.20263671875	-0.5390625	35.75	105.25	-27.8125
18	12	12	15	52	33	-0.861362017145	-0.242607101123	-0.0190423686919	-0.22998046875	0.32470703125	-0.2470703125	25.9375	103.3125	-88.5
18	12	12	15	52	33	-0.848947391219	-0.249374481705	-0.0429051053937	-0.31103515625	0.7529296875	0.2978515625	-17.875	108.4375	-155.25
18	12	12	15	52	33	-0.823951554993	-0.258354587577	-0.0802589848012	-0.19384765625	1.71240234375	0.7978515625	-32.3125	166.9375	-293.3125
18	12	12	15	52	33	-0.787934365198	-0.275136182673	-0.128962456519	-2.39794921875	0.23486328125	1.607421875	10.875	239.375	-345.625
18	12	12	15	52	33	-0.763039799598	-0.309927699757	-0.164668163439	-3.306640625	-0.7724609375	1.521484375	92.3125	275.375	-139.625
18	12	12	15	52	33	-0.732024705035	-0.373397294097	-0.164116594284	-2.94140625	0.2783203125	1.38818359375	337.9375	219.5625	-48.6875
18	12	12	15	52	33	-0.709280230218	-0.406183627235	-0.164426550229	-2.68408203125	2.16650390625	1.20263671875	191.1875	111.1875	-68.3125
18	12	12	15	52	33	-0.693472977018	-0.40502435095	-0.191281843863	-1.22998046875	1.22216796875	1.45703125	-45.625	97.8125	-171.0625
18	12	12	15	52	33	-0.670712128837	-0.406797373619	-0.221251384752	-1.0908203125	0.22216796875	1.2744140625	-15.9375	120.8125	-198.75
18	12	12	15	52	33	-0.640197880307	-0.421875083295	-0.2402954576	-0.7919921875	0.30419921875	1.1396484375	88.5	133.6875	-188.8125
18	12	12	15	52	33	-0.605984058627	-0.444555129725	-0.247788828485	-0.28515625	1.03564453125	1.03564453125	158.3125	126.625	-176.1875
18	12	12	15	52	33	-0.569135152011	-0.467636840183	-0.256827959213	0.23876953125	1.23193359375	0.87548828125	162.8125	128.1875	-169.25
18	12	12	15	52	33	-0.542361433168	-0.487795698163	-0.261476072439	0.61279296875	0.8095703125	0.74658203125	127.4375	125.5	-113.9375
18	12	12	15	52	33	-0.531659464691	-0.499556046206	-0.259085573139	0.64013671875	0.17724609375	0.5361328125	79.5625	98.25	-36.375
18	12	12	15	52	33	-0.526927278688	-0.503123080994	-0.253789369256	0.775390625	-0.29541015625	0.5908203125	64.0	50.0	1.0
18	12	12	15	52	33	-0.52471576769	-0.501400492215	-0.244261079713	0.8740234375	-0.43994140625	0.68017578125	66.875	12.1875	10.9375
18	12	12	15	52	33	-0.532598899337	-0.494024236905	-0.229494827127	0.94775390625	-0.08154296875	0.53466796875	26.1875	-37.9375	37.75
18	12	12	15	52	33	-0.552785663636	-0.476859267969	-0.216548916262	0.96630859375	0.01318359375	0.44921875	-54.3125	-75.3125	70.5625
18	12	12	15	52	33	-0.577980035767	-0.459820653587	-0.205375165824	0.5703125	-0.0107421875	0.498046875	-86.6875	-101.375	119.375
18	12	12	15	52	33	-0.606904391602	-0.442971849783	-0.187368914141	0.318359375	0.23583984375	0.60791015625	-76.0625	-119.9375	160.3125
18	12	12	15	52	33	-0.638481079799	-0.426630603938	-0.166379832094	0.13330078125	0.45654296875	0.78564453125	-76.5	-119.3125	192.6875
18	12	12	15	52	33	-0.674954789728	-0.409953099069	-0.138359933838	-0.255859375	1.31396484375	1.27392578125	-76.75	-133.625	244.75
18	12	12	15	52	33	-0.717880633433	-0.381095619381	-0.115476122977	-1.18994140625	2.640625	1.50048828125	-155.375	-158.9375	281.4375
18	12	12	15	52	33	-0.760195186215	-0.332642614602	-0.103149728198	-2.10302734375	2.3232421875	2.033203125	-267.125	-188.375	226.6875
18	12	12	15	52	33	-0.793620584365	-0.300590738906	-0.0828226665372	-2.48486328125	1.333984375	1.83984375	-155.125	-159.75	238.375
18	12	12	15	52	33	-0.820061290213	-0.287351038577	-0.0494380503924	-1.9677734375	1.357421875	1.611328125	-20.0	-152.6875	267.375
18	12	12	15	52	33	-0.845923264015	-0.265007129318	-0.0257561051525	-1.99365234375	1.7568359375	1.29638671875	-89.5625	-131.875	248.3125
18	12	12	15	52	33	-0.869826104136	-0.226383062258	-0.0177004820854	-1.60009765625	1.0693359375	1.0693359375	-215.0	-129.25	193.625
18	12	12	15	52	33	-0.889210705534	-0.187009513471	-0.0140989548341	-1.23828125	0.91015625	0.8896484375	-224.125	-109.1875	157.3125
18	12	12	15	52	33	-0.900912441448	-0.155451797871	-0.0142207573238	-1.1181640625	0.7001953125	0.5234375	-183.6875	-79.6875	91.9375
18	12	12	15	52	33	-0.907302195838	-0.136232660687	-0.0146486731921	-0.85595703125	0.34765625	0.2724609375	-111.0625	-50.1875	54.0
18	12	12	15	52	33	-0.910617140429	-0.133235738442	-0.0211175288598	-0.67138671875	-0.0078125	-0.1279296875	-34.8125	-13.5	48.75
18	12	12	15	52	33	-0.91305353984	-0.141352406301	-0.0247183612056	-0.43359375	-0.1064453125	-0.4140625	31.8125	10.75	57.9375
18	12	12	15	52	33	-0.915785853879	-0.155997910198	-0.0281968053644	-0.21923828125	0.0517578125	-0.63916015625	50.4375	38.5625	75.0625
18	12	12	15	52	33	-0.918450639919	-0.169310345238	-0.0314939214645	-0.1064453125	0.1650390625	-0.78662109375	32.6875	39.875	73.125
18	12	12	15	52	33	-0.91982216971	-0.180961630495	-0.0316759144104	0.18408203125	0.158203125	-0.6015625	35.375	37.8125	48.5
18	12	12	15	52	33	-0.917602239958	-0.194885190381	-0.0338745006769	0.1787109375	0.2080078125	-0.5146484375	45.875	45.6875	-1.0625
18	12	12	15	52	33	-0.911480704736	-0.207759496379	-0.0370475952708	-0.0126953125	0.25732421875	-0.2529296875	47.5	29.875	-60.1875
18	12	12	15	52	33	-0.902235477654	-0.212025032089	-0.0462622263452	-0.23974609375	0.3779296875	0.07568359375	13.375	32.1875	-131.125
18	12	12	15	52	33	-0.888292465627	-0.222591907526	-0.0584708109159	-0.6875	0.8857421875	0.89599609375	43.5	53.25	-170.0625
18	12	12	15	52	33	-0.87032784146	-0.23058194846	-0.0833097828607	-1.83203125	1.177734375	1.3369140625	17.1875	112.8125	-221.125
18	12	12	15	52	33	-0.849870761169	-0.263231065919	-0.100458691051	-2.91259765625	0.20947265625	1.990234375	156.75	151.1875	-148.25
18	12	12	15	52	33	-0.826207924431	-0.313528116112	-0.104061794427	-2.96484375	0.5751953125	1.58349609375	277.875	143.125	-90.8125
18	12	12	15	52	33	-0.806305402049	-0.349657380088	-0.103694866254	-2.404296875	1.35302734375	1.39404296875	213.375	87.9375	-74.1875
18	12	12	15	52	33	-0.791623928465	-0.359984420207	-0.118102721787	-1.40380859375	1.607421875	1.4794921875	46.9375	75.3125	-125.125
18	12	12	15	52	33	-0.772675245114	-0.359849387456	-0.144037407462	-1.06982421875	0.65283203125	1.17724609375	-16.625	80.875	-210.9375
18	12	12	15	52	33	-0.745021735128	-0.370771445965	-0.16417698595	-0.7314453125	0.4404296875	0.87939453125	70.1875	89.375	-231.375
18	12	12	15	52	33	-0.712760200028	-0.391108696847	-0.169980917715	-0.322265625	0.90673828125	0.76953125	158.6875	64.75	-215.9375
18	12	12	15	52	33	-0.680661382311	-0.41113119362	-0.171080869317	0.1376953125	1.333984375	0.703125	165.125	55.0	-204.125
18	12	12	15	52	34	-0.650679574926	-0.43205709698	-0.170833142315	0.591796875	1.1279296875	0.73828125	165.375	69.625	-170.25
18	12	12	15	52	34	-0.625731128155	-0.454222693692	-0.169250138351	0.68798828125	0.6591796875	0.662109375	158.6875	84.25	-112.25
18	12	12	15	52	34	-0.605637567276	-0.47472024572	-0.163448292368	0.5712890625	0.1298828125	0.4306640625	153.8125	65.0625	-62.8125
18	12	12	15	52	34	-0.592396362347	-0.488760567657	-0.153134398633	0.5146484375	-0.115234375	0.552734375	129.875	25.625	-22.9375
18	12	12	15	52	34	-0.583049853564	-0.49980061246	-0.138545291279	0.552734375	0.09619140625	0.68408203125	122.8125	2.0625	0.5
18	12	12	15	52	34	-0.583617228094	-0.49938884755	-0.123168747782	0.408203125	0.0654296875	0.69140625	72.375	-11.875	20.875
18	12	12	15	52	34	-0.595579342958	-0.487974671752	-0.111755049903	0.2578125	-0.041015625	0.7294921875	-8.0	-40.6875	62.4375
18	12	12	15	52	34	-0.615599551666	-0.474181332232	-0.100646803559	0.328125	-0.08251953125	0.75146484375	-61.0625	-68.75	116.0625
18	12	12	15	52	34	-0.640132053145	-0.457638266064	-0.084594109998	0.3779296875	-0.0283203125	0.8056640625	-66.875	-89.3125	154.25
18	12	12	15	52	34	-0.665705010723	-0.444393342172	-0.0589594792664	0.23828125	0.591796875	1.0546875	-30.25	-100.8125	196.25
18	12	12	15	52	34	-0.694513757206	-0.429195952252	-0.0324094213091	-0.177734375	1.6845703125	1.32958984375	-53.0	-101.75	223.0625
18	12	12	15	52	34	-0.731426930019	-0.395619939952	-0.0190424901674	-1.11474609375	2.6142578125	1.62939453125	-184.5	-118.5625	234.375
18	12	12	15	52	34	-0.766790405304	-0.353884483798	-0.0143433690398	-1.513671875	2.0869140625	2.03955078125	-242.9375	-111.625	201.5
18	12	12	15	52	34	-0.796230064918	-0.328782106371	-0.00262439773045	-1.771484375	1.685546875	1.6748046875	-136.3125	-75.25	233.0625
18	12	12	15	52	34	-0.820842908235	-0.317009299232	0.013732593825	-1.48779296875	1.9189453125	1.296875	-53.1875	-47.1875	252.875
18	12	12	15	52	34	-0.845198713572	-0.297540708309	0.0196529452463	-1.38916015625	2.17626953125	0.89453125	-117.0625	-22.0625	226.0
18	12	12	15	52	34	-0.869625315153	-0.268065299281	0.0139159581594	-1.12646484375	1.27294921875	0.6103515625	-209.5	-9.8125	202.75
18	12	12	15	52	34	-0.891730993406	-0.238083813926	0.00762893533473	-0.86767578125	1.025390625	0.39697265625	-208.4375	-5.0625	196.75
18	12	12	15	52	34	-0.908981257826	-0.212948070137	-0.00219722858267	-0.84130859375	0.6015625	0.123046875	-180.875	19.0	165.3125
18	12	12	15	52	34	-0.920589492747	-0.202635889141	-0.0123900859927	-0.8076171875	0.0283203125	-0.19189453125	-90.4375	48.5625	145.4375
18	12	12	15	52	34	-0.927178060801	-0.210996942676	-0.0181273045921	-0.72900390625	-0.2392578125	-0.4990234375	24.4375	61.375	141.5625
18	12	12	15	52	34	-0.93080140669	-0.228260262345	-0.021056093719	-0.5166015625	-0.14794921875	-0.6123046875	77.875	65.375	137.625
18	12	12	15	52	34	-0.933632965841	-0.242487008778	-0.0249017617875	-0.42236328125	0.0400390625	-0.7099609375	57.4375	63.6875	122.8125
18	12	12	15	52	34	-0.934306586951	-0.256159181175	-0.0313714127053	-0.341796875	0.13818359375	-0.69580078125	30.625	48.8125	91.875
18	12	12	15	52	34	-0.931084231026	-0.27074989504	-0.0368649541488	-0.20166015625	0.236328125	-0.54296875	42.5625	37.5625	16.25
18	12	12	15	52	34	-0.924058878277	-0.282771782236	-0.0440057101214	-0.2568359375	0.4697265625	-0.43408203125	25.5	17.1875	-79.4375
18	12	12	15	52	34	-0.91604609286	-0.284414337579	-0.0524274497813	-0.38037109375	0.44921875	-0.21337890625	7.0625	3.1875	-153.3125
18	12	12	15	52	34	-0.905333585655	-0.283935268689	-0.0640868512734	-0.556640625	0.4296875	0.1669921875	0.9375	5.6875	-198.5625
18	12	12	15	52	34	-0.890231202269	-0.295034802672	-0.0765967474871	-1.2333984375	0.82177734375	0.62939453125	63.6875	28.75	-189.375
18	12	12	15	52	34	-0.872977459237	-0.305539059004	-0.0885611615292	-2.12255859375	1.14697265625	1.1123046875	73.3125	36.25	-208.875
18	12	12	15	52	34	-0.845789009038	-0.344162521429	-0.0860558884936	-2.5654296875	1.30712890625	1.5947265625	261.1875	33.0625	-177.625
18	12	12	15	52	34	-0.820021570056	-0.371743925515	-0.0849560900207	-2.3720703125	1.6455078125	1.37109375	201.125	14.3125	-180.4375
18	12	12	15	52	34	-0.798444339795	-0.387137474952	-0.0910624487826	-1.4208984375	1.2255859375	1.60888671875	115.9375	19.875	-174.1875
18	12	12	15	52	34	-0.777767803154	-0.396787921863	-0.101745187778	-1.017578125	1.66064453125	1.48779296875	69.5	32.1875	-191.875
18	12	12	15	52	34	-0.757486624765	-0.395374937977	-0.123226613117	-0.8701171875	1.109375	1.2509765625	-4.8125	43.25	-234.0625
18	12	12	15	52	34	-0.735259490397	-0.400984050129	-0.138971184497	-0.607421875	0.65625	0.9853515625	46.25	50.3125	-201.875
18	12	12	15	52	34	-0.70999866044	-0.416062999073	-0.143977206222	-0.41552734375	0.7216796875	0.734375	121.1875	42.5	-170.25
18	12	12	15	52	34	-0.683998819116	-0.434373123552	-0.144465530905	-0.0693359375	0.91943359375	0.66650390625	146.125	44.875	-152.8125
18	12	12	15	52	34	-0.663914630223	-0.447431343461	-0.149957551614	0.2119140625	0.72021484375	0.62109375	91.0	60.4375	-126.3125
18	12	12	15	52	34	-0.655998563495	-0.453425132881	-0.156187227762	0.36083984375	0.2412109375	0.51318359375	30.375	83.0	-69.6875
18	12	12	15	52	34	-0.656343182459	-0.454752934025	-0.16478766902	0.41015625	-0.18701171875	0.42822265625	-9.4375	83.125	-8.125
18	12	12	15	52	34	-0.659643001199	-0.453596112594	-0.1696713123	0.48828125	-0.3603515625	0.5146484375	-5.875	66.625	17.6875
18	12	12	15	52	34	-0.661005929368	-0.454830672729	-0.170897193188	0.63134765625	-0.23046875	0.56982421875	18.0	66.5	7.375
18	12	12	15	52	34	-0.66166469618	-0.457263343214	-0.171870471768	0.6669921875	-0.05029296875	0.48779296875	16.75	67.625	-2.625
18	12	12	15	52	34	-0.667970868864	-0.451783659661	-0.174377994549	0.615234375	0.17138671875	0.46142578125	-42.75	41.0625	-3.375
18	12	12	15	52	34	-0.678012758947	-0.43913059687	-0.182976168091	0.41064453125	0.21875	0.54296875	-105.5	4.6875	10.0
18	12	12	15	52	34	-0.692821711735	-0.423591109104	-0.187197972856	0.07568359375	0.1318359375	0.7333984375	-115.5625	-20.0	47.6875
18	12	12	15	52	34	-0.711178828348	-0.411924640621	-0.179747824364	-0.20654296875	0.55419921875	1.22216796875	-78.125	-44.0625	106.3125
18	12	12	15	52	34	-0.730516805615	-0.404106589521	-0.166500947925	-0.66796875	2.048828125	1.42431640625	-52.875	-60.625	148.0
18	12	12	15	52	34	-0.758389715259	-0.371993023862	-0.162224357248	-1.86083984375	1.8056640625	1.41162109375	-200.375	-107.0625	124.4375
18	12	12	15	52	35	-0.78660477637	-0.346184224982	-0.145016523018	-1.60986328125	1.41943359375	1.71337890625	-140.6875	-134.625	181.3125
18	12	12	15	52	35	-0.814180913886	-0.326282696075	-0.124690525268	-1.64599609375	1.2900390625	1.44775390625	-109.25	-118.0	220.75
18	12	12	15	52	35	-0.839664875156	-0.308045985674	-0.0999760896638	-1.31298828125	1.69775390625	1.4228515625	-87.125	-130.125	231.0
18	12	12	15	52	35	-0.866443855294	-0.27538705798	-0.0863636274472	-1.28564453125	1.88330078125	0.94189453125	-187.0	-112.25	210.0
18	12	12	15	52	35	-0.889440576126	-0.237420149669	-0.0776955913956	-1.2744140625	1.2109375	0.70751953125	-230.5	-120.1875	172.8125
18	12	12	15	52	35	-0.906232120998	-0.209712659466	-0.0688462979853	-1.04931640625	0.85791015625	0.58251953125	-164.5625	-96.8125	151.6875
18	12	12	15	52	35	-0.917248887322	-0.198719966539	-0.062374633232	-1.08544921875	0.54248046875	0.28857421875	-72.0	-51.5	139.3125
18	12	12	15	52	35	-0.924414403607	-0.199213562219	-0.0600570297867	-0.97509765625	0.27490234375	-0.1640625	-12.875	-7.25	125.625
18	12	12	15	52	35	-0.925561832774	-0.211295421369	-0.0680515294126	-0.86328125	-0.17822265625	-0.61376953125	40.8125	14.9375	88.9375
18	12	12	15	52	35	-0.923620359977	-0.228936758757	-0.0727519638599	-0.6201171875	-0.302734375	-0.87451171875	80.75	12.75	60.875
18	12	12	15	52	35	-0.920937389125	-0.245355444647	-0.0776348571122	-0.314453125	-0.02685546875	-0.89990234375	56.6875	27.1875	36.5625
18	12	12	15	52	35	-0.914030694171	-0.264578195729	-0.0876434346174	-0.21728515625	-0.0029296875	-0.8857421875	69.25	53.75	-21.6875
18	12	12	15	52	35	-0.902406213852	-0.28361163775	-0.0979549555818	-0.1767578125	0.1181640625	-0.74365234375	99.75	63.0	-101.0625
18	12	12	15	52	35	-0.885893578511	-0.300831515569	-0.111263106691	-0.1953125	0.23876953125	-0.419921875	100.125	61.25	-175.5625
18	12	12	15	52	35	-0.867398198826	-0.313037247522	-0.127619591454	-0.48193359375	0.3115234375	-0.0693359375	76.9375	59.875	-207.375
18	12	12	15	52	35	-0.850519438401	-0.323972528097	-0.147093781596	-1.17822265625	0.2197265625	0.34033203125	59.375	79.875	-165.6875
18	12	12	15	52	35	-0.835718274884	-0.33659433915	-0.15837938533	-1.66064453125	0.83642578125	0.5791015625	71.625	49.1875	-119.875
18	12	12	15	52	35	-0.819358851223	-0.350386529972	-0.161430477578	-2.20751953125	1.3818359375	1.060546875	108.5625	22.8125	-127.1875
18	12	12	15	52	35	-0.799132654772	-0.375732118138	-0.154296750268	-2.45947265625	1.35888671875	1.3203125	195.0	8.3125	-101.25
18	12	12	15	52	35	-0.781232136682	-0.391348473469	-0.153316806824	-2.501953125	1.93994140625	1.267578125	128.625	11.1875	-113.75
18	12	12	15	52	35	-0.770426540799	-0.392323679336	-0.16411922429	-1.87255859375	0.71875	1.23486328125	13.375	23.3125	-105.25
18	12	12	15	52	35	-0.756090602771	-0.40074999175	-0.171566894123	-1.37939453125	0.9912109375	1.06103515625	58.625	36.6875	-106.8125
18	12	12	15	52	35	-0.738674610109	-0.405621040964	-0.180899904516	-1.1318359375	1.1328125	0.720703125	47.0	24.4375	-152.5625
18	12	12	15	52	35	-0.717271456809	-0.411735300173	-0.187801588887	-0.92333984375	0.9052734375	0.68115234375	74.5625	15.4375	-173.375
18	12	12	15	52	35	-0.692808037743	-0.421202384677	-0.18725531317	-0.59521484375	0.85498046875	0.580078125	120.0625	-4.0625	-171.4375
18	12	12	15	52	35	-0.668335416561	-0.431274708075	-0.183288699172	-0.318359375	0.978515625	0.52001953125	130.4375	-9.5	-159.75
18	12	12	15	52	35	-0.644475681623	-0.440067209442	-0.179200738824	0.06103515625	0.7490234375	0.49951171875	124.875	-6.625	-151.75
18	12	12	15	52	35	-0.621943032618	-0.448909814024	-0.174070807559	0.279296875	0.29296875	0.439453125	126.1875	-3.6875	-128.875
18	12	12	15	52	35	-0.600566552859	-0.458054062928	-0.164057204683	0.4580078125	-0.05126953125	0.3515625	142.625	-16.6875	-103.125
18	12	12	15	52	35	-0.577754244494	-0.465511475043	-0.150328407373	0.6875	-0.1240234375	0.37451171875	156.625	-37.1875	-106.9375
18	12	12	15	52	35	-0.552670337008	-0.469968149637	-0.136595937518	0.94677734375	-0.10595703125	0.47216796875	155.5625	-48.9375	-127.375
18	12	12	15	52	35	-0.531183132329	-0.469843473822	-0.125547937861	1.328125	0.05029296875	0.58203125	118.25	-50.5625	-121.8125
18	12	12	15	52	35	-0.519235541752	-0.463692536815	-0.128481346584	1.34521484375	0.26953125	0.7236328125	10.875	-40.75	-98.125
18	12	12	15	52	35	-0.522215106323	-0.443541044606	-0.131835510713	0.68408203125	0.48193359375	0.79931640625	-76.875	-31.6875	-81.0625
18	12	12	15	52	35	-0.533023786357	-0.430117785693	-0.142212919067	-0.244140625	0.345703125	0.91943359375	-111.0	-17.75	9.25
18	12	12	15	52	35	-0.558599229153	-0.416202812893	-0.142945738055	-1.01513671875	0.30810546875	0.98681640625	-116.875	-45.4375	127.4375
18	12	12	15	52	35	-0.587187749764	-0.408364331532	-0.122490989895	-1.353515625	1.4443359375	1.75732421875	-23.3125	-84.6875	205.6875
18	12	12	15	52	35	-0.622068761012	-0.393858880966	-0.102477771756	-1.30419921875	2.21484375	1.7021484375	-65.0	-104.0625	239.125
18	12	12	15	52	35	-0.66612210052	-0.370840927502	-0.0889261407785	-2.0927734375	2.69384765625	1.947265625	-146.3125	-99.8125	285.6875
18	12	12	15	52	35	-0.710665496989	-0.334703674466	-0.0849576066479	-2.33056640625	1.31689453125	1.2314453125	-232.6875	-111.3125	261.0625
18	12	12	15	52	35	-0.755119570339	-0.304135210071	-0.0710442272773	-1.74169921875	0.91796875	1.35791015625	-182.1875	-129.5	322.0
18	12	12	15	52	35	-0.79379742542	-0.277151630696	-0.0538312570522	-1.7197265625	1.3525390625	1.09912109375	-142.9375	-113.75	310.6875
18	12	12	15	52	35	-0.825010641133	-0.246825703392	-0.0431517735652	-1.69482421875	1.2314453125	0.68017578125	-164.75	-101.0625	250.5625
18	12	12	15	52	35	-0.84928714945	-0.219111812183	-0.0379631050634	-1.3564453125	0.77880859375	0.52880859375	-166.0	-90.625	206.4375
18	12	12	15	52	35	-0.867557469649	-0.198792365179	-0.0350343314745	-1.125	0.55126953125	0.18896484375	-126.375	-60.875	171.9375
18	12	12	15	52	35	-0.879763973686	-0.187622759478	-0.0333253177212	-1.001953125	0.14599609375	-0.17236328125	-71.625	-34.875	130.625
18	12	12	15	52	35	-0.888250232698	-0.189332249147	-0.0295412019945	-0.748046875	-0.3251953125	-0.37451171875	8.9375	-10.4375	121.8125
18	12	12	15	52	35	-0.894955750574	-0.202025747419	-0.0245970925105	-0.41650390625	-0.35986328125	-0.466796875	68.5625	18.25	131.3125
18	12	12	15	52	35	-0.900689727653	-0.219297837735	-0.0233763072231	-0.27294921875	-0.197265625	-0.63818359375	80.625	51.875	135.75
18	12	12	15	52	35	-0.904268105407	-0.235832340665	-0.0260611825735	-0.244140625	-0.078125	-0.7900390625	68.5	66.4375	108.125
18	12	12	15	52	36	-0.90158968335	-0.256585636935	-0.0314933845524	-0.12646484375	0.1435546875	-0.763671875	67.625	61.875	33.9375
18	12	12	15	52	36	-0.893185254006	-0.276122050644	-0.0384520097051	-0.09326171875	0.412109375	-0.67333984375	55.1875	50.5625	-58.3125
18	12	12	15	52	36	-0.884009131876	-0.281303375367	-0.0496202308903	-0.2490234375	0.3984375	-0.4755859375	12.5625	36.625	-123.1875
18	12	12	15	52	36	-0.874370324818	-0.27562867422	-0.0643906668074	-0.35595703125	0.3798828125	-0.14892578125	-44.6875	20.875	-167.8125
18	12	12	15	52	36	-0.862780162237	-0.272090687836	-0.0814196898999	-0.62109375	0.28857421875	0.2744140625	-31.5	36.3125	-172.5625
18	12	12	15	52	36	-0.848384345192	-0.287168945621	-0.096435055065	-1.54931640625	0.6123046875	0.65087890625	64.125	75.0	-123.3125
18	12	12	15	52	36	-0.830668402907	-0.304252901432	-0.103818291943	-2.50390625	1.32470703125	1.16552734375	105.375	54.6875	-146.0625
18	12	12	15	52	36	-0.802815794954	-0.346906262621	-0.0953931190143	-2.88525390625	1.3115234375	1.55615234375	286.25	51.3125	-132.0
18	12	12	15	52	36	-0.77683171	-0.380359460773	-0.0904513351839	-2.455078125	0.99365234375	1.40087890625	229.1875	46.5	-126.5625
18	12	12	15	52	36	-0.757806184868	-0.403011778244	-0.0886223083463	-1.76171875	1.126953125	1.494140625	153.5	40.125	-90.9375
18	12	12	15	52	36	-0.7405065545	-0.413250628906	-0.098567385273	-1.25341796875	1.5673828125	1.31005859375	57.5	45.6875	-138.8125
18	12	12	15	52	36	-0.72324642421	-0.409290339304	-0.121639672865	-0.9228515625	1.13232421875	1.1142578125	-36.0625	45.1875	-206.8125
18	12	12	15	52	36	-0.697917227723	-0.411304258647	-0.14202478259	-0.75537109375	0.85791015625	0.90185546875	19.8125	49.8125	-237.8125
18	12	12	15	52	36	-0.666253285189	-0.424434348223	-0.148985367272	-0.54541015625	0.76171875	0.7373046875	122.75	38.8125	-218.5
18	12	12	15	52	36	-0.632317139139	-0.446955444973	-0.142027218415	-0.09814453125	0.99169921875	0.6171875	205.75	33.625	-174.75
18	12	12	15	52	36	-0.601429310195	-0.466849278839	-0.134030725105	0.22607421875	1.0146484375	0.5244140625	188.4375	30.5625	-150.9375
18	12	12	15	52	36	-0.578313461296	-0.477970735135	-0.131043694079	0.3837890625	0.611328125	0.4921875	119.5	21.375	-125.5
18	12	12	15	52	36	-0.561338437454	-0.482237141929	-0.131408247889	0.59375	0.087890625	0.51123046875	70.6875	10.0625	-104.1875
18	12	12	15	52	36	-0.548756104016	-0.478933283084	-0.12664541384	0.85986328125	-0.15283203125	0.7158203125	76.25	11.4375	-93.0
18	12	12	15	52	36	-0.533192525232	-0.486806728623	-0.120175833583	0.82861328125	0.0322265625	0.72509765625	102.375	16.3125	-66.875
18	12	12	15	52	36	-0.530276031249	-0.484743581973	-0.106873081344	0.77392578125	0.267578125	0.7099609375	66.75	1.875	-26.875
18	12	12	15	52	36	-0.541818433503	-0.473091661381	-0.0980241527774	0.5830078125	0.25439453125	0.7353515625	-22.625	-21.4375	32.875
18	12	12	15	52	36	-0.562540293034	-0.460493274486	-0.0929531155788	0.3447265625	0.26611328125	0.86474609375	-76.75	-42.8125	105.4375
18	12	12	15	52	36	-0.589641123809	-0.445053625382	-0.0858125887668	0.12060546875	0.296875	0.83203125	-97.1875	-55.25	150.0625
18	12	12	15	52	36	-0.620670760642	-0.428347664292	-0.0735478676933	-0.0615234375	0.7626953125	1.255859375	-95.375	-66.875	187.4375
18	12	12	15	52	36	-0.650324044431	-0.414303107799	-0.0586542850022	-0.5146484375	2.13671875	1.46142578125	-75.1875	-72.4375	207.5
18	12	12	15	52	36	-0.69501124545	-0.378847352288	-0.0546267730463	-1.6337890625	2.58935546875	1.60693359375	-232.375	-98.8125	255.0625
18	12	12	15	52	36	-0.73711182297	-0.339656147622	-0.052550573783	-2.06884765625	2.40478515625	1.68115234375	-249.3125	-100.25	246.4375
18	12	12	15	52	36	-0.772666737244	-0.306503345532	-0.0416239111217	-2.04345703125	1.771484375	1.37890625	-181.375	-113.9375	246.125
18	12	12	15	52	36	-0.803493868365	-0.278674743863	-0.0216665646236	-1.74560546875	1.88623046875	1.2216796875	-120.875	-133.6875	253.9375
18	12	12	15	52	36	-0.833164426081	-0.244499061672	-0.00494369046316	-1.62353515625	1.6728515625	0.8017578125	-158.3125	-136.6875	248.3125
18	12	12	15	52	36	-0.857963996869	-0.209837107579	0.00927726595462	-1.27197265625	1.025390625	0.59521484375	-172.5	-147.9375	224.875
18	12	12	15	52	36	-0.877773492537	-0.180901170343	0.0236807200045	-1.02587890625	0.72314453125	0.4169921875	-134.9375	-132.4375	203.9375
18	12	12	15	52	36	-0.892608420639	-0.161005197514	0.0347888410095	-1.03955078125	0.45263671875	0.1787109375	-90.4375	-96.9375	174.4375
18	12	12	15	52	36	-0.904055447198	-0.149841758228	0.0408936773982	-0.95556640625	0.1689453125	-0.0859375	-51.375	-51.875	150.125
18	12	12	15	52	36	-0.913120202159	-0.146419047188	0.043638857332	-0.8037109375	-0.1318359375	-0.3291015625	-13.75	-15.6875	132.6875
18	12	12	15	52	36	-0.920508961699	-0.150264756909	0.0446155716087	-0.6240234375	-0.22705078125	-0.44970703125	22.5	11.5625	124.4375
18	12	12	15	52	36	-0.926483311963	-0.158197941015	0.0421739109727	-0.59033203125	-0.11376953125	-0.560546875	35.375	37.0625	111.75
18	12	12	15	52	36	-0.929907609948	-0.171077121993	0.0324088304596	-0.5849609375	0.05419921875	-0.6298828125	32.625	51.3125	86.8125
18	12	12	15	52	36	-0.929193050353	-0.187864963806	0.0223387188931	-0.41552734375	0.18896484375	-0.55126953125	47.4375	61.8125	29.5625
18	12	12	15	52	36	-0.92343572005	-0.204584040556	0.0119015178724	-0.33642578125	0.40966796875	-0.4716796875	37.0	53.1875	-55.25
18	12	12	15	52	36	-0.915155117266	-0.208738862282	0.000427243285372	-0.375	0.41650390625	-0.296875	0.1875	37.6875	-135.5625
18	12	12	15	52	36	-0.903352642523	-0.207818103357	-0.0139766066575	-0.34521484375	0.32861328125	-0.0224609375	-24.625	32.4375	-197.25
18	12	12	15	52	36	-0.889341192719	-0.211425289382	-0.0318602774414	-0.65087890625	0.15234375	0.3701171875	-1.4375	57.75	-199.25
18	12	12	15	52	36	-0.871621355326	-0.233758825776	-0.0465076306112	-1.365234375	0.7265625	0.78369140625	99.3125	83.4375	-172.9375
18	12	12	15	52	36	-0.850506527501	-0.253107324689	-0.0604234992627	-1.8935546875	1.2060546875	1.134765625	98.625	84.125	-209.0
18	12	12	15	52	36	-0.820314681923	-0.299439273029	-0.0582276939401	-2.2470703125	1.6455078125	1.6142578125	284.8125	82.5	-190.5
18	12	12	15	52	36	-0.790570941124	-0.331291520761	-0.0624375876454	-2.0498046875	1.5068359375	1.50927734375	198.5	71.0	-208.375
18	12	12	15	52	36	-0.764697213292	-0.356317529827	-0.0675648347924	-1.3359375	1.28125	1.75439453125	155.375	64.9375	-173.8125
18	12	12	15	52	36	-0.741563007143	-0.374687679082	-0.080076597973	-0.88818359375	1.41748046875	1.57421875	91.8125	87.0625	-174.0
18	12	12	15	52	37	-0.720755855422	-0.382441882469	-0.100218571818	-0.771484375	0.9365234375	1.25537109375	21.125	82.9375	-188.5625
18	12	12	15	52	37	-0.698739670444	-0.390813252084	-0.117005935381	-0.5771484375	0.71923828125	0.85693359375	36.0625	71.9375	-182.9375
18	12	12	15	52	37	-0.674739450874	-0.403256766343	-0.125182325983	-0.37890625	0.806640625	0.59716796875	83.125	54.0625	-168.1875
18	12	12	15	52	37	-0.64848340887	-0.419118641761	-0.125058118096	-0.08837890625	0.94970703125	0.50048828125	128.5	37.5625	-158.375
18	12	12	15	52	37	-0.623029318307	-0.432727063754	-0.121456538346	0.19140625	0.9287109375	0.4580078125	130.5625	20.375	-148.8125
18	12	12	15	52	37	-0.601618886915	-0.442196290524	-0.119078669815	0.517578125	0.55712890625	0.44140625	103.125	16.625	-127.0625
18	12	12	15	52	37	-0.58973008295	-0.444281233057	-0.110536243037	0.857421875	0.1279296875	0.47998046875	84.5625	17.0625	-86.375
18	12	12	15	52	37	-0.58373441414	-0.441218745276	-0.10107321098	1.18115234375	-0.189453125	0.72607421875	73.6875	20.25	-50.6875
18	12	12	15	52	37	-0.572008215435	-0.45427413012	-0.101377042876	1.46533203125	-0.24267578125	0.97021484375	72.6875	54.75	-43.3125
18	12	12	15	52	37	-0.568231675011	-0.455256720076	-0.0938101057457	1.16162109375	-0.05810546875	0.9345703125	71.6875	63.3125	-33.125
18	12	12	15	52	37	-0.572930279009	-0.447138300205	-0.0914295896406	0.59912109375	0.271484375	0.90234375	-15.1875	22.1875	-15.3125
18	12	12	15	52	37	-0.587705253535	-0.434568636948	-0.0965572448948	-0.19287109375	0.56494140625	0.99267578125	-101.4375	-17.1875	49.0625
18	12	12	15	52	37	-0.615426400057	-0.416937195159	-0.0966200526917	-0.73095703125	0.88330078125	1.390625	-136.6875	-41.125	138.125
18	12	12	15	52	37	-0.644757529076	-0.396961659325	-0.0885595583765	-1.52587890625	1.83740234375	1.6025390625	-118.375	-85.4375	171.25
18	12	12	15	52	37	-0.676549951396	-0.36888298658	-0.0760470220513	-1.98681640625	2.36181640625	1.43310546875	-136.875	-133.875	185.5625
18	12	12	15	52	37	-0.712558294339	-0.33464300881	-0.0641455046981	-2.29052734375	2.19384765625	1.31005859375	-174.6875	-145.0	216.5
18	12	12	15	52	37	-0.744110797183	-0.307421758974	-0.0450421397901	-1.9873046875	1.22998046875	1.109375	-112.4375	-143.5	227.375
18	12	12	15	52	37	-0.775376306829	-0.287409243455	-0.020263297691	-1.662109375	1.58154296875	1.18115234375	-64.3125	-130.0	270.25
18	12	12	15	52	37	-0.804548942378	-0.265680590667	-0.00543201759002	-1.48046875	1.46923828125	0.90576171875	-100.3125	-88.4375	253.1875
18	12	12	15	52	37	-0.831160692738	-0.243769702364	0.00140378146079	-1.34130859375	0.9462890625	0.681640625	-130.9375	-69.125	241.3125
18	12	12	15	52	37	-0.854971123965	-0.223264161298	0.00524896606661	-0.9814453125	0.83984375	0.5126953125	-129.0625	-46.875	228.5
18	12	12	15	52	37	-0.874805398823	-0.203671639983	0.00347895818969	-0.900390625	0.64013671875	0.22900390625	-133.5	-20.1875	195.625
18	12	12	15	52	37	-0.890552136143	-0.186704063084	-0.00286861424157	-0.87451171875	0.1181640625	0.013671875	-120.5625	4.25	161.875
18	12	12	15	52	37	-0.903420241442	-0.178218288408	-0.0104367559307	-0.75390625	-0.36962890625	-0.21728515625	-70.4375	32.5	154.875
18	12	12	15	52	37	-0.913930241313	-0.18188273802	-0.0159910326716	-0.53076171875	-0.48046875	-0.431640625	-0.1875	54.5625	163.6875
18	12	12	15	52	37	-0.921265365722	-0.194397124011	-0.0205078284671	-0.3271484375	-0.275390625	-0.63525390625	47.125	69.375	151.75
18	12	12	15	52	37	-0.925146192976	-0.209344995508	-0.0244134105548	-0.19921875	0.0849609375	-0.822265625	58.0	66.0	114.125
18	12	12	15	52	37	-0.924290441065	-0.22582373428	-0.029235018573	-0.08740234375	0.36767578125	-0.75732421875	35.625	51.125	42.625
18	12	12	15	52	37	-0.91961135153	-0.235106054695	-0.0356443239725	-0.13037109375	0.50537109375	-0.5927734375	-2.4375	26.9375	-51.875
18	12	12	15	52	37	-0.913779951772	-0.227468466488	-0.0425397158953	-0.291015625	0.40869140625	-0.38134765625	-49.375	-10.5625	-132.875
18	12	12	15	52	37	-0.903718104583	-0.21532501337	-0.0510237276579	-0.27587890625	0.36669921875	0.0224609375	-64.75	-22.9375	-204.0
18	12	12	15	52	37	-0.88643695644	-0.222768857822	-0.0609715312231	-0.75341796875	0.78857421875	0.6279296875	40.4375	21.1875	-225.25
18	12	12	15	52	37	-0.865213352123	-0.240777841008	-0.0677473773178	-2.0068359375	0.9775390625	1.02490234375	114.875	40.625	-221.3125
18	12	12	15	52	37	-0.839830922781	-0.283809141783	-0.058959060422	-2.44873046875	0.9375	1.55712890625	280.0625	39.875	-155.8125
18	12	12	15	52	37	-0.814239512904	-0.322192518448	-0.046873243828	-2.640625	1.83251953125	1.42138671875	265.5625	16.0	-139.1875
18	12	12	15	52	37	-0.797329043543	-0.33653340065	-0.046811954715	-1.7783203125	1.52392578125	1.677734375	103.1875	10.125	-127.375
18	12	12	15	52	37	-0.782062974261	-0.343243496741	-0.0582854799765	-1.126953125	1.41552734375	1.580078125	26.3125	38.6875	-148.25
18	12	12	15	52	37	-0.765676717953	-0.343745817099	-0.0786123246491	-0.912109375	0.94091796875	1.17724609375	-21.6875	54.6875	-184.0
18	12	12	15	52	37	-0.745390965302	-0.353134539035	-0.0940512140777	-0.642578125	0.63525390625	0.8671875	40.5	67.1875	-175.8125
18	12	12	15	52	37	-0.720819146788	-0.372616502214	-0.0980216384202	-0.45849609375	0.8701171875	0.583984375	123.8125	55.125	-160.8125
18	12	12	15	52	37	-0.694459684232	-0.393433566933	-0.0953371442055	-0.17626953125	1.01025390625	0.36083984375	152.8125	34.75	-155.875
18	12	12	15	52	37	-0.668520783475	-0.40966963377	-0.090332398388	0.10595703125	0.94189453125	0.29541015625	142.625	11.1875	-155.8125
18	12	12	15	52	37	-0.64450537647	-0.419905018003	-0.0869716061998	0.3017578125	0.48828125	0.30322265625	114.3125	-2.125	-151.625
18	12	12	15	52	37	-0.62212778087	-0.428159166369	-0.0833735454398	0.427734375	0.08251953125	0.35498046875	107.5625	-4.5	-135.5
18	12	12	15	52	37	-0.600815076706	-0.437794244739	-0.0769023767421	0.61279296875	-0.06640625	0.47412109375	122.125	-0.3125	-113.1875
18	12	12	15	52	37	-0.581350387343	-0.449394530394	-0.0675648166707	0.74267578125	-0.029296875	0.51171875	133.1875	8.0	-86.8125
18	12	12	15	52	37	-0.567680828753	-0.45745272675	-0.0564568075042	0.80126953125	0.0830078125	0.4736328125	110.8125	-5.625	-52.0625
18	12	12	15	52	37	-0.568836176251	-0.450491396664	-0.0420523739739	0.7431640625	0.18701171875	0.537109375	41.4375	-31.875	-6.625
18	12	12	15	52	37	-0.580141309468	-0.435304347094	-0.0321656465113	0.5380859375	0.162109375	0.75927734375	-22.625	-40.6875	39.0
18	12	12	15	52	37	-0.596910008219	-0.417409769551	-0.0261834758207	0.27685546875	0.1181640625	0.85009765625	-56.8125	-37.875	73.75
18	12	12	15	52	38	-0.617065900931	-0.404785465379	-0.0206909337701	0.080078125	0.4033203125	1.0849609375	-67.5625	-35.375	120.1875
18	12	12	15	52	38	-0.639713734879	-0.394716985351	-0.00622562741701	-0.1982421875	1.6005859375	1.4501953125	-41.0625	-47.3125	159.875
18	12	12	15	52	38	-0.669988127856	-0.373538065271	-0.00213624710531	-0.935546875	2.275390625	1.5234375	-131.375	-55.5	188.8125
18	12	12	15	52	38	-0.704890144527	-0.346555220419	0.00134276415097	-2.0302734375	2.77392578125	1.75634765625	-165.8125	-64.6875	222.875
18	12	12	15	52	38	-0.735041848093	-0.316404296314	0.00128173036701	-2.39453125	1.66796875	1.2216796875	-181.875	-68.4375	184.625
18	12	12	15	52	38	-0.764295405044	-0.292180330933	0.0159304504645	-1.73193359375	1.28955078125	1.39990234375	-104.5625	-99.4375	232.8125
18	12	12	15	52	38	-0.791812309043	-0.273621720607	0.0249634806443	-1.427734375	1.31494140625	1.20361328125	-104.375	-65.375	241.3125
18	12	12	15	52	38	-0.819067619011	-0.251335354328	0.0270988094516	-1.1591796875	1.06396484375	0.96240234375	-141.1875	-41.6875	235.1875
18	12	12	15	52	38	-0.843495142751	-0.226132380889	0.019897208143	-0.83740234375	1.06201171875	0.71337890625	-181.875	-7.25	200.6875
18	12	12	15	52	38	-0.862266260902	-0.201346007553	0.00311265425439	-0.7890625	0.70556640625	0.3525390625	-197.25	31.0625	143.5625
18	12	12	15	52	38	-0.87515283505	-0.184502895624	-0.0158685917507	-0.7734375	0.2109375	0.056640625	-151.25	57.6875	103.9375
18	12	12	15	52	38	-0.883357168217	-0.183226574932	-0.0397947124769	-0.66748046875	-0.00244140625	-0.31787109375	-83.3125	86.875	97.125
18	12	12	15	52	38	-0.889797774543	-0.189629033919	-0.0577370666519	-0.50732421875	-0.11865234375	-0.638671875	-23.625	113.625	95.3125
18	12	12	15	52	38	-0.893696872057	-0.202444343687	-0.0731778016524	-0.48828125	-0.072265625	-0.91845703125	15.375	114.4375	88.0625
18	12	12	15	52	38	-0.893352494506	-0.21905049551	-0.0894756273107	-0.44189453125	0.21337890625	-1.05322265625	8.5625	84.25	52.375
18	12	12	15	52	38	-0.889395755338	-0.231443089778	-0.101317386348	-0.29443359375	0.32861328125	-1.03955078125	-1.1875	48.75	-12.75
18	12	12	15	52	38	-0.881884831999	-0.238949347171	-0.10900728839	-0.2353515625	0.23779296875	-0.845703125	4.0625	11.0	-76.8125
18	12	12	15	52	38	-0.872648043844	-0.239370934953	-0.111446029379	-0.32177734375	0.232421875	-0.4990234375	14.75	-15.5	-121.1875
18	12	12	15	52	38	-0.860079915568	-0.239982559467	-0.113704859687	-0.41259765625	0.24755859375	-0.1669921875	26.1875	-20.1875	-155.5625
18	12	12	15	52	38	-0.843986849498	-0.248410939938	-0.116026829686	-0.84228515625	0.353515625	0.19970703125	69.9375	-2.6875	-161.6875
18	12	12	15	52	38	-0.823523438892	-0.269035152941	-0.106686353753	-1.69091796875	1.30517578125	0.56201171875	171.5	-15.5625	-157.0
18	12	12	15	52	38	-0.800692925547	-0.282400043182	-0.102535567873	-2.34326171875	1.171875	1.326171875	128.3125	-15.1875	-192.875
18	12	12	15	52	38	-0.770806547583	-0.321530516483	-0.0836785000187	-2.6318359375	1.3193359375	1.72607421875	299.3125	6.5	-151.625
18	12	12	15	52	38	-0.744430815833	-0.353142305519	-0.0730576114251	-2.38525390625	0.88623046875	1.74951171875	230.375	30.1875	-128.625
18	12	12	15	52	38	-0.723381847308	-0.377804052888	-0.0699456291777	-1.541015625	1.40673828125	1.8544921875	162.75	51.5	-101.25
18	12	12	15	52	38	-0.705507555148	-0.389283431675	-0.0851443065518	-1.22998046875	1.11376953125	1.287109375	38.0625	79.125	-140.1875
18	12	12	15	52	38	-0.685904996237	-0.395259010111	-0.104857161731	-0.939453125	0.65673828125	0.89599609375	8.0625	72.75	-171.3125
