18	12	13	14	58	47	0.853234004147	0.448803893876	0.011658036683	-0.55615234375	-0.697265625	-0.49169921875	56.75	-70.1875	128.75
18	12	13	14	58	47	0.849637413909	0.455276255053	-0.0156865528286	-0.3173828125	-0.263671875	-0.5986328125	77.1875	-129.875	68.8125
18	12	13	14	58	47	0.841331244941	0.459973321378	-0.0422985020853	-0.25390625	0.11572265625	-0.35498046875	77.625	-166.0	-13.9375
18	12	13	14	58	47	0.828954259637	0.458515897091	-0.0615260948173	-0.2734375	0.9091796875	0.2939453125	43.25	-188.625	-130.375
18	12	13	14	58	47	0.806149525307	0.462339692172	-0.0708005337187	-0.525390625	1.9443359375	0.91015625	71.5	-173.125	-247.3125
18	12	13	14	58	47	0.78711684638	0.455204516152	-0.0721442394867	-2.74169921875	1.921875	1.5390625	1.0	-154.9375	-252.625
18	12	13	14	58	47	0.780386082841	0.447748498649	-0.0739737159709	-2.18359375	1.4658203125	2.50341796875	-20.1875	-81.625	-99.4375
18	12	13	14	58	47	0.763569760671	0.457226305131	-0.0854514520336	-1.88330078125	1.83642578125	1.55810546875	106.125	-80.5625	-95.25
18	12	13	14	58	47	0.758787538908	0.455443421439	-0.0918577257124	-1.0673828125	2.2998046875	1.02001953125	17.125	-57.5	-32.375
18	12	13	14	58	47	0.765176699557	0.435691710389	-0.0862471822331	-0.36669921875	1.67626953125	0.78955078125	-129.6875	-49.0625	-32.625
18	12	13	14	58	47	0.771202912952	0.41254930658	-0.0774559949771	-0.10107421875	0.84228515625	0.62744140625	-147.8125	-49.625	-52.125
18	12	13	14	58	47	0.772194432033	0.398152263074	-0.0745276580122	0.0205078125	0.5556640625	0.49755859375	-81.0	-41.6875	-57.9375
18	12	13	14	58	47	0.770573421986	0.390749389905	-0.0748295457707	0.08837890625	0.62646484375	0.35302734375	-45.0	-31.0	-54.5
18	12	13	14	58	47	0.771392694259	0.380019853969	-0.0711087584121	0.3125	0.50341796875	0.2509765625	-75.6875	-10.75	-58.5
18	12	13	14	58	47	0.773936510923	0.365971870623	-0.0594490663753	0.54150390625	0.2880859375	0.16845703125	-106.5625	2.0625	-55.125
18	12	13	14	58	47	0.777975916515	0.349985399757	-0.0476697937234	0.67138671875	0.02880859375	0.04931640625	-116.0625	2.1875	-42.1875
18	12	13	14	58	47	0.78325677509	0.333920191422	-0.0391842008578	0.82470703125	-0.2529296875	-0.0302734375	-105.25	-4.5625	-18.75
18	12	13	14	58	47	0.792039982044	0.313105117353	-0.040221495582	1.00341796875	-0.61328125	-0.09375	-77.25	-11.9375	8.6875
18	12	13	14	58	47	0.802256482324	0.296024341089	-0.0446783129231	0.99609375	-0.8740234375	-0.06005859375	-35.25	-3.5625	48.3125
18	12	13	14	58	47	0.814909973485	0.284922459458	-0.0520038422148	0.83349609375	-0.7373046875	-0.12158203125	-10.6875	7.0625	99.9375
18	12	13	14	58	47	0.828913003744	0.281431253977	-0.0601192333914	0.78662109375	0.0380859375	0.23193359375	-8.1875	4.625	151.875
18	12	13	14	58	47	0.836562109382	0.28796877514	-0.0678112143239	1.3955078125	1.455078125	0.75439453125	46.375	14.0	118.9375
18	12	13	14	58	47	0.827994777339	0.294430694817	-0.0598748987594	1.3779296875	2.82177734375	0.720703125	19.5625	31.3125	-97.0625
18	12	13	14	58	47	0.824384206467	0.288223176584	-0.0487696565206	-0.748046875	3.02880859375	1.14990234375	-57.6875	15.5	-79.9375
18	12	13	14	58	47	0.818991910558	0.267768483501	-0.0390025213032	-2.46484375	1.8671875	1.2216796875	-120.9375	-47.1875	-126.1875
18	12	13	14	58	47	0.80609779649	0.28430404604	-0.0518192647247	-1.6806640625	0.640625	1.83642578125	132.25	-31.25	-70.0625
18	12	13	14	58	47	0.794074049046	0.327273255264	-0.0821540099935	-2.14404296875	1.3115234375	1.396484375	311.5	1.1875	51.0
18	12	13	14	58	47	0.792385808474	0.358227723766	-0.098758299038	-1.255859375	1.60693359375	1.64453125	202.625	54.1875	111.0625
18	12	13	14	58	47	0.807017024599	0.367924566955	-0.0911266387631	-0.9921875	1.05126953125	1.486328125	15.1875	126.0	168.0
18	12	13	14	58	47	0.829424914515	0.364082685634	-0.071046478806	-1.08447265625	0.36083984375	1.1640625	-89.5625	159.5	191.5
18	12	13	14	58	47	0.856510058505	0.352235412786	-0.0473634864533	-0.83984375	0.01708984375	0.64697265625	-144.625	177.75	236.3125
18	12	13	14	58	47	0.881900036235	0.33654902068	-0.0236206875232	-0.67236328125	-0.205078125	0.23388671875	-161.5	173.0625	239.375
18	12	13	14	58	48	0.900902931391	0.327340272429	-0.00286872884657	-0.54443359375	-0.42138671875	-0.275390625	-113.125	167.6875	228.125
18	12	13	14	58	48	0.90962801619	0.335090774266	0.00927755877748	-0.33154296875	-0.85546875	-0.81787109375	7.875	143.0	202.0625
18	12	13	14	58	48	0.909214998597	0.354628030468	0.0105594921292	-0.10107421875	-0.46484375	-1.12890625	93.0625	82.3125	144.125
18	12	13	14	58	48	0.904597267535	0.377586956611	0.00451688244248	-0.0771484375	0.15185546875	-1.078125	121.0	34.0	113.0
18	12	13	14	58	48	0.898206153198	0.398321103273	-0.001159684487	-0.10498046875	0.09423828125	-0.77392578125	85.5	6.875	70.9375
18	12	13	14	58	48	0.893664238139	0.407553863674	-0.00762980874034	-0.06494140625	0.296875	-0.34033203125	33.9375	-33.8125	1.25
18	12	13	14	58	48	0.886448181104	0.412491689589	-0.0151373097097	-0.07080078125	1.38134765625	-0.00048828125	33.375	-84.625	-104.75
18	12	13	14	58	48	0.873027372452	0.411335486468	-0.0186166083058	-0.19775390625	2.8017578125	0.69482421875	25.4375	-143.3125	-272.0
18	12	13	14	58	48	0.868143955695	0.384417537297	-0.00653106962381	-2.1572265625	2.501953125	1.08837890625	-147.0	-104.375	-296.4375
18	12	13	14	58	48	0.86665436034	0.356207820758	-0.00286870589027	-2.31884765625	0.7900390625	1.9873046875	-144.9375	-111.0	-186.3125
18	12	13	14	58	48	0.84206741971	0.387829543697	-0.0319223876854	-1.78662109375	0.8779296875	1.75537109375	265.375	-130.6875	-110.625
18	12	13	14	58	48	0.816594202991	0.420168509858	-0.065063862799	-1.4755859375	1.81982421875	1.044921875	280.6875	-133.0625	-68.3125
18	12	13	14	58	48	0.80128322362	0.434516702388	-0.0896621766832	-0.56884765625	1.69189453125	0.91455078125	149.5	-118.125	-30.375
18	12	13	14	58	48	0.791116219099	0.431906362653	-0.104802603826	-0.3720703125	1.3134765625	0.67236328125	33.5	-129.5	-70.8125
18	12	13	14	58	48	0.783872895415	0.415465451926	-0.112792736177	-0.09619140625	0.771484375	0.5673828125	-54.6875	-146.4375	-112.5625
18	12	13	14	58	48	0.778753485528	0.395693929515	-0.116455964448	0.1650390625	0.333984375	0.6083984375	-79.625	-126.75	-108.1875
18	12	13	14	58	48	0.777590363005	0.372498742969	-0.118774791712	0.3330078125	0.134765625	0.60888671875	-84.375	-95.8125	-88.6875
18	12	13	14	58	48	0.778038441806	0.348521181667	-0.117252047282	0.46728515625	0.05224609375	0.55712890625	-100.0	-66.875	-83.1875
18	12	13	14	58	48	0.778638641412	0.327703289625	-0.109620992394	0.52392578125	0.0615234375	0.5478515625	-120.625	-47.125	-69.8125
18	12	13	14	58	48	0.780709648696	0.306094823564	-0.098389801712	0.68310546875	0.04638671875	0.46728515625	-137.75	-25.5625	-62.25
18	12	13	14	58	48	0.78284571413	0.286258100676	-0.084046354932	0.84326171875	-0.134765625	0.33740234375	-136.8125	-0.6875	-60.875
18	12	13	14	58	48	0.785532739765	0.269839956682	-0.0712289593866	0.796875	-0.26611328125	0.2763671875	-115.125	9.3125	-39.5
18	12	13	14	58	48	0.791018020729	0.251587676037	-0.0647584969131	0.64208984375	-0.2353515625	0.1845703125	-91.75	11.3125	-10.6875
18	12	13	14	58	48	0.797139469116	0.240606721842	-0.0625015939031	0.435546875	-0.0234375	0.15625	-58.4375	10.75	23.0
18	12	13	14	58	48	0.803737365844	0.235054115725	-0.0691551059767	0.3681640625	0.60693359375	0.333984375	-37.625	-9.0	50.875
18	12	13	14	58	48	0.80688187699	0.234068986252	-0.073974344547	0.63427734375	2.06689453125	0.61962890625	8.4375	-17.1875	39.25
18	12	13	14	58	48	0.801898977903	0.220586307363	-0.0692155153708	0.11328125	2.5546875	0.54736328125	-76.4375	-40.1875	-79.1875
18	12	13	14	58	48	0.797637719172	0.207405338977	-0.0708034706335	-1.14208984375	1.73876953125	1.2431640625	-54.5625	-64.3125	-56.8125
18	12	13	14	58	48	0.786485031896	0.216243711626	-0.0982038193637	-1.27783203125	1.43701171875	1.2490234375	138.875	-111.0625	-44.375
18	12	13	14	58	48	0.776982568248	0.243898063057	-0.13592617278	-1.076171875	1.75146484375	1.34375	263.0625	-77.9375	26.625
18	12	13	14	58	48	0.766538455625	0.26898120662	-0.174621110084	-1.02880859375	1.87890625	1.1669921875	257.5625	-88.4375	35.5625
18	12	13	14	58	48	0.759484279367	0.28705734677	-0.199713297604	-0.5830078125	1.2158203125	1.3798828125	178.0	-55.375	38.875
18	12	13	14	58	48	0.762828549581	0.297794886655	-0.215701399762	-0.412109375	0.2734375	1.6396484375	126.5	-9.8125	102.0
18	12	13	14	58	48	0.776575398558	0.309153060889	-0.223456931079	-0.3984375	-0.34423828125	1.87060546875	87.5625	69.75	174.25
18	12	13	14	58	48	0.801513800267	0.317321828175	-0.218078648215	-0.78466796875	-0.16552734375	1.7041015625	32.9375	157.0625	247.375
18	12	13	14	58	48	0.841731507893	0.300718667203	-0.187682139567	-0.8115234375	0.099609375	0.8525390625	-157.3125	227.8125	311.875
18	12	13	14	58	48	0.882102650555	0.268256376224	-0.14862440867	-0.56103515625	-0.232421875	0.259765625	-258.3125	234.75	307.5625
18	12	13	14	58	48	0.906271548371	0.254095397082	-0.120059006981	-0.60546875	-0.51318359375	-0.32568359375	-126.6875	192.25	234.5
18	12	13	14	58	48	0.914283295014	0.266246327048	-0.109623659647	-0.3291015625	-0.1611328125	-0.7314453125	49.25	122.5625	154.0625
18	12	13	14	58	48	0.913080966233	0.294615095188	-0.105285071307	-0.40087890625	0.6591796875	-0.90283203125	139.875	98.3125	101.0
18	12	13	14	58	48	0.907685083613	0.32538962953	-0.100711477907	-0.4052734375	1.21630859375	-0.771484375	75.0	72.875	72.0625
18	12	13	14	58	48	0.905318110015	0.329667146183	-0.0910689468812	-0.26806640625	1.111328125	-0.4267578125	-68.75	28.75	-46.0625
18	12	13	14	58	48	0.897235078652	0.327887540308	-0.0761123906857	-0.017578125	1.34130859375	0.30224609375	-48.1875	7.375	-216.3125
18	12	13	14	58	48	0.874946319776	0.358096271931	-0.0596318489307	-1.453125	1.1533203125	0.8779296875	150.25	42.625	-245.375
18	12	13	14	58	48	0.856878449673	0.37707778774	-0.0551761605887	-1.5478515625	1.76318359375	1.17138671875	114.8125	-4.0	-183.0625
18	12	13	14	58	48	0.836954703744	0.39937242026	-0.065005597979	-1.5849609375	1.64306640625	1.525390625	165.5625	-56.25	-130.1875
18	12	13	14	58	48	0.820212124225	0.414683819913	-0.0793478018673	-0.8408203125	1.6826171875	1.109375	130.8125	-88.6875	-87.125
18	12	13	14	58	48	0.808200786909	0.420855254568	-0.091312467126	-0.306640625	1.38330078125	1.02783203125	70.0	-85.1875	-77.125
18	12	13	14	58	48	0.798466249435	0.420778651858	-0.101685122425	-0.078125	1.0732421875	0.919921875	40.4375	-84.5	-85.0625
18	12	13	14	58	49	0.790676358473	0.414076610768	-0.105594418725	0.201171875	0.712890625	0.86962890625	-10.625	-81.6875	-101.75
18	12	13	14	58	49	0.788232781106	0.400586320458	-0.110293993763	0.45263671875	0.3662109375	0.7890625	-28.6875	-62.75	-85.0625
18	12	13	14	58	49	0.790125613341	0.384717013587	-0.11334594546	0.4951171875	0.13916015625	0.67724609375	-46.875	-44.5625	-47.9375
18	12	13	14	58	49	0.797318215759	0.363349562766	-0.114443210177	0.52734375	0.0126953125	0.57470703125	-85.625	-35.625	-11.125
18	12	13	14	58	49	0.807627990125	0.340397619478	-0.110414074527	0.62890625	-0.0107421875	0.509765625	-131.4375	-28.25	24.5625
18	12	13	14	58	49	0.820820684681	0.313301054021	-0.104799904491	0.712890625	-0.052734375	0.41064453125	-159.9375	-22.8125	46.6875
18	12	13	14	58	49	0.833703562927	0.286568433117	-0.0980253255773	0.71875	-0.1611328125	0.3515625	-158.625	-13.625	50.8125
18	12	13	14	58	49	0.845074140156	0.265088984521	-0.0904586403547	0.67724609375	-0.2705078125	0.36279296875	-130.6875	6.25	54.0
18	12	13	14	58	49	0.856911715564	0.246532261498	-0.0861245409688	0.6669921875	-0.22607421875	0.4013671875	-87.0	37.0	64.5
18	12	13	14	58	49	0.865171660654	0.24536085191	-0.083740071846	0.67822265625	0.2822265625	0.74755859375	-8.0625	79.0625	67.375
18	12	13	14	58	49	0.862891322084	0.26551441261	-0.0740388465507	1.04736328125	1.9658203125	0.6640625	82.125	104.625	-0.8125
18	12	13	14	58	49	0.848705100125	0.283451023731	-0.0567024119393	-0.02294921875	2.13037109375	0.66943359375	60.125	93.875	-163.625
18	12	13	14	58	49	0.846926188103	0.280152147837	-0.0421143751651	-1.39892578125	1.9990234375	0.90771484375	-52.75	50.5625	-61.6875
18	12	13	14	58	49	0.847679907391	0.278572227631	-0.0398570693784	-1.4013671875	2.10595703125	1.04736328125	-14.4375	7.3125	0.0
18	12	13	14	58	49	0.852609569191	0.277163723509	-0.0350956047165	-1.287109375	1.9580078125	1.11328125	-25.4375	33.5	44.75
18	12	13	14	58	49	0.858241117815	0.287179038427	-0.0241706480801	-1.11962890625	1.5107421875	1.08251953125	-33.5625	54.5	97.6875
18	12	13	14	58	49	0.870325204877	0.288338331428	-0.0156254472578	-0.82177734375	0.95556640625	0.87109375	-37.4375	79.8125	145.6875
18	12	13	14	58	49	0.882594477359	0.291390458846	-0.00842310082127	-0.67041015625	0.61376953125	0.654296875	-21.6875	86.5625	170.125
18	12	13	14	58	49	0.893399181318	0.29725039373	-0.00177007421317	-0.59326171875	0.39111328125	0.40380859375	-2.375	92.875	177.4375
18	12	13	14	58	49	0.903278839843	0.304205806999	0.00646986668176	-0.59912109375	0.08935546875	0.08837890625	3.0	106.0625	186.125
18	12	13	14	58	49	0.912620241237	0.310615597088	0.0156253866878	-0.63134765625	-0.22900390625	-0.1279296875	2.0625	113.8125	199.6875
18	12	13	14	58	49	0.92131748314	0.315997125362	0.0242933853379	-0.6767578125	-0.42529296875	-0.27880859375	-0.5	114.3125	216.25
18	12	13	14	58	49	0.928668604914	0.321478642266	0.030701301891	-0.62646484375	-0.3759765625	-0.38720703125	3.0625	107.8125	232.0625
18	12	13	14	58	49	0.933022679058	0.328077777047	0.030701976159	-0.53173828125	-0.125	-0.62890625	16.0	67.0625	213.375
18	12	13	14	58	49	0.932739921486	0.339050534214	0.022583023881	-0.45703125	0.1484375	-0.6708984375	52.625	3.0625	149.75
18	12	13	14	58	49	0.927331827757	0.357797615633	0.00854514946923	-0.4033203125	0.8515625	-0.53369140625	102.25	-46.3125	88.5
18	12	13	14	58	49	0.917173242833	0.380700753065	-0.00628702542339	-0.369140625	1.5322265625	-0.158203125	67.5625	-100.0	-10.0625
18	12	13	14	58	49	0.912868341421	0.377391344946	-0.013183977116	-0.279296875	2.0546875	0.43359375	-25.1875	-122.8125	-185.9375
18	12	13	14	58	49	0.898823650756	0.386605256274	-0.00396737316984	-1.3583984375	1.875	1.10400390625	66.625	-55.9375	-302.1875
18	12	13	14	58	49	0.88236132213	0.401750292077	0.00274669753015	-2.1474609375	1.53125	1.46484375	105.6875	-33.125	-233.3125
18	12	13	14	58	49	0.861303464967	0.429583572138	-0.00836216956279	-2.0078125	1.494140625	1.390625	205.25	-77.125	-136.25
18	12	13	14	58	49	0.845487390295	0.443557382708	-0.0243538455622	-1.1923828125	1.99853515625	1.00390625	131.8125	-120.0625	-109.875
18	12	13	14	58	49	0.839551882154	0.439460090986	-0.0359502768876	-0.35986328125	1.48681640625	0.7490234375	5.875	-118.25	-83.1875
18	12	13	14	58	49	0.836082665766	0.427196859227	-0.0457776317217	-0.06005859375	1.1669921875	0.5791015625	-42.4375	-128.75	-97.0625
18	12	13	14	58	49	0.830817832625	0.411258489291	-0.0562749075581	0.2763671875	0.716796875	0.43603515625	-53.1875	-150.625	-128.3125
18	12	13	14	58	49	0.823425472417	0.397155848271	-0.0700073394754	0.66552734375	0.4736328125	0.42529296875	-29.5625	-155.6875	-124.1875
18	12	13	14	58	49	0.816706043675	0.386044819239	-0.0849603776097	0.8828125	0.3193359375	0.32275390625	-11.0625	-135.6875	-88.8125
18	12	13	14	58	49	0.81508225247	0.371102298563	-0.0987571577427	0.85107421875	0.25244140625	0.326171875	-38.4375	-119.75	-39.5625
18	12	13	14	58	49	0.82155782708	0.345713486819	-0.113711904298	0.84033203125	0.171875	0.3076171875	-92.0	-95.5625	-2.5625
18	12	13	14	58	49	0.830152305179	0.320622752673	-0.116762102772	0.9560546875	-0.046875	0.30078125	-125.125	-62.9375	23.8125
18	12	13	14	58	49	0.840534469185	0.298896034827	-0.116396720117	0.91796875	-0.28173828125	0.302734375	-113.4375	-25.5625	51.3125
18	12	13	14	58	49	0.8533973665	0.276673599081	-0.118225625727	0.7392578125	-0.365234375	0.27978515625	-86.375	5.0	73.75
18	12	13	14	58	49	0.865511505491	0.260874201302	-0.117863379203	0.5546875	-0.2265625	0.26953125	-64.6875	27.0625	89.8125
18	12	13	14	58	49	0.875866313596	0.254947288633	-0.113465886897	0.51025390625	0.1533203125	0.5302734375	-41.3125	48.1875	103.0
18	12	13	14	58	49	0.881774800513	0.261108368284	-0.114746080499	0.9541015625	1.36669921875	1.22265625	1.8125	93.9375	65.4375
18	12	13	14	58	49	0.871828281332	0.282044139459	-0.0979006275033	0.6025390625	2.86669921875	0.52587890625	75.8125	104.8125	-124.375
18	12	13	14	58	49	0.871049285142	0.277654207702	-0.0762343603911	-1.6533203125	2.24169921875	1.32958984375	-74.0625	82.3125	-82.6875
18	12	13	14	58	49	0.877337883953	0.263555376577	-0.0604871186168	-1.91162109375	1.67919921875	1.2021484375	-115.75	51.875	3.0625
18	12	13	14	58	49	0.879611857106	0.276805202413	-0.0573752790008	-1.3984375	1.6337890625	1.361328125	60.8125	67.3125	65.6875
18	12	13	14	58	49	0.885713348184	0.289073007856	-0.0560323102221	-1.1943359375	1.77880859375	0.9677734375	56.9375	72.9375	126.5
18	12	13	14	58	49	0.891981726365	0.298527618972	-0.04632640826	-0.52978515625	1.07666015625	0.8857421875	18.625	102.6875	111.5625
18	12	13	14	58	50	0.898390998298	0.309758428994	-0.0354619994572	-0.4716796875	0.82958984375	0.72021484375	28.1875	119.8125	131.5
18	12	13	14	58	50	0.903668439864	0.320632915543	-0.0246593751912	-0.45556640625	0.494140625	0.4150390625	30.5625	117.9375	128.25
18	12	13	14	58	50	0.908939171662	0.328553556343	-0.0140991773203	-0.3828125	0.18505859375	0.22021484375	17.9375	112.125	128.75
18	12	13	14	58	50	0.914785486302	0.333881137657	-0.00469997213887	-0.404296875	-0.07861328125	0.0361328125	7.0	106.5	145.8125
18	12	13	14	58	50	0.92179536405	0.334549092197	0.00219736677962	-0.4296875	-0.25927734375	-0.13525390625	-16.0	91.625	165.875
18	12	13	14	58	50	0.928661260059	0.331424951832	0.00646980568954	-0.43603515625	-0.24560546875	-0.23388671875	-33.6875	69.125	160.0
18	12	13	14	58	50	0.933271968985	0.329422420969	0.00701937713756	-0.41015625	-0.32861328125	-0.36328125	-20.1875	39.125	133.125
18	12	13	14	58	50	0.934234462406	0.332896560693	0.00433363692871	-0.28662109375	-0.25244140625	-0.4150390625	14.5625	-1.0	99.875
18	12	13	14	58	50	0.931956094746	0.342411008679	-0.00421147229926	-0.20263671875	0.02197265625	-0.353515625	44.5625	-34.8125	70.6875
18	12	13	14	58	50	0.926758816416	0.357140606919	-0.0169689093699	-0.1494140625	0.630859375	-0.08544921875	61.3125	-58.75	45.875
18	12	13	14	58	50	0.918252618452	0.374039620173	-0.0307020119039	0.02734375	1.697265625	0.3251953125	44.3125	-82.6875	-45.0
18	12	13	14	58	50	0.91151002198	0.374088986522	-0.0265506133361	0.1259765625	2.6220703125	0.66357421875	4.25	-70.375	-237.625
18	12	13	14	58	50	0.900353647295	0.376658013521	-0.0140384610452	-1.91162109375	1.8203125	1.05810546875	18.125	-38.25	-292.5
18	12	13	14	58	50	0.890387523157	0.382754329429	-0.0172120428798	-2.25146484375	1.30908203125	1.43798828125	54.375	-70.8125	-152.25
18	12	13	14	58	50	0.875315599006	0.403691330578	-0.0369267092531	-1.72412109375	1.4912109375	1.10986328125	166.0625	-111.6875	-70.875
18	12	13	14	58	50	0.865490659674	0.412054121542	-0.0574348879234	-1.107421875	1.85693359375	0.95751953125	92.4375	-128.0625	-46.5
18	12	13	14	58	50	0.865065489459	0.403937303975	-0.0700084750166	-0.3369140625	1.4921875	0.9013671875	-28.375	-101.375	-17.4375
18	12	13	14	58	50	0.864959105194	0.391737177132	-0.0781277012666	-0.142578125	0.97900390625	0.73974609375	-61.9375	-96.0	-48.9375
18	12	13	14	58	50	0.864911848078	0.375141017522	-0.0863080700905	-0.04052734375	0.5595703125	0.64501953125	-75.125	-109.875	-65.625
18	12	13	14	58	50	0.863871048721	0.359147689583	-0.0971725224026	0.1708984375	0.3935546875	0.5576171875	-63.9375	-118.8125	-59.6875
18	12	13	14	58	50	0.864420506809	0.339432455752	-0.106816543349	0.427734375	0.3427734375	0.49951171875	-87.125	-111.875	-50.75
18	12	13	14	58	50	0.866832580044	0.313907897421	-0.113343761522	0.67724609375	0.29296875	0.404296875	-126.25	-103.4375	-50.0625
18	12	13	14	58	50	0.86982990522	0.283636205849	-0.117128874333	0.92041015625	0.11083984375	0.25146484375	-156.9375	-97.125	-55.875
18	12	13	14	58	50	0.873130373344	0.252386864297	-0.119815094224	1.091796875	-0.130859375	0.2587890625	-159.8125	-86.1875	-43.375
18	12	13	14	58	50	0.876402243098	0.22717244577	-0.121764919213	1.04345703125	-0.32861328125	0.27783203125	-124.0	-60.5625	-18.5
18	12	13	14	58	50	0.882764392243	0.203005902551	-0.127870524908	0.78125	-0.4453125	0.1962890625	-80.125	-32.5	26.75
18	12	13	14	58	50	0.890947242434	0.186710119518	-0.133608516386	0.5986328125	-0.3994140625	0.11279296875	-42.5	-10.375	78.375
18	12	13	14	58	50	0.898819023126	0.181338538484	-0.139894961361	0.4423828125	0.09814453125	0.177734375	-8.1875	-12.5	117.5
18	12	13	14	58	50	0.903866332458	0.182067207085	-0.151366635458	0.64892578125	1.1103515625	0.63037109375	24.5	-27.0625	109.8125
18	12	13	14	58	50	0.901982945557	0.186463520008	-0.151184988236	0.99365234375	2.53857421875	0.54052734375	22.125	5.75	-21.25
18	12	13	14	58	50	0.896357325967	0.187193784471	-0.143859064232	-0.24365234375	2.04736328125	1.203125	-19.5	16.75	-104.75
18	12	13	14	58	50	0.893013895895	0.198732365869	-0.143250879206	-0.96484375	1.52685546875	1.15966796875	59.8125	22.8125	-28.8125
18	12	13	14	58	50	0.886330733927	0.242076144257	-0.151618038914	-0.880859375	1.525390625	1.13134765625	246.9375	45.1875	36.25
18	12	13	14	58	50	0.878695920947	0.279673847581	-0.167059650989	-0.93310546875	1.89306640625	1.04736328125	247.4375	14.8125	51.625
18	12	13	14	58	50	0.875493724657	0.301576582092	-0.174012312395	-0.41650390625	1.8046875	1.0986328125	131.125	20.25	61.5
18	12	13	14	58	50	0.880198497523	0.309207793388	-0.166322786613	-0.2236328125	1.1064453125	1.16796875	26.25	64.875	84.875
18	12	13	14	58	50	0.887827377876	0.314212521745	-0.154054468703	-0.36474609375	0.263671875	1.15283203125	18.5625	108.625	95.1875
18	12	13	14	58	50	0.895015769369	0.325887553206	-0.138192436872	-0.5185546875	-0.11767578125	1.03466796875	57.1875	148.5	118.3125
18	12	13	14	58	50	0.905449476729	0.332295196933	-0.114081506809	-0.7158203125	-0.06298828125	0.8154296875	12.75	194.375	144.25
18	12	13	14	58	50	0.920579841961	0.323014754254	-0.0802043437433	-0.70947265625	-0.26171875	0.3212890625	-93.875	228.25	145.5
18	12	13	14	58	50	0.93158043758	0.313314269827	-0.0527989174752	-0.67138671875	-0.45263671875	-0.40869140625	-88.4375	180.625	119.625
18	12	13	14	58	50	0.932653292471	0.317578212089	-0.0391860872884	-0.37841796875	-0.119140625	-0.900390625	-19.9375	72.9375	45.125
18	12	13	14	58	50	0.92899517728	0.329298881828	-0.0361954099952	-0.408203125	0.115234375	-0.982421875	19.1875	4.75	14.0
18	12	13	14	58	50	0.923555195973	0.339062131626	-0.0340588063811	-0.44921875	0.32275390625	-0.65087890625	12.3125	-26.875	-51.0
18	12	13	14	58	50	0.914173674923	0.346759741419	-0.0354023323399	-0.373046875	0.77978515625	-0.22705078125	41.3125	-66.1875	-169.5
18	12	13	14	58	50	0.893924120341	0.370789910629	-0.0397950653054	-0.9892578125	1.85986328125	0.47705078125	162.9375	-82.0	-239.375
18	12	13	14	58	50	0.876625766783	0.380632104279	-0.0512107657939	-2.5009765625	2.26416015625	0.95263671875	94.125	-136.0	-214.125
18	12	13	14	58	50	0.865326205672	0.385511766596	-0.0648216428316	-1.8525390625	1.69384765625	2.09619140625	64.8125	-115.625	-110.3125
18	12	13	14	58	50	0.846101875978	0.403457899309	-0.0886264553398	-1.4921875	1.62646484375	1.53759765625	165.6875	-144.1875	-103.75
18	12	13	14	58	50	0.83101906605	0.415662125582	-0.106936864026	-0.9287109375	1.71142578125	1.14599609375	117.1875	-120.375	-66.3125
18	12	13	14	58	51	0.822269515264	0.414308600773	-0.121948819143	-0.296875	1.537109375	0.8671875	29.3125	-121.3125	-60.25
18	12	13	14	58	51	0.816844362656	0.400518023444	-0.131776655382	0.033203125	1.103515625	0.79931640625	-49.1875	-132.25	-89.625
18	12	13	14	58	51	0.811921073561	0.383376654866	-0.138921392529	0.33203125	0.8291015625	0.662109375	-72.0625	-126.1875	-100.25
18	12	13	14	58	51	0.808981566378	0.36426754098	-0.141788454708	0.5029296875	0.53271484375	0.49853515625	-92.5625	-101.75	-91.8125
18	12	13	14	58	51	0.808739916974	0.342295355048	-0.142582373287	0.68798828125	0.283203125	0.3876953125	-112.3125	-86.8125	-70.875
18	12	13	14	58	51	0.810623483455	0.318365491281	-0.144106772414	0.92626953125	0.17724609375	0.27099609375	-120.75	-82.0625	-45.1875
18	12	13	14	58	51	0.815140085242	0.291082221379	-0.146365101042	1.12646484375	0.09716796875	0.1171875	-136.3125	-81.75	-15.75
18	12	13	14	58	51	0.821481780296	0.262210099424	-0.149598918456	1.27587890625	-0.0908203125	-0.00390625	-139.375	-79.625	11.25
18	12	13	14	58	51	0.827447539272	0.237180876124	-0.152952978787	1.25927734375	-0.435546875	-0.05712890625	-113.0625	-64.625	23.0
18	12	13	14	58	51	0.835566487694	0.214232167407	-0.16149809543	0.869140625	-0.61572265625	-0.02587890625	-55.8125	-38.25	49.4375
18	12	13	14	58	51	0.843754999326	0.205506588739	-0.171692911828	0.458984375	-0.24755859375	0.0556640625	5.375	-20.5625	93.875
18	12	13	14	58	51	0.846796423464	0.213926875035	-0.188231236122	0.3818359375	0.3603515625	-0.16943359375	69.5625	-12.375	85.8125
18	12	13	14	58	51	0.833130799943	0.239990498562	-0.214233634271	0.67822265625	1.52197265625	-0.7783203125	209.5	-75.0625	-34.9375
18	12	13	14	58	51	0.789729456122	0.281065317679	-0.253355512201	0.55615234375	2.6513671875	0.369140625	317.0625	-179.6875	-266.6875
18	12	13	14	58	51	0.752938830178	0.318485312571	-0.268618984405	-0.748046875	4.072265625	0.84521484375	232.75	-62.125	-252.3125
18	12	13	14	58	51	0.729503261851	0.347417383405	-0.277286924246	-2.796875	2.63623046875	2.0234375	176.6875	-8.25	-142.125
18	12	13	14	58	51	0.710208495097	0.379152214811	-0.288880784401	-1.66455078125	1.171875	3.13623046875	208.6875	19.1875	-77.6875
18	12	13	14	58	51	0.719853268081	0.412783419708	-0.28228941537	-0.45751953125	1.029296875	3.8935546875	157.1875	222.5625	108.125
18	12	13	14	58	51	0.754166817894	0.431344844776	-0.248052278077	-0.48388671875	1.25537109375	1.8701171875	-13.6875	373.75	202.3125
18	12	13	14	58	51	0.800736916709	0.428964025507	-0.194584136784	0.39404296875	1.17578125	0.6611328125	-176.875	441.5625	233.4375
18	12	13	14	58	51	0.841200676988	0.419135470097	-0.134218566877	0.25	0.4482421875	-0.11328125	-217.4375	442.375	202.25
18	12	13	14	58	51	0.869694331433	0.413454235464	-0.0816044158275	-0.18798828125	0.0283203125	-0.552734375	-154.375	401.125	208.875
18	12	13	14	58	51	0.886680667029	0.41389010829	-0.0343636824904	-0.197265625	-0.66748046875	-0.66455078125	-83.5	369.0	184.6875
18	12	13	14	58	51	0.896935988197	0.413280270574	-0.00469983471189	-0.26416015625	-0.7431640625	-0.40869140625	-49.4375	257.9375	181.0625
18	12	13	14	58	51	0.908212813293	0.394413387063	0.0130616627718	-0.14794921875	-0.60302734375	-0.6650390625	-140.375	113.4375	63.25
18	12	13	14	58	51	0.913681893009	0.384357998549	0.0202036680196	0.1650390625	-0.744140625	-1.15771484375	-89.75	45.5625	32.375
18	12	13	14	58	51	0.911883012899	0.39026639789	0.0217899756094	-0.0283203125	-0.3837890625	-0.8818359375	8.9375	15.1875	28.6875
18	12	13	14	58	51	0.903217231333	0.408211707201	0.0128176522895	-0.22998046875	0.6865234375	-0.349609375	70.8125	-61.4375	-14.0
18	12	13	14	58	51	0.890036004747	0.425486283712	-0.00628677194411	-0.26220703125	2.458984375	-0.48486328125	137.1875	-159.1875	-127.9375
18	12	13	14	58	51	0.880340166767	0.419142752908	-0.0183722103721	-1.08984375	3.15478515625	0.013671875	0.5	-209.3125	-274.4375
18	12	13	14	58	51	0.887302714917	0.375808132059	-0.0271617051756	-2.84716796875	2.1982421875	1.02099609375	-229.4375	-206.0625	-191.25
18	12	13	14	58	51	0.878241069724	0.371035336914	-0.0465091177378	-1.8935546875	0.46630859375	1.45068359375	19.8125	-176.25	-134.75
18	12	13	14	58	51	0.853496638478	0.4061479391	-0.0811197191259	-1.658203125	1.2861328125	1.31396484375	284.0	-159.75	-69.3125
18	12	13	14	58	51	0.831568380667	0.434339444864	-0.113711971021	-1.26220703125	2.171875	0.9609375	243.1875	-144.0	-29.8125
18	12	13	14	58	51	0.820807401296	0.434878995705	-0.132508392937	-0.56396484375	1.88134765625	0.76953125	43.8125	-146.8125	-58.75
18	12	13	14	58	51	0.814422433043	0.42030374533	-0.143254849011	-0.21923828125	1.0576171875	0.5869140625	-55.5625	-155.0625	-103.6875
18	12	13	14	58	51	0.805662626366	0.405760995461	-0.154418670054	0.04296875	0.74755859375	0.419921875	-49.6875	-160.375	-119.3125
18	12	13	14	58	51	0.795481489286	0.392949422852	-0.164980163089	0.353515625	0.62109375	0.294921875	-38.25	-147.8125	-121.5
18	12	13	14	58	51	0.786095432123	0.379405948138	-0.173833355904	0.6513671875	0.39501953125	0.193359375	-44.125	-131.6875	-114.3125
18	12	13	14	58	51	0.778151088244	0.364081201771	-0.184207387585	0.77978515625	0.1943359375	0.15576171875	-45.875	-132.6875	-90.1875
18	12	13	14	58	51	0.772042851787	0.34607344214	-0.196962786206	0.923828125	0.1240234375	0.16748046875	-50.5625	-138.875	-62.4375
18	12	13	14	58	51	0.767964805891	0.3250208704	-0.208196467405	1.09326171875	0.013671875	0.12158203125	-69.4375	-132.375	-48.75
18	12	13	14	58	51	0.765719624409	0.302991806741	-0.216562234149	1.11474609375	-0.23193359375	0.1025390625	-79.5625	-115.1875	-36.6875
18	12	13	14	58	51	0.7680713005	0.277528623917	-0.228700187776	0.92431640625	-0.4296875	0.15380859375	-56.375	-90.5625	-8.5
18	12	13	14	58	51	0.771401365019	0.260978893648	-0.242790935204	0.70654296875	-0.3388671875	0.24609375	-3.3125	-68.8125	32.3125
18	12	13	14	58	51	0.772640660961	0.257262057505	-0.264036930193	0.68017578125	0.05224609375	0.40234375	76.3125	-56.9375	55.75
18	12	13	14	58	51	0.760491733444	0.279050417761	-0.300595649054	0.62841796875	1.17138671875	0.44140625	235.3125	-90.25	40.0
18	12	13	14	58	51	0.747585125253	0.291453214654	-0.339184400803	0.41943359375	2.5029296875	0.32568359375	207.5625	-134.9375	57.0625
18	12	13	14	58	51	0.739252676437	0.278806656701	-0.370053581344	0.2685546875	2.22509765625	0.8427734375	40.3125	-181.6875	69.4375
18	12	13	14	58	51	0.732682145509	0.276312235315	-0.409188695726	0.04248046875	2.69580078125	0.91748046875	152.4375	-154.25	135.5
18	12	13	14	58	52	0.732416520409	0.26952927951	-0.440304398186	-0.001953125	2.8798828125	1.3447265625	112.75	-110.9375	167.375
18	12	13	14	58	52	0.740968644914	0.267578792364	-0.45813102543	0.0166015625	1.779296875	1.697265625	105.3125	-8.375	189.5625
18	12	13	14	58	52	0.758869764007	0.276679533519	-0.460155968057	-0.1884765625	1.419921875	1.88623046875	129.5	126.125	204.875
18	12	13	14	58	52	0.788323104885	0.281491650645	-0.441524414736	-0.3623046875	1.55859375	1.56494140625	54.875	241.25	217.875
18	12	13	14	58	52	0.822586357218	0.277287958807	-0.401008560282	-0.2802734375	1.15673828125	1.009765625	-69.875	300.375	159.875
18	12	13	14	58	52	0.855623065107	0.270762156999	-0.35218612396	-0.33544921875	0.54638671875	0.38330078125	-104.125	332.5	128.5625
18	12	13	14	58	52	0.885103025546	0.266916456156	-0.298961079865	-0.37646484375	0.24072265625	-0.0908203125	-90.5625	356.3125	118.6875
18	12	13	14	58	52	0.909332147818	0.268258476954	-0.241585222249	-0.4912109375	-0.08056640625	-0.52685546875	-61.0625	377.375	98.5
18	12	13	14	58	52	0.926981177111	0.275707774874	-0.183174459242	-0.482421875	-0.2099609375	-0.7880859375	-20.3125	381.875	83.4375
18	12	13	14	58	52	0.937999180095	0.286136137187	-0.127259779444	-0.44921875	-0.1884765625	-0.99755859375	3.625	360.4375	64.375
18	12	13	14	58	52	0.942249345403	0.299820482258	-0.0774576938082	-0.36474609375	-0.1591796875	-1.025390625	31.8125	313.4375	28.8125
18	12	13	14	58	52	0.940196737448	0.317569697802	-0.0378422472876	-0.2744140625	-0.11474609375	-0.90576171875	67.5	239.9375	-18.5
18	12	13	14	58	52	0.933378732337	0.338206353379	-0.00891141086327	-0.18896484375	0.04638671875	-0.6220703125	96.0	160.625	-73.125
18	12	13	14	58	52	0.922682221638	0.359014144849	0.0120241051573	-0.37451171875	0.81689453125	-0.357421875	102.1875	81.125	-155.1875
18	12	13	14	58	52	0.908498422579	0.378378239826	0.0236219356045	-0.57958984375	1.9775390625	0.00146484375	124.8125	4.375	-223.0
18	12	13	14	58	52	0.898087453651	0.378180634961	0.0345465202369	-1.64453125	2.71533203125	0.3515625	16.875	-41.6875	-274.25
18	12	13	14	58	52	0.892602450856	0.364817071168	0.041627111015	-2.42333984375	1.3955078125	1.27099609375	-58.1875	-65.875	-229.6875
18	12	13	14	58	52	0.872226453979	0.390640259305	0.0214852142618	-2.28955078125	0.84423828125	1.42333984375	212.4375	-126.5	-145.5625
18	12	13	14	58	52	0.846131761165	0.430908911046	-0.0150146731044	-1.81640625	2.02392578125	0.71337890625	324.3125	-156.0	-56.1875
18	12	13	14	58	52	0.831212558862	0.447895267802	-0.0460224900412	-0.9560546875	2.048828125	0.68603515625	161.5	-160.375	-9.4375
18	12	13	14	58	52	0.823666877622	0.44488387336	-0.071777121014	-0.431640625	1.52001953125	0.64453125	41.5	-179.25	-32.75
18	12	13	14	58	52	0.814285687454	0.435372146661	-0.0936297312461	-0.2509765625	1.1171875	0.546875	6.1875	-198.375	-91.8125
18	12	13	14	58	52	0.804352690945	0.421097982609	-0.114506423449	0.001953125	0.76708984375	0.44189453125	-16.0	-208.9375	-107.75
18	12	13	14	58	52	0.794986092352	0.404603670342	-0.134277881242	0.34814453125	0.41796875	0.37353515625	-25.6875	-199.5	-99.5
18	12	13	14	58	52	0.786691572997	0.385746818321	-0.153261117216	0.62939453125	0.1708984375	0.3525390625	-36.3125	-190.8125	-86.375
18	12	13	14	58	52	0.779495442154	0.36469229245	-0.172671882065	0.8095703125	0.10595703125	0.31982421875	-44.5	-188.3125	-67.4375
18	12	13	14	58	52	0.773640712256	0.340462950135	-0.193181290279	0.97705078125	0.0830078125	0.181640625	-57.0	-192.5	-47.0
18	12	13	14	58	52	0.769225847837	0.311401275543	-0.212158140687	1.0869140625	0.00390625	0.0556640625	-84.875	-193.5625	-35.5
18	12	13	14	58	52	0.765618494271	0.280820367677	-0.2279643715	1.09912109375	-0.15673828125	0.0439453125	-98.0625	-179.4375	-28.75
18	12	13	14	58	52	0.762340390405	0.255741091737	-0.243594915781	0.93798828125	-0.326171875	0.0849609375	-65.0	-154.1875	-8.3125
18	12	13	14	58	52	0.758969484788	0.238707652192	-0.264159222369	0.6611328125	-0.2255859375	0.169921875	-4.625	-143.375	22.75
18	12	13	14	58	52	0.753955997056	0.228451169512	-0.292598158333	0.49609375	0.17919921875	0.23681640625	56.3125	-153.75	47.875
18	12	13	14	58	52	0.748038708734	0.223630371149	-0.327266935071	0.49072265625	1.201171875	0.716796875	105.0	-159.375	76.375
18	12	13	14	58	52	0.740047986078	0.22253319235	-0.346128835386	1.0146484375	2.41064453125	0.57275390625	64.0	-98.9375	3.125
18	12	13	14	58	52	0.730604850889	0.227360323272	-0.353705523049	0.2578125	2.068359375	1.7685546875	43.1875	-43.75	-54.1875
18	12	13	14	58	52	0.730942161253	0.241389132244	-0.365959351943	-0.5791015625	2.57666015625	1.70751953125	126.5	12.0	51.25
18	12	13	14	58	52	0.741692358205	0.261105983246	-0.366024446359	-1.07470703125	2.27587890625	1.81982421875	121.0625	116.5	96.75
18	12	13	14	58	52	0.764900743346	0.279788142954	-0.358219155976	-0.6181640625	2.017578125	1.470703125	109.0625	197.0625	191.125
18	12	13	14	58	52	0.796867096245	0.289303771155	-0.329769678386	-0.39453125	1.7705078125	1.146484375	-2.875	271.375	212.625
18	12	13	14	58	52	0.833242954469	0.288998343789	-0.288693171304	-0.20361328125	1.033203125	0.8525390625	-79.9375	321.0	222.4375
18	12	13	14	58	52	0.863419227597	0.294316945813	-0.24652553798	-0.3828125	0.66748046875	0.55859375	-40.75	331.4375	210.0
18	12	13	14	58	52	0.885292557674	0.305860521684	-0.204965003356	-0.53271484375	0.68017578125	0.25634765625	-1.625	323.9375	177.125
18	12	13	14	58	52	0.903338967678	0.313666145601	-0.161014067347	-0.65185546875	0.52001953125	0.01025390625	-22.875	318.5625	154.1875
18	12	13	14	58	52	0.918696760561	0.316853025319	-0.117316801129	-0.67919921875	0.10302734375	-0.1767578125	-38.1875	308.1875	153.5625
18	12	13	14	58	52	0.930279112792	0.319289419265	-0.076785717728	-0.62060546875	-0.1318359375	-0.248046875	-28.4375	290.5625	161.125
18	12	13	14	58	52	0.936872293167	0.324233866786	-0.0402850813402	-0.58154296875	-0.12841796875	-0.40869140625	-5.0625	265.6875	151.1875
18	12	13	14	58	52	0.9391157962	0.330332424869	-0.0108645919488	-0.5400390625	-0.17529296875	-0.62646484375	10.5625	212.375	116.125
18	12	13	14	58	52	0.938482427259	0.336977203492	0.00781254882213	-0.45849609375	-0.115234375	-0.5625	23.75	132.6875	70.5
18	12	13	14	58	52	0.936453894204	0.342487472323	0.018128458257	-0.33154296875	-0.00830078125	-0.60302734375	3.25	40.125	1.625
18	12	13	14	58	52	0.936508922726	0.339799594135	0.0210581749554	-0.2646484375	-0.02392578125	-0.52099609375	-36.1875	-22.5625	-49.3125
18	12	13	14	58	53	0.931717187433	0.349248984375	0.0164797668265	-0.17724609375	0.650390625	-0.21484375	20.25	-57.75	-66.25
18	12	13	14	58	53	0.921233982347	0.367443753642	0.00628682834305	-0.0595703125	1.580078125	-0.11767578125	105.4375	-102.25	-143.1875
18	12	13	14	58	53	0.905847378292	0.383677422003	0.00292976714224	-0.62841796875	2.03125	0.4052734375	102.1875	-120.4375	-276.0625
18	12	13	14	58	53	0.887658453581	0.400462567142	-0.0117190691802	-1.939453125	2.1904296875	0.76904296875	143.3125	-163.375	-233.5
18	12	13	14	58	53	0.87178344227	0.409493461751	-0.0355232068474	-1.91357421875	2.19287109375	1.0205078125	110.5625	-201.4375	-167.5
18	12	13	14	58	53	0.854919416077	0.417297354731	-0.0651855455394	-1.50537109375	1.93505859375	0.8896484375	116.9375	-221.25	-131.375
18	12	13	14	58	53	0.83962059738	0.421153105694	-0.0954613706239	-1.1630859375	1.98193359375	0.95458984375	97.125	-215.125	-93.8125
18	12	13	14	58	53	0.824547805367	0.419872999713	-0.122379032479	-0.73193359375	1.8359375	0.828125	56.25	-217.625	-98.375
18	12	13	14	58	53	0.809599349489	0.41084237194	-0.145757180834	-0.41162109375	1.41552734375	0.69921875	11.25	-225.125	-126.4375
18	12	13	14	58	53	0.794202608806	0.397528557574	-0.167300134548	-0.18896484375	1.0078125	0.59375	-9.125	-226.625	-134.1875
18	12	13	14	58	53	0.779627673285	0.380566706563	-0.186590604966	-0.056640625	0.7861328125	0.48095703125	-30.625	-218.8125	-125.8125
18	12	13	14	58	53	0.766356922267	0.359008555016	-0.200744498036	0.09033203125	0.619140625	0.4521484375	-65.9375	-203.9375	-128.0625
18	12	13	14	58	53	0.75277697158	0.333143331783	-0.21015252681	0.1962890625	0.4228515625	0.44775390625	-97.4375	-197.5	-141.3125
18	12	13	14	58	53	0.737128746429	0.301333495166	-0.218263840128	0.33935546875	0.3134765625	0.404296875	-126.0	-216.0625	-155.9375
18	12	13	14	58	53	0.720202276863	0.260493501496	-0.221553751272	0.6171875	0.2734375	0.359375	-181.5	-227.9375	-172.4375
18	12	13	14	58	53	0.701106068058	0.214598148802	-0.218382302735	0.8603515625	0.060546875	0.21728515625	-221.625	-218.9375	-188.6875
18	12	13	14	58	53	0.680913503372	0.169434912635	-0.211549498269	0.88671875	-0.16015625	0.0361328125	-224.375	-197.3125	-181.25
